Time,Force,Position
5.414240000000001,4.686600911462551,0.1610196215126095
5.418832,4.745437761412166,0.1604808520981796
5.42342,4.798901666861046,0.1597524235050018
5.428008,4.84188453200022,0.1590082488090721
5.432616000000001,4.87545211744011,0.1582704877059342
5.437200000000001,4.904556432458652,0.1575179491389278
5.441788000000001,4.931162672113913,0.1567629327220427
5.446380000000001,4.953393924245077,0.1561127606719581
5.45096,4.97513643751966,0.1555144695166301
5.455552000000001,4.995490777490013,0.1549788135529985
5.460140000000001,5.015600748032074,0.1544696427608258
5.464736,5.035422207697216,0.1539272111475331
5.469316000000001,5.059330144009533,0.1532621054468311
5.473916000000001,5.080295407550613,0.1526756938505856
5.478504000000001,5.102160105539344,0.1520694553939088
5.483104000000001,5.123247553794571,0.1514788156391815
5.4877,5.140781405707835,0.1510248450331318
5.492292000000001,5.1588039964776815,0.150532665949036
5.496872,5.178992010285261,0.1499718515977071
5.501464,5.192761798245159,0.1495611827789793
5.506068000000001,5.20702032506164,0.1491141640076971
5.51066,5.223077720773416,0.1486292694511225
5.515248,5.235170824552164,0.1482518086137088
5.519832000000001,5.245587244149762,0.1478989224505763
5.524412,5.256248033175654,0.1475258613053493
5.529012,5.266620311324624,0.1471216000149892
5.5336,5.273517036397148,0.1467771367578843
5.538188,5.277593273412583,0.146493199187229
5.5427800000000005,5.278726837656784,0.1462802256146692
5.5473680000000005,5.281126390491069,0.1460189637388018
5.551952,5.284669747201293,0.145722197743394
5.55654,5.286947115321432,0.1454727620106192
5.561128,5.293843840393956,0.1451360175741832
5.565724000000001,5.303683238237714,0.1447298394037571
5.570312000000001,5.313767005509764,0.1443046571354413
5.574908000000001,5.3191092311152826,0.1439789069471038
5.579504,5.32673906447268,0.1435805133301872
5.584084000000001,5.332980724525848,0.1432403760936242
5.588676000000001,5.337301330969575,0.1429430577266561
5.593264000000001,5.340600318251507,0.1426716880039359
5.597860000000001,5.341201002190498,0.1424493147912875
5.602448000000001,5.346132532204952,0.142107227620518
5.607048000000001,5.351552801075989,0.1417262996150171
5.611628,5.360815177165909,0.1412667532917975
5.616228000000001,5.370077553255828,0.1408082937106455
5.62082,5.3763972565745135,0.1404151606553158
5.625416000000001,5.385537447950288,0.1399683711435228
5.629992,5.395577073773707,0.1395033083408971
5.634588000000001,5.4115020451396,0.1389108874272991
5.639176000000001,5.429225885400787,0.1382930005978855
5.643772,5.444906487338387,0.1377281209699041
5.64836,5.462508142885427,0.1371242909038627
5.652944,5.471403964832908,0.1367057205300758
5.657536,5.47837873317095,0.1363265370791368
5.662128000000001,5.486908000975994,0.1359401465676044
5.66672,5.500056625733426,0.1354693837773246
5.671312,5.512960881062563,0.1350212586137327
5.675908,5.524965701944057,0.1345864371299764
5.680484,5.535049469216107,0.1341864968328979
5.685068000000001,5.543989432612216,0.133817807003494
5.68966,5.554361710761183,0.1334496301386587
5.694248,5.559259338958749,0.1332338458397429
5.698840000000001,5.563668228299733,0.1330569023755586
5.703428000000001,5.562191772098244,0.1330040039694328
5.7080280000000005,5.563657988667992,0.1328901824218848
5.712620000000001,5.565002020523594,0.1327850703324536
5.717212,5.564547183483901,0.1327085640449715
5.721804000000001,5.569078257539029,0.1325257354193071
5.726396000000001,5.567846170765834,0.1324541245094384
5.7309920000000005,5.564693030383196,0.1324190166679706
5.735580000000001,5.561906444142997,0.1323558154274904
5.7401800000000005,5.556299369845709,0.1323423194161159
5.7447680000000005,5.552735533872007,0.1322831615910047
5.749364,5.552769435688898,0.1321698058669946
5.753952,5.549083415001051,0.1321198813142876
5.758552,5.549117316817936,0.1320077191271863
5.76314,5.548007414758889,0.1319273359430954
5.7677320000000005,5.548818566309278,0.1318114526250025
5.772328,5.556047943707349,0.1315950048860532
5.7769200000000005,5.568263232200243,0.1312775775259584
5.781524000000001,5.5786796517978425,0.1309862112894447
5.786104,5.590239875271379,0.1306621664451325
5.790692,5.602699533192562,0.1303258359583575
5.795276000000001,5.619123483046778,0.1299078882880993
5.799856,5.631216586825525,0.1295998999729941
5.804448000000001,5.647151797823156,0.1292221475841343
5.809040000000001,5.663619889125996,0.1288602026250997
5.813616,5.674857699905722,0.1286201321912899
5.818200000000001,5.688793814028394,0.1283410170465218
5.822788000000001,5.705428231494009,0.1280267328240817
5.827376000000001,5.721818279531333,0.1277318293912974
5.831984,5.746914161168214,0.1272868603735796
5.836572,5.772787292538602,0.1268377102259767
5.841164000000001,5.795962120566043,0.1264299857649761
5.845752000000001,5.821180186917073,0.1259785026114489
5.850340000000001,5.839202777686923,0.1256283727139881
5.854932,5.856936857579849,0.1252461197364221
5.859524,5.876958545224654,0.1248109178669766
5.864116000000001,5.895547918116602,0.1243811246240452
5.868704000000001,5.907596880446721,0.1240497346097841
5.873304000000001,5.922832884976367,0.1236512697486718
5.877880000000001,5.93765819391495,0.1232299659405276
5.882484,5.952972241710113,0.1227773397341033
5.887076,5.968408474219424,0.1223196772780181
5.891672,5.984333445585316,0.1218257381453079
5.896264,6.002423839988941,0.1212931012753689
5.900856000000001,6.016261431582619,0.1207950150190977
5.905444000000001,6.030954316175315,0.1202361319581993
5.910032000000001,6.046135939624596,0.1196468283960439
5.914620000000001,6.058863629159225,0.1190776608566218
5.9192160000000005,6.07081406896035,0.1185105804518353
5.9238040000000005,6.071604741247263,0.1180989486581174
5.928396000000001,6.073905771552551,0.117636339182371
5.932984000000001,6.07657335600028,0.1171494020390631
5.937568000000001,6.08218361321924,0.1166185646542986
5.942160000000001,6.0916359776570825,0.1160299419765057
5.946736000000001,6.10096615738078,0.1154492632014472
5.951336000000001,6.107353664333244,0.1149196716143735
5.955920000000001,6.111820117676266,0.1144208082495728
5.960520000000001,6.121150297399964,0.1138469759606373
5.965116,6.128437238800075,0.11331206725165
5.969700000000001,6.135479810771898,0.1127928552804996
5.974296000000001,6.139579709972483,0.1123188256508554
5.978884000000001,6.142780174725421,0.1118558651490126
5.983488000000001,6.1490454969637405,0.1113424809581138
5.98808,6.149547658373733,0.1109109820484273
5.99268,6.158877838097433,0.1103518303822449
5.9972840000000005,6.169762517288135,0.1097925601439345
6.00188,6.177704523707603,0.1092763293641793
6.0064720000000005,6.182826042069983,0.1087931166067297
6.0110600000000005,6.190768048489451,0.108277196327817
6.015656,6.203085042433013,0.1077211466398084
6.020232,6.2131144286246975,0.107216245237159
6.024832,6.222777260673944,0.1067363806592218
6.02942,6.228353616076017,0.1063252260547723
6.03402,6.23560665565924,0.1059087945206666
6.038604000000001,6.246335248318909,0.1054691363150431
6.043200000000001,6.255920037102637,0.1050534979357174
6.047792000000001,6.264238837296283,0.1046694524540394
6.0523880000000005,6.274889386690433,0.1042884790052047
6.056984,6.282597263313349,0.1039458187290893
6.061584,6.291859639403269,0.1036027759618825
6.066172,6.3026765149601935,0.1032581588939124
6.07076,6.314270640250621,0.1029148770772701
6.075348,6.324598776950962,0.1026059285404421
6.079940000000001,6.337503032280102,0.1022810244685312
6.084528000000001,6.341457084581393,0.1020817825170612
6.089124,6.34516676745439,0.1018987904949813
6.093708000000001,6.350919688650976,0.1016851410863906
6.098288,6.35949309790465,0.1014403506466465
6.102880000000001,6.365246019101236,0.1012270610413221
6.107464,6.371243309726112,0.1009989825001501
6.112044000000001,6.3794060233887215,0.1007337851071944
6.116648,6.386014237584327,0.1004678966094654
6.121236,6.392089571474722,0.1001855760807811
6.125844000000001,6.393423363698585,0.0999564372323554
6.130436000000001,6.3930804717413,0.0997358910142071
6.135024,6.392082514764656,0.0995066771363493
6.139620000000001,6.390673862196949,0.0992535140777471
6.144204,6.383457907352288,0.0990208142987884
6.148808000000001,6.37763012581186,0.0987489910386807
6.153396000000001,6.372535452556302,0.0984322317312041
6.158000000000001,6.370094941195061,0.0980495455259849
6.162588000000001,6.366099930366817,0.0976659253793512
6.167188000000001,6.361205485090924,0.0972897558490202
6.171764,6.355000909776318,0.096897318697944
6.176364000000001,6.354559495290037,0.0964407616882795
6.180960000000001,6.353829569926836,0.0959548024907592
6.185560000000001,6.353999079011282,0.0954636206684166
6.190144,6.357111260866964,0.0949412409138925
6.194736000000001,6.358546758541496,0.0944219690767134
6.199336000000001,6.358305572034878,0.093907404501157
6.203928000000001,6.35806438552826,0.093395033822657
6.208512000000001,6.360765871792876,0.0928494291071401
6.213104000000001,6.365388411666934,0.0922835268769236
6.217688000000001,6.368578636788134,0.0917035573007647
6.222284,6.367271689671094,0.0911528067752829
6.226872,6.367763611449349,0.0905887897297537
6.231464000000001,6.37119820599884,0.0899921518333924
6.236048,6.377086734462983,0.0893909422711483
6.240636,6.389515673488951,0.0887385458837847
6.245232,6.39887975502954,0.0881269226988527
6.249812,6.404035175208809,0.0875765925879866
6.254404000000001,6.411111648997518,0.087009331537238
6.259,6.416633623319224,0.0864379091261552
6.2635760000000005,6.420889609050843,0.0858925741689721
6.268168000000001,6.420770607258371,0.0853672413655741
6.27276,6.420285051323462,0.0848646554686017
6.277344000000001,6.418777876226759,0.084375865903105
6.2819400000000005,6.410485921139937,0.0839518744576471
6.286532000000001,6.406813323005502,0.0834946182438326
6.291124,6.409681135432892,0.0829907235918886
6.295712,6.410627894250842,0.0825046159883929
6.300312,6.410430849192854,0.0820390306399654
6.304892000000001,6.410233804134863,0.0815741315079706
6.3094920000000005,6.4162106154962615,0.0810839499936118
6.314080000000001,6.428727837419488,0.0805481938738422
6.3186800000000005,6.437525136837976,0.0800356613124652
6.323272000000001,6.445056447666379,0.0795513504017368
6.327864,6.452832127923073,0.0790543022411669
6.332452,6.453045778456148,0.0786152391095417
6.337048000000001,6.456202101760458,0.0781497707840732
6.341636000000001,6.464344336159589,0.0776376874031777
6.3462320000000005,6.470198962806843,0.0771625635401091
6.350820000000001,6.4769530239017445,0.0766826196751211
6.355404,6.487671376929674,0.0761673854783781
6.359992,6.503908521357637,0.0756242455260738
6.364592,6.515526308833215,0.0751042848750858
6.369184000000001,6.528287900184732,0.0745692889667595
6.373776000000001,6.54411434902163,0.0739992896435544
6.378364000000001,6.55814192896323,0.0734405052205222
6.382944,6.563463675305273,0.0729506049445613
6.387536000000001,6.568130356627958,0.0724494060404397
6.392124000000001,6.573940841826584,0.0719329339737697
6.396704,6.580772946187002,0.0714084972998159
6.401300000000001,6.58539548606106,0.0708702540752314
6.405892,6.58629810343038,0.0703537306144732
6.41048,6.593086066342171,0.0697917739870322
6.415076000000001,6.599096779520461,0.0692264116755422
6.419672,6.605640373003961,0.0686803129592894
6.424276000000001,6.6159038889921975,0.068115932885903
6.428868,6.625267970532786,0.0675571391776176
6.433464000000001,6.62886889124505,0.0670357277318364
6.438044,6.634102354689835,0.0664722102433076
6.442640000000001,6.637536949239327,0.0659117625110218
6.447232,6.6401942940553145,0.0653508756666799
6.451836,6.64015333552836,0.0648002797485169
6.456424,6.648696025886818,0.0642039340643887
6.461024,6.656217097083482,0.0636187648981892
6.465608,6.669501329108472,0.063007468081041
6.470204000000001,6.682907745847606,0.0623918593005838
6.474792000000001,6.702321692843356,0.0617327583454737
6.479388,6.725211192915552,0.0610756136372375
6.483976,6.744258585768865,0.0604391118529877
6.488568000000001,6.762284359460384,0.0598142009985402
6.493148,6.777900340685878,0.0592252052246062
6.497736,6.792494702749581,0.058643450689727
6.502324,6.805045826489695,0.0580812763541961
6.506916,6.815675896620369,0.0575266558791975
6.511512,6.825773086445831,0.0569564296662827
6.516104,6.8368918954330855,0.0563827612985053
6.5207,6.850709007763286,0.0558100825457402
6.525284000000001,6.86836822731237,0.0552208857120557
6.52988,6.885416523290723,0.0546652956403188
6.534468,6.907983610669111,0.054100208039313
6.539056,6.924543167790882,0.053570638310125
6.543652,6.93816005214142,0.0530557872411047
6.54824,6.944992156501837,0.0525732911445385
6.552828,6.947082719195726,0.052104310156371
6.557424000000001,6.939445829128262,0.0516794102233387
6.562012000000001,6.928744081575417,0.0512731656410086
6.566604,6.911257554032456,0.0508932934826474
6.571184000000001,6.888007865661168,0.0505331792002788
6.57578,6.86757866534697,0.0501632945088475
6.580364000000001,6.840364685042656,0.0498170076406232
6.584964000000001,6.811229651128898,0.0494743490821153
6.589552000000001,6.780051378891555,0.0491414196344529
6.594152000000001,6.744908814721182,0.0488256676465971
6.598744,6.710421315570168,0.0485193753507356
6.6033360000000005,6.6690268517148885,0.0482423395007246
6.607928000000001,6.619703803993552,0.0480025136253303
6.6125240000000005,6.559753869063217,0.047799616348526
