Time,Force,Position
3.242059999999995,2.8421678028307333,0.1782979785129231
3.2466599999999985,3.0128442052957967,0.1756959184129994
3.251255999999998,3.167398591336978,0.1742159593773816
3.255843999999996,3.31609129402084,0.172462572634575
3.2604319999999944,3.4543029563949967,0.1710596921287699
3.265023999999997,3.5865307506976896,0.169537660868192
3.269619999999996,3.707255885528885,0.1682001676478108
3.2742000000000004,3.818521599212169,0.1669013367280527
3.278791999999996,3.921515837072111,0.1656255454243256
3.283387999999995,4.008554384670943,0.1647046798942124
3.287968,4.08822089089408,0.163733192276789
3.2925599999999946,4.159982475436311,0.1627248591088012
3.297151999999997,4.222040269402339,0.1617513256813129
3.3017399999999952,4.272228849754433,0.1608787176137615
3.3063359999999946,4.310836727369512,0.160144562346582
3.310924,4.342116705057524,0.1594203290653023
3.3155280000000005,4.369466292629396,0.1587029708545273
3.3201159999999987,4.39959222680973,0.1578405926817755
3.324715999999995,4.4289409112565625,0.1569970493764142
3.329307999999997,4.456779237685017,0.156250512590504
3.333903999999997,4.4779549688375,0.1556989132321894
3.338499999999996,4.499252884704129,0.1551342183031049
3.3430879999999945,4.522882549771264,0.1545391022943729
3.347695999999999,4.547289464571902,0.1539440065637236
3.352272,4.567487718011221,0.1534976753420126
3.3568639999999945,4.584210418374093,0.15313019983445
3.3614439999999988,4.598112630679875,0.1528355120252795
3.366043999999995,4.611648288843221,0.1525811689840947
3.3706399999999945,4.624773251415503,0.152303774016712
3.375239999999998,4.642229060063249,0.1518701539274577
3.379824,4.658008184529844,0.1514689275366374
3.421143999999998,4.64781565509706,0.1514394949433978
3.425736000000001,4.647483002771512,0.1513395261830628
3.430327999999996,4.650215207931345,0.1511476946364014
3.434923999999995,4.652170163357675,0.1509640133424876
3.4395079999999965,4.650283011565123,0.1508803578277004
3.444103999999996,4.651582901972097,0.1506925738046299
3.448692000000001,4.651616803788987,0.1505579119613594
3.453275999999996,4.656270062558261,0.1503134813510611
3.457887999999997,4.661045506041682,0.150059005340778
3.46248,4.6627560920397215,0.1498972740684514
3.467087999999997,4.659602951657084,0.1498670598953795
3.471675999999995,4.656938550131029,0.1497904170902035
3.4762640000000005,4.662979982204534,0.1494801864191529
3.48086,4.667711284239325,0.149162883560693
3.485447999999998,4.673708574864201,0.1487910981097124
3.490043999999997,4.679705865489079,0.1484173699136046
3.494623999999994,4.690977578085697,0.1479389067681158
3.499220000000001,4.702004921254025,0.1474818601581918
3.5038119999999964,4.710989026098764,0.1470932974804363
3.508412,4.717397012314707,0.1467542495106634
3.512991999999997,4.726747671301882,0.1463374146041494
3.5175920000000005,4.734299461393763,0.1459627440138776
3.522175999999994,4.739685828447912,0.1456625637894115
3.526772000000001,4.748137052987441,0.1452785747721962
3.5313599999999994,4.761452003907647,0.1447740119145825
3.5359479999999976,4.775422019847207,0.144279012668533
3.540548000000001,4.794255762167446,0.1436657484821734
3.5451440000000005,4.813988938935332,0.1430454217471761
3.5497279999999947,4.830779442931982,0.1424964655643347
3.554311999999996,4.851045500005078,0.1418891307833822
3.5589000000000013,4.874909294868767,0.1412087452231599
3.5634960000000007,4.898162166161726,0.1405850197449677
3.568079999999995,4.921170668026395,0.1399970082790604
3.572671999999997,4.946633103805715,0.1393848236752314
3.5772559999999984,4.972506235176102,0.1388021063359059
3.5818439999999967,5.001444224031868,0.1381421096884992
3.586439999999996,5.03050439760178,0.1374865492787697
3.591028000000001,5.061485624781133,0.1367891766546376
3.595616,5.09066798306519,0.1361254231079608
3.600211999999999,5.1176849183115145,0.1355218782757956
3.6048040000000015,5.140859746338957,0.1350046650315388
3.609411999999999,5.1622357054711046,0.1345204820826376
3.614004000000001,5.179358861793302,0.1340917943839958
3.618592,5.193661530058411,0.1337268236449871
3.623187999999999,5.204366460532929,0.1334274725002548
3.627775999999997,5.209796969035706,0.1332096070756917
3.6323799999999977,5.211629739747891,0.1330548500784236
3.636959999999995,5.209864772669484,0.1329616244548171
3.641556000000001,5.212552836380689,0.1327363615067328
3.646144,5.213031335605534,0.1325158960389809
3.650743999999996,5.21567525786811,0.1322374643769986
3.6553359999999984,5.221384037616067,0.1318870670494817
3.659939999999999,5.222595645125786,0.1316100645592341
3.664532000000001,5.223152187616147,0.1313292930864511
3.6691280000000006,5.225096903410739,0.130996689031943
3.673715999999999,5.224998380881744,0.130713079163871
3.678308000000001,5.219258882238571,0.1305320206552929
3.682896,5.214541002757192,0.1303279196321631
3.687491999999999,5.20982312327581,0.1301232896326039
3.692076,5.20931390515575,0.1298154509549216
3.696672,5.213668413416366,0.1294116613347382
3.7012599999999978,5.217001302515188,0.1290290413304039
3.705847999999996,5.225486428871606,0.1285826875461184
3.7104399999999984,5.236669858570967,0.1280998206424685
3.715032000000001,5.24952997245148,0.1276007258163131
3.719619999999999,5.269829931341467,0.1269764964596426
3.724207999999997,5.291928759126749,0.126327623081348
3.7288039999999967,5.317869694130913,0.125612120665288
3.733391999999995,5.343077520850205,0.1249649001776123
3.7379880000000014,5.372782519807735,0.1242627288589666
3.7425799999999967,5.398645411546381,0.1236359181372494
3.747167999999995,5.419766761618496,0.1230927624211539
3.7517640000000014,5.445629653357144,0.1224726849692408
3.756352,5.472269794829293,0.1218573921176008
3.760939999999998,5.493924025206621,0.1213392917739829
3.765535999999997,5.5155782555839465,0.1208221508816627
3.770123999999996,5.541318962608447,0.1202188629669957
3.774732,5.565382985451799,0.1196361001405582
3.779323999999996,5.589447008295149,0.1190514533654274
3.783932,5.611345608100768,0.1185235478759775
3.788511999999997,5.629524285401649,0.1180561760461781
3.7931079999999966,5.65166725463556,0.1175164724315166
3.797688000000001,5.673155158850113,0.1169749815240311
3.802287999999997,5.6891242716646335,0.1165119746899153
3.806872,5.707258807516887,0.1160059060651056
3.811471999999995,5.722572855312052,0.1155489521782556
3.81606,5.739685772002511,0.1150760858411737
3.820651999999996,5.751402082007084,0.1146685974602111
3.825240000000001,5.762585511706445,0.114248761667947
3.829827999999999,5.768250150005774,0.1139018894866248
3.834407999999996,5.776202396056982,0.1135012617053662
3.8389919999999975,5.788363303469509,0.1130184212573166
3.843571999999994,5.795904853929652,0.1125962663527182
3.84816,5.79768324356147,0.1122583911623638
3.8527519999999953,5.804814098430547,0.1118106820250996
3.8573439999999977,5.812189322727915,0.1113466294122997
3.861931999999996,5.820097427330493,0.1109019358841533
3.866512,5.82866059695243,0.1104662231737989
3.871108,5.83824538573616,0.1100122467604078
3.875695999999998,5.84807454394818,0.1095422655591469
3.880283999999996,5.8616236246649365,0.1090290959553433
3.884879999999995,5.877338128419429,0.1084813391531357
3.889468000000001,5.893541371030503,0.1079053447565069
3.8940799999999953,5.911787851965163,0.107291572018094
3.8986680000000007,5.925292791233294,0.1067424016153424
3.903255999999999,5.937365415748563,0.1061882289906609
3.9078519999999983,5.9431419991303,0.1056954767553086
3.9124440000000007,5.95047308197904,0.1051990649136128
3.91704,5.9521631887136,0.1047696985543264
3.921619999999997,5.95475272989581,0.1043298733523014
3.9262200000000007,5.953133609716698,0.1039663997920529
3.930799999999998,5.950492870375795,0.1036218966552594
3.9354039999999983,5.947974315749037,0.1032672812589274
3.9399919999999966,5.9485206186076605,0.1028586422784871
3.944592,5.943958825657315,0.102535422166211
3.949188,5.939397032706971,0.1022122154125708
3.9537759999999977,5.931604056108471,0.1018980989807666
3.958368,5.922378764757114,0.1015756748422341
3.962964,5.912498408386399,0.1012442465442816
3.967568,5.899797563958595,0.1009448715320045
3.9721599999999953,5.882721732006697,0.1006779476360884
3.9767519999999976,5.8559184472934485,0.1005418324172687
3.981344,5.824784316504733,0.1004868327538451
3.9859359999999953,5.794549620163664,0.1004214135684937
3.990519999999997,5.765336542984392,0.1003383313373731
3.9951079999999934,5.737433595843831,0.1002700649290703
3.999704000000001,5.715049440103302,0.1001438442633238
4.0042959999999965,5.695730141848154,0.0999673044830256
4.008887999999999,5.680908015831246,0.0997501307013507
4.013483999999998,5.6672296936902775,0.099507116131952
4.0180719999999965,5.658415097929985,0.0991986818094681
4.022667999999996,5.645636210236663,0.0989459955022142
4.027256000000001,5.637476679495726,0.0986453440468737
4.031852000000001,5.631482571792522,0.0983040016735474
4.036439999999999,5.629330571308201,0.0979143287387595
4.041027999999997,5.628200189985673,0.0975097516146621
4.04562,5.627847058396648,0.0971045915654208
4.050211999999995,5.628393361255271,0.0966920168764571
4.054803999999997,5.632537401904486,0.0962523948379627
4.059404000000001,5.639501930610789,0.0957812033705405
4.063995999999996,5.648020958784096,0.09531162353496
4.068591999999995,5.664224201395171,0.0947478611201405
4.073172,5.683492301491624,0.0941347273744288
4.077771999999996,5.702638216873932,0.0935320177051303
4.082363999999998,5.720762513094446,0.092943415316092
4.086956000000001,5.73835392900975,0.0923400844140153
4.091547999999996,5.756311899067491,0.0917200971907946
4.096148,5.770672131334639,0.0911305567006476
4.100743999999999,5.787442156067812,0.0904912702491708
4.105331999999997,5.80523379996278,0.0898418295127696
4.109919999999995,5.821348759676595,0.0892022343188678
4.114511999999998,5.842327445771089,0.0885071836195807
4.119112000000001,5.861629447684432,0.0878255612185676
4.123711999999998,5.879909830435981,0.0871627875980403
4.128304,5.898312397901677,0.0864971820585425
4.132903999999996,5.914793911757929,0.0858537328559951
4.137487999999998,5.93499534811892,0.0851844537813165
4.142075999999996,5.955196784479913,0.0845183951451515
4.146659999999997,5.970778863888518,0.0838914235697167
4.1512559999999965,5.986360943297125,0.0832664331116205
4.155847999999999,6.000388523238728,0.0826364370261861
4.160427999999996,6.013516668732682,0.082017288902697
4.165023999999995,6.027788618102574,0.0813811669264319
4.169615999999998,6.041527687167257,0.080728239533143
4.174211999999997,6.060130482612614,0.080031202905362
4.178799999999995,6.076690039734384,0.0793589945731368
4.183388000000001,6.089285304923128,0.0787315884207722
4.187992000000001,6.102535635131227,0.0781132795952218
4.1925839999999965,6.112721107853946,0.0775349976112797
4.197171999999995,6.118697919215345,0.0770119660677511
4.201768000000001,6.123775296129096,0.0764939901290733
4.206356,6.124355500804608,0.0759982615326106
4.210963999999997,6.121748663280594,0.07554535329741
4.215551999999995,6.117998021880642,0.0751113880478162
4.220147999999995,6.1142473804806885,0.0746789902425357
4.224739999999997,6.110496739080735,0.0742456019836395
4.229335999999996,6.101227306280749,0.0738436606560892
4.233916000000001,6.085950343224146,0.0734998286514501
4.238515999999997,6.075414921834075,0.0731211345302577
4.243107999999999,6.064879500444004,0.0727421173418072
4.247707999999996,6.055776393806792,0.0723767158777043
4.252303999999995,6.044630048845992,0.0720333781604538
4.256899999999995,6.029519411952164,0.0717255624587387
4.261488,6.015841089811196,0.0714320926217931
4.266083999999999,5.997421226003696,0.0711701272082486
4.270671999999998,5.984886707738665,0.070857970656587
4.275267999999997,5.9740288736547855,0.0705453519122914
4.279855999999995,5.966113712342141,0.0702084129633675
4.2844399999999965,5.957176931867702,0.0698804975985538
4.289031999999999,5.953226062488085,0.0695067962376657
4.293627999999998,5.952750746184914,0.0691294115773828
4.2982159999999965,5.95575098295819,0.0687466884218022
4.302811999999996,5.963859315540431,0.0683143006922394
4.307407999999995,5.975032505608054,0.0678535698955592
4.312003999999995,5.986205695675677,0.0673960831734586
4.316595999999997,5.999177754638598,0.0669345630497247
4.321187999999999,6.015869736106254,0.0664555763396241
4.325783999999999,6.043310789497056,0.0658982274915437
4.330371999999997,6.064988682059534,0.0653806735736699
4.334955999999998,6.086011509602655,0.0648532375880672
4.339551999999998,6.107645260716505,0.0642925176039804
4.344139999999996,6.130422815706292,0.0637164737179448
4.348739999999999,6.157941912362611,0.0631161563016671
4.3533199999999965,6.181863271228339,0.0625245994382806
4.357911999999999,6.208605118151155,0.0619212170621872
4.362507999999998,6.230605423407441,0.0613493843538881
4.367100000000001,6.251828478930226,0.0607733840397757
4.371704000000001,6.269331611948274,0.0602145297169026
4.376283999999998,6.290799036899349,0.0596294503393122
4.380879999999998,6.3104675929551295,0.0590525222208926
4.385467999999996,6.325883346200962,0.0584734305723601
4.390071999999996,6.340644034427438,0.0578851952187098
4.394659999999995,6.349519377111444,0.0573354756479031
4.399267999999999,6.353530993414775,0.0568138758886035
4.403859999999995,6.353700502499221,0.0563106224464081
4.408456000000001,6.351171708240724,0.055810965880897
4.413043999999999,6.34852072926808,0.055320060088138
4.417631999999998,6.341128208628907,0.0548520054243874
4.422224,6.335901111027468,0.0543590978792258
4.426815999999995,6.335171185664267,0.0538642597203605
4.4313999999999965,6.331909283120896,0.0534105884066121
4.435987999999995,6.327625761415732,0.0529641288728124
4.440571999999996,6.321421186101127,0.0525272646427516
4.445160000000001,6.316238229948315,0.0520800479566046
4.449743999999996,6.307990416310122,0.0516542977614441
4.454339999999995,6.296433375758258,0.0512610173470533
4.458931999999997,6.282955281596951,0.050873100464491
4.463515999999999,6.2693550027215,0.050489433940687
4.468111999999998,6.249747193589432,0.0501409668866333
4.472704,6.228096146133779,0.0498050080898308
