Time,Force,Position
8.747764,2.763303233781984,0.1801944603572863
8.75236,2.9222767487958867,0.1783471061730644
8.756968,3.0734675268430287,0.1767094788580561
8.76156,3.207803180181414,0.1756625776603908
8.766155999999999,3.32818224013365,0.1748972439198595
8.770748000000001,3.442210877871984,0.1739636167316462
8.775336,3.554752819777092,0.172704198594191
8.77992,3.6631097625060303,0.1712170415759652
8.784500000000001,3.7571876991550095,0.1700846256586542
8.789092,3.84851295138068,0.1687870677087648
8.793672,3.934753769982533,0.167298784679296
8.798259999999999,4.015010720512921,0.1657091512932605
8.802855999999998,4.090183237419492,0.1639599384461303
8.807444,4.146946130150302,0.1625706956904044
8.812035999999999,4.193805004325246,0.1613118322011177
8.81662,4.230393305801888,0.1602091200401842
8.821207999999999,4.259331294657654,0.1592454640929936
8.825800000000001,4.280907481769464,0.1584360080423858
8.830388,4.298230866071326,0.1577498638284453
8.834976000000001,4.314288261783102,0.1571403513944904
8.839572,4.327036430581207,0.1566620697443697
8.844152000000001,4.341050587969398,0.1561211646331203
8.848744,4.351344822852849,0.1556888283273113
8.853324,4.368546022440565,0.1550267871347148
8.85792,4.388856220962291,0.1543259267097765
8.8625,4.410965288379312,0.1535899762426056
8.8671,4.426533945234506,0.1530482197335911
8.871683999999998,4.443002036537347,0.1525005278852515
8.876276,4.464456038935011,0.1517995986109128
8.880863999999999,4.47936963077085,0.151281363884286
8.885456000000001,4.492362168997246,0.1508200391243353
8.890035999999998,4.501268230576468,0.1504906767894255
8.894632000000001,4.508008869117957,0.1502395492835582
8.899208000000002,4.522067167954775,0.1498125497779577
8.903792,4.534204413182152,0.1494376652908713
9.013967999999998,4.566126033336108,0.1493357198885199
9.01856,4.568858238495941,0.1491414105174749
9.023148,4.57056882449398,0.1489795017803833
9.027743999999998,4.573789768510395,0.1487440926204118
9.03232,4.58097500445984,0.1484022299698887
9.036916000000002,4.5898369245904345,0.1480372476017032
9.041496,4.602907506082349,0.1475430311362809
9.046072,4.61777695646956,0.1470142047713443
9.050656,4.6373879485232985,0.1463710268791704
9.055243999999998,4.661618297529423,0.1456187813062586
9.059836,4.688913504020929,0.1447695208391726
9.064432,4.718496318264313,0.1438522915385587
9.069012,4.745136459736461,0.143011979197178
9.073608,4.768345189580793,0.1422940651967889
9.078195999999998,4.790121604672267,0.1415865567550605
9.082784,4.810998585316092,0.1409113768274717
9.08738,4.830853946798124,0.1402686305366132
9.091971999999998,4.85671683853677,0.139468379084789
9.096564,4.881558111113623,0.1387011961438002
9.101144,4.90909768703342,0.1378864525112066
9.105744,4.933406079305063,0.1371033347220403
9.110332,4.9532172993384656,0.136414586123029
9.114936,4.969308596867132,0.1358012725648376
9.119523999999998,4.97837074497739,0.1353714723142741
9.12412,4.983468601154619,0.1350438071856281
9.128712,4.988033577026635,0.1347030816940907
9.133308,4.991699118451005,0.1343819193723024
9.137888,4.9931992368376426,0.1341252239007514
9.14248,4.9966204088337225,0.1338302592193049
9.14708,5.000041580829801,0.1335368574101152
9.151672,5.006161056168825,0.1332002107580669
9.15626,5.007172435698878,0.1329922899255348
9.160851999999998,5.012025922447815,0.1327035725309965
9.165432,5.020965885843928,0.1323131601771037
9.170024000000002,5.030194360116958,0.131961136115024
9.174616,5.034314738581021,0.1317350455735429
9.179204,5.039334551492733,0.1314948752047095
9.183788,5.043987810262007,0.1312893033561483
9.188375999999998,5.051828111230808,0.1310032752452017
9.192956,5.056847924142519,0.1307705613611334
9.197551999999998,5.065098920702385,0.1305103017191104
9.20214,5.076947655052843,0.1301961753698662
9.206736,5.0963584191269184,0.1297436351571459
9.211324,5.119855659848171,0.129189080758692
9.215912,5.146539942768948,0.1285549433054563
9.220508,5.173879290709081,0.12793493461772
9.225092,5.199952650059131,0.1273622306189752
9.229696,5.227169813285118,0.1267541676631379
9.234272,5.246580577359195,0.1263063958425337
9.238872,5.265091906985624,0.1258744768301129
9.24346,5.279638944679024,0.1255289377813891
9.248055999999998,5.297250839857806,0.125112675560677
9.25264,5.315762169484235,0.1246906612391716
9.25724,5.332596814929514,0.1242895684716445
9.261831999999998,5.346078092012494,0.1239192977744194
9.266424,5.361969161561497,0.1234700172778279
9.271016,5.377082981376997,0.123026523731276
9.275607999999998,5.391541736173142,0.1225837488457148
9.280204,5.404612317665056,0.1221991285918456
9.284796,5.420869941356496,0.1217415566442697
9.28938,5.436839054171016,0.121251387986736
9.293968,5.449210429194945,0.1208138091207382
9.298556,5.457861881714137,0.1204402680573624
9.303144,5.468434387842771,0.1200369499226547
9.30774,5.475409156180813,0.1196814145283979
9.312335999999998,5.478008936994762,0.1193741586436036
9.316928,5.481874706398796,0.1190289297190186
9.321516,5.488927518002354,0.1186165163467098
9.3261,5.503253848452614,0.1180530444457366
9.330688,5.519745601940606,0.1174445103289618
9.335276,5.538769332608769,0.116761421343403
9.339884,5.55893686715287,0.1160567282588844
9.344472,5.577549902229968,0.1153643506007678
9.349063999999998,5.597306741183004,0.1146488794165266
9.353652,5.62294892567851,0.1138388301154065
9.358228,5.650389979069312,0.1130116177292564
9.362824,5.678974836336052,0.1121621322003922
9.367416,5.702163086916906,0.1113734506368124
9.372008,5.718278046630723,0.1106522174642674
9.376587999999998,5.7305508991256575,0.1099910720747425
9.381187999999998,5.744622620515887,0.1093154103949962
9.385772,5.760981949657996,0.1085885021892707
9.390372,5.773987910437804,0.1078825708106464
9.394968,5.787238240645903,0.1071675361888499
9.399568,5.80420849335874,0.1064090354072489
9.404148,5.8248986685763136,0.1056037257927122
9.408744,5.844933778774531,0.1047959693855036
9.413339999999998,5.858184108982631,0.1040873444805441
9.417936,5.868369581705348,0.1034376465537285
9.42254,5.87765561998042,0.1028023377505632
9.427132,5.885797854379551,0.1021954131031053
9.43172,5.887521862931004,0.1016546372426046
9.436304,5.885403764263572,0.1011633150164549
9.440891999999998,5.880098623396615,0.1007300763725609
9.445484,5.869030321701333,0.1003712934866519
9.450072,5.856285335824901,0.100019908111305
9.454648,5.84264091550082,0.0996760230856095
9.459232,5.833738036843271,0.0992738705103775
9.463812,5.835217675966431,0.098751331873183
9.468404,5.838618368699032,0.0982038090322403
9.472988,5.838176954212749,0.097704830122848
9.477576,5.832749628631646,0.0972759418047093
9.48216,5.830920040841135,0.0968153762825175
9.486756,5.8241045419558,0.0964254619416229
9.49134,5.814468555013377,0.0960665380709293
9.495944,5.802134264728012,0.0957289911941639
9.500536,5.7904550394620005,0.0954000610787184
9.50514,5.783761725290811,0.0950005445301506
9.509720000000002,5.774247923062536,0.0946292819937318
9.514316,5.761913632777167,0.0942868316010435
9.518895999999998,5.7506009616535945,0.0939288552585318
9.5235,5.743785462768261,0.0935329716080328
9.528092,5.739790451940016,0.093105999825869
9.532688,5.737716494721213,0.0926555037051578
9.537268,5.738585210273645,0.0921656510727459
9.541864,5.74100842529308,0.0916790738094395
9.546456,5.744331074760163,0.0911875566099466
9.551052,5.747409354798956,0.0907151745550491
9.555636,5.744602289295278,0.0903181637680775
9.560232,5.7419174085057465,0.0899134144638352
9.56482,5.741930831059159,0.0894892273660379
9.569412,5.749261913907899,0.0890071474115865
9.573988,5.756348627328348,0.0885438898282355
9.578584,5.768299067129473,0.0880261682681908
9.583172,5.778206268607011,0.0875342198331069
9.587751999999998,5.791955577303432,0.0870039523946389
9.592336,5.8010855290474685,0.0865105408741909
9.596916,5.810093296077358,0.0860288594509037
9.601503999999998,5.825763658383221,0.085485341560414
9.606103999999998,5.8422112704225855,0.0849426698180108
9.610692,5.856737828852509,0.0844216529548706
9.615276,5.874984309787169,0.0838765531737824
9.619872,5.896173463493064,0.0833055282337199
9.624468,5.92067184411263,0.0826868018542156
9.629076,5.945048040018053,0.0820789024937492
9.633655999999998,5.966970302008821,0.0814723380817531
9.638248,5.988648194571299,0.0808857218749343
9.642828000000002,6.009304467971983,0.0803146635955311
9.647424,6.029838556658524,0.0797503465733356
9.652003999999998,6.053070948688003,0.0791778133249244
9.656604000000002,6.073849406802832,0.0786055686058671
9.661196,6.09331773487895,0.0780220631772797
9.665788,6.112130997935712,0.077431171241596
9.670376,6.128245957649529,0.0768568656535605
9.674968,6.153311120391195,0.0761993667551732
9.679568,6.175189240933337,0.0755871009486129
9.68416,6.200787283980215,0.0749489656034311
9.688748,6.225363707865299,0.0743262528025201
9.69334,6.243277536474412,0.0737564719565366
9.697928,6.261435734511816,0.0731721635857372
9.702516,6.281514986158661,0.0725754050684668
9.707104,6.296197631119618,0.0720051505081176
9.711696,6.304217680804605,0.0714823460051377
9.716292,6.307251819394769,0.0710079554469239
9.720876,6.3102859579849335,0.0705343304465647
9.725472,6.315118965470393,0.0700538133553008
9.730059999999998,6.313533747108172,0.0696001968671005
9.734652,6.312070713460096,0.0691397512916073
9.73924,6.310974233954458,0.0686567763118858
9.743828,6.303337343886995,0.0682096991363326
9.748432,6.299420376324267,0.0677434521122743
9.75302,6.29105037797193,0.067339214334955
9.757611999999998,6.281780945171944,0.0669371392821367
9.762204,6.274554750695543,0.0665151229287494
9.766804,6.255557865134204,0.0661814581576999
9.771408,6.237826968162951,0.0658228131182405
9.775996,6.222139309515283,0.0654449655931818
9.780596,6.204530597258176,0.0650775848515661
9.785184,6.19076399221995,0.0646848150385138
9.789784,6.179817875238815,0.0642779314577106
9.794372,6.1669507046482375,0.063882202130839
9.798972,6.157436902419959,0.0634913377288191
9.803556,6.153686261020007,0.0630655735810313
9.808156,6.154554976572437,0.0626235066438462
9.812744,6.155545876839013,0.0621751802842305
9.817340000000002,6.15821346128674,0.0617319097970193
9.821928,6.167665825724585,0.0612452868980896
9.82652,6.176340940428927,0.0607542285999123
9.831112,6.186937108742712,0.0602545414624535
9.835704,6.202274818723027,0.0597316388458101
9.840284,6.216590909541548,0.059221960217621
9.844867999999998,6.230496304769004,0.0586834405708776
9.849452,6.244279515282315,0.0581520143151412
9.854043999999998,6.252954629986657,0.0576617279741917
9.858636,6.267637274947616,0.0571247481905574
9.863224,6.287305831003398,0.056561055799831
9.867808,6.306730017630886,0.0560169703713397
9.872388,6.331140115353196,0.0554434380417932
9.87698,6.35350697475192,0.0548878330903259
9.881564,6.374730030274702,0.0543518737352332
9.886152,6.393132597740398,0.0538231468698439
9.89074,6.408059612129647,0.0532926725837028
9.895336,6.418900149871722,0.0527938904916874
9.899919999999998,6.42295590762368,0.0523274088743122
9.904516,6.4258678614996985,0.0518751738071471
9.909095999999998,6.421095600937951,0.0514529225924522
9.913692,6.414035732624328,0.0510589747249696
9.918271999999998,6.40481044127297,0.0506841740379179
9.922871999999998,6.387656566055555,0.0503510501273381
9.92746,6.364739530009816,0.0500387385258453
9.93206,6.334915529259813,0.0497611187765514
9.936644,6.305502224100876,0.0495077207204609
9.941236,6.275966734227794,0.0492591250934157
9.945823999999998,6.246186874926419,0.0490217308651197
