Time,Force,Position
11.303219999999998,3.8568373115745422,0.1681968149492684
11.307815999999995,3.868706525188477,0.1681492301677602
11.312391999999996,3.879666064723025,0.1679025870053965
11.31698,3.895811743332058,0.1673768935764173
11.321576,3.914733768549552,0.1666961144451643
11.326171999999998,3.933411424338755,0.1660560202770201
11.330775999999998,3.9609612398902905,0.1651858980653921
11.335371999999998,3.9909649893564794,0.1642724044398714
11.339975999999998,4.02534372634676,0.163234566735654
11.344556,4.058456474746957,0.1622790354646903
11.349147999999998,4.097088014547187,0.1611849729478179
11.353736,4.138173488262068,0.1600560551424752
11.358336,4.181180015586391,0.1588672730038552
11.362916,4.224430912339005,0.1576416338295753
11.367512,4.263717517158592,0.1565760177507799
11.372095999999996,4.305946794749413,0.1554046164246879
11.376688,4.348464583217153,0.1542820570319978
11.381275999999998,4.390860186970747,0.1531930549087524
11.385871999999996,4.429780237647896,0.1521797551380044
11.390447999999996,4.469844092200985,0.1511502799137953
11.395032,4.50745401283942,0.150193142705066
11.399623999999998,4.545186118192003,0.1492373745358196
11.404212,4.573435140211522,0.1485433941374845
11.408799999999998,4.600129662764038,0.1478881240589821
11.413375999999998,4.625924750868907,0.1472672785310991
11.417968,4.649676600650188,0.1467149710514229
11.422547999999995,4.6676652896031445,0.1463236445620328
11.42714,4.689618270489131,0.1458340978789048
11.56948,4.609710577759377,0.145492752134811
11.574068,4.608067795395116,0.1453842813989454
11.578652,4.60630282831671,0.145286613630799
11.583259999999996,4.6086684793341055,0.1451326461746587
11.587844,4.609523772333125,0.1450544828516923
11.592444,4.613321738103379,0.1448992661807991
11.597039999999998,4.619407311625512,0.144659949668061
11.601628,4.632644219280199,0.1442120844241995
11.60622,4.643715703897155,0.1438415307668009
11.610808,4.659284360752348,0.143378000266004
11.615404,4.673298518140539,0.1429259765440297
11.619991999999998,4.68923372913817,0.142426730595794
11.62458,4.70745654788768,0.1418418434140937
11.629167999999998,4.722736693865954,0.141333205782488
11.633772,4.736750851254144,0.1408764105658086
11.638363999999996,4.751009378070624,0.1404034440522991
11.64296,4.766411708763044,0.13989222457581
11.647552,4.780259539988461,0.1393980397975182
11.652148,4.79320793676623,0.1389247038344005
11.656736,4.803335845486909,0.1385197096733319
11.661328,4.81256431975994,0.1381384757615448
11.665915999999998,4.821548424604679,0.137779803145166
11.670512,4.83551844054424,0.1372954731075283
11.6751,4.8449912842455625,0.1368956883102746
11.679695999999998,4.851765824603942,0.1365466174516825
11.684284,4.862015918038766,0.1361454084696517
11.68888,4.876108118692474,0.1356614943856548
11.693467999999998,4.890977569079682,0.1351847871917107
11.698047999999998,4.905969204181039,0.1347015177733482
11.70264,4.926068935091362,0.1341042474453538
11.707228,4.951687457401716,0.1334142724276291
11.711819999999998,4.979471402749804,0.1326760153248373
11.716408,5.010075836154982,0.1318947287251247
11.720995999999998,5.044888930921481,0.1310084710438627
11.725608,5.080068579830414,0.1300876876055289
11.730195999999998,5.109729437339316,0.1292607109509492
11.734808,5.138368675686423,0.1284626389388761
11.739395999999996,5.168029533195325,0.127646394518257
11.743995999999996,5.199489259599523,0.1268099017843848
11.748592,5.232092789879658,0.1259452138297549
11.75318,5.2609763976550585,0.1251476999592049
11.757784,5.291003809306397,0.1243203912619831
11.762371999999996,5.318332917614792,0.1235441455748291
11.766975999999998,5.349626317856216,0.1226875012209794
11.771564,5.382063521973578,0.1217972081658886
11.776171999999995,5.412824041909791,0.1209350316619508
11.780747999999996,5.439864639341266,0.1201421186310362
11.785347999999995,5.4593432070491215,0.1194819386302016
11.78994,5.474857482823949,0.1188990216451929
11.79454,5.480522121123279,0.1185131384096318
11.799123999999996,5.481445217756077,0.1182107817419762
11.803716,5.477382403294053,0.1180079433251371
11.808296,5.468578047165499,0.1178843173326266
11.812892,5.455687214389771,0.1178457286109033
11.817492,5.445739054385278,0.1177514161623107
11.822088,5.444252358552052,0.117523110418432
11.826679999999998,5.443132216861264,0.1172670176509191
11.831272,5.438947217685095,0.1170733201641454
11.835859999999998,5.4311644807183335,0.1169255459977704
11.840455999999998,5.418640202085042,0.1168535664458133
11.845044,5.409180780937132,0.1167182302165197
11.84964,5.39804467560807,0.1165957388588045
11.854231999999998,5.386664200850719,0.116491179098987
11.858824,5.3736070419122175,0.1163983488836971
11.863416,5.3586288293642745,0.1163367213532617
11.868003999999996,5.342751182368684,0.1162849818418032
11.872596,5.328794588982533,0.1162008208894854
11.877188,5.320478971710561,0.1160320711332105
11.881768,5.315350396638116,0.1157925021795472
11.886376,5.3141861134987,0.1154789031837312
11.890955999999996,5.313144015073428,0.1151550934262922
11.895563999999998,5.316188393295332,0.1147495098261735
11.900148,5.32217544428847,0.1142916764938464
11.904731999999996,5.3323711566429255,0.113744027843418
11.909335999999998,5.341423065121444,0.1132308894547706
11.913931999999996,5.346877235809371,0.112767959329143
11.918528,5.352087037069008,0.1123243588525836
11.923111999999998,5.360361695814024,0.1118221536261667
11.927707999999996,5.373377896225572,0.1112531429440759
11.932296,5.391912888037151,0.1106120320166022
11.936892,5.40738302236335,0.1100297159851475
11.94148,5.421709352813609,0.1094736645270536
11.946059999999996,5.438323291015748,0.1088657801405112
11.950652,5.454692859789594,0.1082784217811886
11.955244,5.476048339658263,0.1076094115350998
11.959828,5.497770373669368,0.1069169826568997
11.964411999999998,5.519492407680475,0.1062306139320106
11.969,5.539782126938722,0.1055430203814252
11.973584,5.563014518968204,0.104818365291496
11.978159999999995,5.583304238226451,0.1041355140263634
11.982759999999995,5.605515011094141,0.1034278615533238
11.987343999999998,5.624783111190595,0.1027694066686023
11.991935999999995,5.642007972963462,0.1021481434710339
11.996528,5.6589884653080365,0.1015524201818187
12.001115999999998,5.674170088757315,0.1009755600869038
12.005708,5.683466366664125,0.1004822313374112
12.010291999999998,5.693662079018583,0.0999822601351801
12.014867999999998,5.704879410534834,0.0994700326915014
12.019467999999998,5.711233015670409,0.0990271526464598
12.024052,5.7150105021771855,0.0986020326054113
12.028632,5.725450583959935,0.0980984022028445
12.033236,5.742797630446948,0.0975025045095279
12.037828,5.753359896943842,0.0969938843433015
12.042432,5.761101675383648,0.0965152175235461
12.047019999999998,5.765900781052218,0.0960804923996295
12.051612,5.770333332578352,0.0956718315043979
12.0562,5.772067580761542,0.0952858353631266
12.060795999999998,5.770614786745205,0.0949542795342945
12.06538,5.765319885509986,0.0946698237903062
12.069976,5.766154699245528,0.0942925527813885
12.07456,5.765190644085775,0.0939300834350006
12.079156,5.764104404211876,0.0935749372065646
12.083752,5.763384718480412,0.0931942422743071
12.088343999999998,5.7589451102442135,0.0928502261742234
12.092928,5.756548740331603,0.092475967336542
12.097523999999998,5.760937150409107,0.0920185727052054
12.102112,5.76569211462905,0.0915392470329519
12.106695999999998,5.767626590791902,0.0910901406413758
12.11128,5.773403174173638,0.0905986833597342
12.115871999999998,5.780079192003022,0.0901009240732013
12.120456,5.7762505073375525,0.0897156239811915
12.125032,5.763838173786668,0.0894210665668867
12.129632,5.759887304407052,0.0890442175562664
12.134219999999996,5.761821780569903,0.0885975691302181
12.138795999999996,5.761957387837461,0.0881626915489871
12.143392,5.760171941495577,0.0877472930287655
12.147975999999998,5.7600631793348445,0.087326662012674
12.152564,5.765595393288289,0.0868532839046989
12.157156,5.768839999489856,0.0864220440756937
12.161744,5.768120313758392,0.0860418357436787
12.16634,5.769321681636371,0.0856421947277842
12.170916,5.77305502669452,0.0851835057110673
12.175503999999998,5.777687806200316,0.0847195148187584
12.180084,5.780521716810817,0.0842631175680564
12.184684,5.781434573811877,0.0838271257269984
12.189271999999995,5.783246865260585,0.0833899050683353
12.193868,5.781994299223912,0.0829929221390962
12.19846,5.780497363758948,0.0826109378755022
12.203055999999998,5.774258886627453,0.0822712900164352
12.20766,5.769941463105398,0.0819141279657788
12.212251999999998,5.774574242611196,0.0814529954404303
12.21684,5.78484799823117,0.0809443170262827
12.221423999999995,5.790502396898761,0.0804730989086502
12.226003999999998,5.79423574195691,0.0800240454737729
12.230592,5.80156682480565,0.0795567496397552
12.235175999999996,5.809020092368535,0.0790790846148969
12.23976,5.818638782969154,0.0785716765034907
12.244355999999998,5.825803539655121,0.0780668485621634
12.248931999999998,5.840119630473643,0.0774786703080247
12.253516,5.85623459018746,0.0768835106863911
12.258107999999998,5.870428496291836,0.0763069777888126
12.262696,5.883112044377834,0.0757763920847314
12.267303999999998,5.897350091930839,0.0752561608129104
12.271892,5.920949038102757,0.0746770806527341
12.2765,5.946591222598263,0.0740784258954068
12.281083999999998,5.967614050141383,0.0735105242572064
12.285676,5.992356800189243,0.0729219790547645
12.290272,6.018487723541331,0.0723013948539691
12.294868,6.044863016321711,0.0716610023143777
12.299464,6.067518386597355,0.0710459413710422
12.304044,6.087231084101762,0.070463395903482
12.308635999999998,6.105922162444377,0.0698970141252523
12.31322,6.123469436911052,0.0693472847628311
12.317816,6.1371746041588455,0.0688255944736079
12.322404,6.149203087225488,0.0683065020589154
12.326992,6.167239100548746,0.0677364645330843
12.331572,6.184131309996065,0.0671892670043873
12.336163999999998,6.19693704279621,0.0666810798780426
12.340768,6.205001233929824,0.0662060101957264
12.345359999999998,6.211144371453997,0.0657444529967543
12.349959999999998,6.220107997035259,0.0652697629383012
12.354552,6.229193807330667,0.0647889217956711
12.359139999999998,6.235947868425569,0.0642962959660284
12.363732,6.234362650063348,0.0638425399330518
12.368315999999998,6.230489823949249,0.0634219015871102
12.372911999999998,6.228415866730447,0.0629958575486667
12.377496,6.224787410044637,0.0625617700968181
12.382072,6.221814018378186,0.0621405394821712
12.386667999999998,6.225381037273562,0.0616927405103618
12.391256,6.231768544226027,0.061232552381778
12.395844,6.2370122473025535,0.0607883311294144
12.400432,6.238536027874341,0.0603576445807489
12.405015999999998,6.245167904255096,0.0598851804062634
12.409611999999996,6.250900346188204,0.0594101957408055
12.414187999999998,6.258553841730753,0.0589278608975253
12.418776,6.260321991730831,0.0584852163197796
12.42338,6.257470784778525,0.0580553386607583
12.42796,6.262303792263986,0.0575871300291505
12.432552,6.268036234197093,0.0571180624832043
12.437139999999998,6.275934099167934,0.0566270284437806
12.441736,6.281011476081685,0.0561483545586202
12.446324,6.284167799385996,0.0556781285902484
12.450924,6.286058134100221,0.0552282991208446
12.455512,6.289747337709741,0.0547744583512941
12.460112,6.293558726033408,0.0543128196194564
12.464691999999998,6.294671811014131,0.0538528071149184
12.469288,6.292720038509472,0.0534148134377687
12.473876,6.285127289890635,0.0529934164676062
12.478471999999998,6.269073077100533,0.0525989644564334
12.48306,6.2500761915391925,0.0522192246160022
12.487656,6.231201490692,0.0518308115183048
12.492243999999998,6.215269462616041,0.051424317351586
12.496828,6.193329904283467,0.0510547431583967
12.501415999999995,6.176786952636782,0.050680563984968
12.505999999999998,6.15423647073348,0.0503419293161161
12.510595999999998,6.129520565792445,0.0500215367739236
12.515184,6.106481345032562,0.0497039711272533
12.519775999999998,6.07269305234953,0.0494376326606218
12.524364,6.03469609830518,0.0492055010486272
12.52896,5.991713233166007,0.0489996916956175
12.533543999999996,5.944888260807952,0.048805401703667
12.538132,5.8998621573451935,0.048608071247303
12.542743999999995,5.855735488330081,0.0484076795465584
