Time,Force,Position
2.903212,4.493394518747834,0.1572979929250598
2.9077959999999994,4.561235952805665,0.1567720538893237
2.9123839999999994,4.620928095754297,0.1561930512965504
2.916967999999999,4.668995394517286,0.1556284439094667
2.921555999999999,4.709035586885223,0.1549886839157102
2.9261479999999995,4.742358802896822,0.1542846230877934
2.930736,4.772362552363011,0.1535233439226338
2.935324,4.795659565104599,0.1528953797703885
2.939916,4.815114470627304,0.152368666065951
2.944504,4.829705649769332,0.1519721365127224
2.9490920000000003,4.84405245948307,0.1515983446105504
2.953688,4.861097572539751,0.1511710313785258
2.958276,4.876343816701136,0.1507825223798295
2.962876,4.896698156671488,0.1502477062473181
2.967468,4.916685942499404,0.1497516250595153
2.972071999999999,4.931810001946642,0.1493868703339373
2.976659999999999,4.950776168612767,0.1489199089888018
2.981256,4.966799662507656,0.1485326033621194
2.985835999999999,4.983966960278485,0.1481036193871581
2.990435999999999,4.996514901096926,0.1477817807889482
2.995023999999999,5.005587288838923,0.1475280025879431
2.999623999999999,5.014126796275709,0.1472627811237286
3.004208,5.021111804245491,0.1470152517319106
3.008804,5.030017865824714,0.1467231759747841
3.013411999999999,5.034793309308136,0.1464868051555171
3.0180039999999995,5.037892068610407,0.1462761823975339
3.022587999999999,5.0390697743032336,0.1461128089219768
3.027184,5.040614034138499,0.1459184295545066
3.031772,5.044856597316707,0.1456717339883899
3.036363999999999,5.054862321323242,0.1452892879630904
3.040951999999999,5.067810718101009,0.1448373818872062
3.045539999999999,5.076917007659894,0.1444769818611395
3.0501240000000003,5.088721600561724,0.144066686334184
3.054724,5.093374859330999,0.1438489806533822
3.059315999999999,5.097905933386126,0.1436426065452011
3.063903999999999,5.105912560517699,0.1433798925361308
3.068496,5.115718056544568,0.1430864452560682
3.073072,5.1254013678572905,0.1428003702953183
3.077667999999999,5.134962494455866,0.1425255058163796
3.0822640000000003,5.145667424930385,0.142211016684069
3.0868519999999986,5.151508629024225,0.1420093720455951
3.091448,5.156206029242127,0.141846942198286
3.096036,5.1600039950123815,0.1417022587131936
3.100624,5.161103657439692,0.1416081415907529
3.105219999999999,5.16837717628639,0.1414090564672189
3.109812,5.175895064561384,0.1411899446203106
3.114407999999999,5.179037965312282,0.1410416762024517
3.118995999999999,5.179482562720236,0.1409431244024301
3.1235919999999986,5.18245913730836,0.1407508311358642
3.128183999999999,5.180161289924742,0.1406455548277466
3.1327799999999986,5.176308943074121,0.140551894984901
3.137364,5.174744203975379,0.1403855918847561
3.141959999999999,5.169703911800191,0.1402722601505194
3.1465559999999986,5.168872280986323,0.1400438664079169
3.151147999999999,5.168529389029036,0.1397754280054934
3.155728,5.163811509547656,0.1395753918906737
3.1603239999999992,5.158194195618628,0.1393913410134915
3.164919999999998,5.155275185032543,0.1391603077167205
3.169511999999999,5.151334555284664,0.1389547896141477
3.1741,5.1472717408226405,0.1387589233843327
3.1786839999999987,5.148849902474797,0.1384461131415137
3.1832719999999988,5.151449683288746,0.138108150689649
3.187864,5.152006225779108,0.1378214353635759
3.192456,5.155505441040704,0.1374678693818608
3.1970399999999994,5.153730234330559,0.1371992813903293
3.2016279999999995,5.149911789296825,0.1369815502865629
3.2062159999999995,5.148669462891891,0.13672534505834
3.210808,5.148082201506313,0.1364727955704316
3.215396,5.142631213740057,0.1363306426141352
3.2199720000000003,5.143476267107338,0.1360791482690441
3.224572,5.140234843827445,0.1359307700743806
3.229163999999999,5.133928563062169,0.1358600524045757
3.23376,5.128643901458689,0.1357630856447867
3.238348,5.125280293464651,0.1356246452416971
3.242944,5.11807457825173,0.1355681097482864
3.247539999999999,5.115488219991193,0.1354238705293489
3.25212,5.1117580578547175,0.1353156283338729
3.256724,5.108394449860677,0.1351767788966535
3.261312,5.108872949085522,0.1349578072566162
3.265912,5.111272501919806,0.1346989815093514
3.2704880000000003,5.115715293077679,0.134393244197018
3.275088,5.120935333969054,0.1340854300639023
3.279679999999999,5.127054809308077,0.1337609752494284
3.284276,5.129332177428217,0.1335153896293993
3.288867999999999,5.1343078488913,0.1332262626189271
3.29346,5.140838019821387,0.132926768248619
3.2980599999999995,5.150433048236855,0.132555045991079
3.302652,5.1629707494235575,0.1321215560112767
3.307231999999999,5.175019711753678,0.1317239489014228
3.3118160000000003,5.184614740169145,0.1313561918305074
3.316407999999999,5.200095114127084,0.1308639880595791
3.3209919999999986,5.218518160856257,0.1303086932964542
3.325579999999998,5.239761695642519,0.1297049784929767
3.3301799999999986,5.256508058190542,0.1291758072623084
3.334771999999999,5.275175474348006,0.1286044632454212
3.339348,5.293965075219616,0.128031580427757
3.3439439999999987,5.311077991910077,0.1274740653269964
3.348528,5.322183378343921,0.127044958522943
3.353116,5.328791592539526,0.1266873008128647
3.3577199999999987,5.337198675630426,0.1263064751954933
3.3623079999999987,5.342785270664237,0.125979110758908
3.3669119999999992,5.345673562355105,0.1256924838248464
3.3715,5.349705657921912,0.1253729344229793
3.376099999999999,5.3575798607076015,0.124981979488192
3.3806839999999987,5.361489771560263,0.1246715818501021
3.3852719999999987,5.3688310940407415,0.1242667876088864
3.389864,5.37425136291178,0.1239000816742545
3.394452,5.377872762887522,0.1235609292666814
3.399052,5.383659585900997,0.1231661052646293
3.40364,5.385237747553153,0.1228693662504164
3.40824,5.379253879481689,0.1227032349318751
3.41282,5.373392196124369,0.1225274914370213
3.41742,5.36638670889111,0.1223833387948419
3.4220039999999994,5.359014667515415,0.122267185558405
3.426596,5.353441495035015,0.1221256600688139
3.431184,5.344026215335732,0.1220524698895301
3.4357799999999994,5.333833685902947,0.1219822900674357
3.440384,5.332591359498013,0.1217317897024049
3.4449759999999987,5.33249283696902,0.1214485330202069
3.4495559999999994,5.326875523039992,0.1212500377459662
3.454139999999999,5.319581524929815,0.1210661994593173
3.458727999999999,5.309589223476692,0.1209194497779129
3.463327999999999,5.2986974875759225,0.1207847099826812
3.467915999999999,5.285762513351567,0.12069346381119
3.472515999999999,5.279079438812118,0.1204595703239831
3.4771079999999994,5.268432072339638,0.1203029369373264
3.481691999999999,5.258806325028954,0.1201240252701218
3.486288,5.248281143270621,0.1199564750459181
3.490867999999999,5.240043569264167,0.1197267537179224
3.495452,5.235770287190741,0.1194207126282733
3.5000599999999995,5.239059034840936,0.1189903023247996
3.5046479999999995,5.23928292500575,0.1186236940884402
3.5092479999999995,5.238973934865354,0.1182414487768103
3.5138359999999995,5.242629236657985,0.1177843808613669
3.518424,5.246162353736469,0.117338935095484
3.523019999999999,5.248551666939016,0.1169200646979703
3.527616,5.258503009865184,0.1163830515789431
3.532207999999999,5.2644900608583205,0.1159256368785873
3.536804,5.273708295499613,0.1154545001396572
3.541407999999999,5.287790256521581,0.1149005676135975
3.545983999999999,5.3033045322964085,0.1143510467569331
3.550583999999999,5.324459784185414,0.1137152240995024
3.555171999999999,5.352033261922101,0.1130039147627471
3.559771999999999,5.377807870763492,0.1123122743814176
3.5643639999999994,5.400273252691211,0.1117077461970116
3.568959999999999,5.422616449904784,0.1111110756666182
3.5735519999999994,5.44291640879477,0.1105560442937587
3.578144,5.464115802132404,0.1099910010168774
3.582744,5.482372522698802,0.1094805979533055
3.5873359999999987,5.499974178245845,0.1089659731840778
3.5919359999999987,5.5167985840593845,0.1084609727309597
3.596535999999998,5.538731085681893,0.1078651098290142
3.6011239999999987,5.558253794838376,0.1073325138616994
3.60572,5.576999254261359,0.1068073344187136
3.610308,5.593290779769687,0.1062936959625412
3.614896,5.613790966639336,0.1056959520678096
3.619484,5.628283623252369,0.1052063043711262
3.624072,5.640733041541816,0.1047517524565171
3.628656,5.650606341202464,0.104319949582326
3.633236,5.660357456148968,0.1039019590512348
3.63782,5.671496744399702,0.1034422246284235
3.642408,5.682758217364582,0.1029794105736864
3.646996,5.686824214748278,0.1025898919632543
3.651591999999999,5.693832884903209,0.1021579107417585
3.656179999999999,5.7031291628100185,0.101678291591671
3.660784,5.7145908637545615,0.1011580968427481
3.665367999999999,5.727196368575043,0.1006129718749398
3.669951999999999,5.740945677271465,0.1000457864192119
3.674555999999999,5.756249485434889,0.0994804323682388
3.679148,5.770409489722376,0.0989407632791394
3.68374,5.78264844040042,0.0984294025309161
3.688328,5.790023664697789,0.0979843529093753
3.692928,5.798909247013532,0.097488345029321
3.697503999999999,5.808694263776926,0.0969892622091848
3.702095999999999,5.821299768597407,0.0964602885426384
3.706688,5.834804707865537,0.0959291991759287
3.711283999999999,5.849697820437897,0.095358453246978
3.715871999999999,5.870842832695164,0.094692387779072
3.720467999999999,5.889167356895341,0.094053515713989
3.725071999999999,5.902750339428989,0.0934669991956257
3.729664,5.914290083639049,0.092912652914615
3.734252,5.921865535916081,0.0924118076641778
3.738847999999999,5.931484226516699,0.0918809554697394
3.743428,5.941102917117318,0.0913534012869856
3.7480119999999992,5.9494556191278525,0.0908607818951762
3.7525999999999993,5.958463386157742,0.090381290291528
3.757183999999999,5.967348968473487,0.0899107821090097
3.76178,5.97599018136094,0.0894588516867038
3.766368,5.984875763676684,0.088993651463973
3.770959999999999,5.997481268497166,0.088498863012511
3.77554,6.008820784727563,0.088033411742803
3.780132,6.024779657910345,0.0875321488276684
3.784728,6.042293030560131,0.0870362871541912
3.789316,6.058662599333978,0.0865662302144334
3.793923999999999,6.073888364231885,0.0861198269889168
3.798511999999999,6.088214694682145,0.085683597430338
3.803104,6.102541025132405,0.0852494725240021
3.807699999999999,6.109838206164255,0.0849007316291142
3.812299999999999,6.127884459119254,0.0844473369543896
3.816899999999999,6.148218319826129,0.0839523110093141
3.821499999999999,6.170595418856592,0.0834341962562242
3.826091999999999,6.194360691191284,0.082880504715197
3.830672,6.218658843831188,0.0823479000335031
3.835272,6.242301931451735,0.081809498815739
3.83986,6.264268334891131,0.0812753084017975
3.844455999999999,6.284924608291816,0.0807259421568497
3.849039999999999,6.306846870282585,0.0801534017845624
3.853639999999999,6.328358436682289,0.0795601666577928
3.858224,6.35023655722443,0.0789504865213184
3.8628199999999993,6.3659408213471815,0.0783653745755107
3.867415999999999,6.382378193754807,0.0777368030206585
3.872,6.393541144190692,0.0771283038071143
3.8766,6.405192833483159,0.0764950044374462
3.881191999999999,6.414390588860974,0.0758599847010825
3.885779999999999,6.424976517543019,0.0751953491872305
3.890364,6.431842523720327,0.0745529576655042
3.894952,6.438708529897635,0.0739121672526017
3.899552,6.4508048165980565,0.0732110438862766
3.90414,6.447899228565384,0.0726051327744333
3.90874,6.447447574447365,0.0720044155902097
3.913331999999999,6.445319236148194,0.0714044040213329
3.917916,6.444989766744318,0.0707988003710384
3.9225119999999993,6.443350167301731,0.0701726469315483
3.927092,6.442610002306792,0.0695453124827559
3.931683999999999,6.441092587578349,0.0689122243536736
3.93628,6.437287565098029,0.0683117733859759
3.940859999999999,6.433604727331855,0.0677068958098789
3.945447999999999,6.428655900975596,0.0671251675654101
3.95004,6.418843348238659,0.066575432281742
3.954628,6.414671771615903,0.065995121704327
3.959223999999999,6.411277444726648,0.0654191094257434
3.963816,6.410703605894482,0.0648273142149225
3.96842,6.410007582348172,0.064245129950867
3.973008,6.410210993249507,0.0636591112006511
3.977611999999999,6.407471731379608,0.0630933813485737
3.982199999999999,6.410373445623887,0.062502406676943
3.986799999999999,6.412253540706373,0.0619203576053586
3.991384,6.4127454624846285,0.061370756662532
3.995984,6.4205550445582125,0.0607940911782168
4.000568,6.42770956161244,0.0602097577057555
4.00516,6.434619709238377,0.0596386809007664
4.009751999999999,6.438587184093078,0.0590865425696842
4.014348,6.443209723967136,0.0585469337001454
4.018943999999999,6.441946918298724,0.0580409580300586
4.023543999999999,6.442360796811461,0.0575380206200722
4.028136,6.446861151971373,0.0570036819514811
4.032719999999999,6.4470306610558215,0.0565141348079432
4.037312,6.448221789302062,0.0560166391570556
4.041896,6.449168548120011,0.0555274394124152
4.046484,6.449748752795523,0.0550620219277214
4.051076,6.448163534433302,0.0546181709438232
4.055667999999999,6.447355565804584,0.0541812510123429
4.060255999999999,6.446303227747574,0.0537594006592964
4.064855999999999,6.4441070858146245,0.0533503135337835
4.069443999999999,6.444242693082182,0.0529584612871543
4.074036,6.438615139521414,0.052591345219629
4.078624,6.432210336227146,0.0522168129900636
4.083212,6.421063991266346,0.0518571439138718
4.087816,6.411472145772553,0.0515102895788862
4.092404,6.394973335574495,0.0511977313690483
4.097016,6.3784745253764354,0.0508836381888689
4.101604,6.363652399359528,0.0505739404840884
4.106192,6.347564284752536,0.0502836727812758
4.110795999999999,6.336217711812072,0.0499758338938092
