Time,Force,Position
2.694531999999999,4.481498395351643,0.1564090698474326
2.699128,4.490581022725378,0.1563230994607251
2.703704,4.499663650099113,0.1562376662676445
2.708295999999999,4.510789515796435,0.1560875154538744
2.71288,4.525468977835721,0.1557883581449798
2.7174560000000003,4.536428517370268,0.1555839069988144
2.72204,4.546977361313751,0.1553484068250744
2.726628,4.553928467466643,0.1551961343095633
2.7312080000000005,4.556504586095441,0.1551416538162007
2.735804,4.557404020543089,0.155119717960594
2.740392,4.561734866618554,0.1549610648224996
2.74498,4.563733963493513,0.1548309732760638
2.749571999999999,4.571618405910942,0.15452485818173
2.7541720000000005,4.577826164147219,0.1542521774515441
2.7587759999999992,4.584033922383497,0.1539806624524753
2.763368,4.588320627010335,0.1537622384749983
2.7679600000000004,4.59236296220888,0.1535689034555732
2.77254,4.598081981588577,0.15334855390038
2.78172,4.6018799473588325,0.1531810900372966
2.78632,4.602901566520625,0.1531489510265503
2.7909120000000005,4.607398738758865,0.1530469822245042
2.804692,4.616236996704309,0.1529915021479088
2.8092919999999992,4.622943733428908,0.1528785893806638
2.8138880000000004,4.633370392658246,0.1526751451980008
2.818484,4.649027332410696,0.1522991443765267
2.823084,4.668892933524467,0.1517822083984572
2.827672,4.68810346961888,0.1512662652287289
2.832248,4.699141052418946,0.1510045133609753
2.836827999999999,4.710545189361448,0.150709522513029
2.841424,4.716552719618064,0.1505333692946694
2.846012,4.722926804017116,0.1503242901417195
2.8505959999999995,4.730811246434545,0.1500413491759679
2.8551839999999995,4.741105481317997,0.1496631037215936
2.859764,4.75086683589624,0.1492710884011576
2.864355999999999,4.757397006826326,0.14892300740584
2.868948,4.767480774098377,0.1484437472304923
2.873536,4.78393862576948,0.147766338229396
2.878128,4.796798739649992,0.1471596388545165
2.882719999999999,4.807204919615852,0.1465876775868407
2.887312,4.814502100647703,0.1460421744964052
2.8919040000000003,4.823964704717287,0.1454266004009413
2.8964920000000003,4.832527874339223,0.1448317683499559
2.901088,4.8381483711899245,0.1443170006579872
2.905676,4.842991618307122,0.143813877209858
2.910271999999999,4.847346126567739,0.143357980169826
2.914859999999999,4.852233515133566,0.1429214845478473
2.919459999999999,4.853811676785721,0.1425897954798348
2.92404,4.858821250065693,0.1421344740093536
2.92864,4.862320465327289,0.1417522523849536
2.933223999999999,4.86851798393183,0.1413137875979857
3.006656,4.712619566035047,0.1410894711433782
3.011248,4.705780404964562,0.1410009879736714
3.015839999999999,4.7003735586469375,0.1409113044957123
3.020427999999999,4.699053188976484,0.1407109488478865
3.025024,4.697610634591887,0.1405215246055656
3.0296199999999995,4.698622014121941,0.1403034742941439
3.034215999999999,4.707850488394973,0.1399250949350311
3.0388079999999995,4.719532896582656,0.1395203751038582
3.043403999999999,4.727906077856667,0.1392191734750275
3.047991999999999,4.748460645806683,0.1386690614593217
3.052591999999999,4.77093626736614,0.1380725268324627
3.057179999999999,4.80031885362986,0.1373084783701067
3.061788,4.828557636017641,0.1365925583165982
3.066376,4.860638525624306,0.13580577345275
3.070976,4.892719415230971,0.1350321727981683
3.0755599999999994,4.92606629342772,0.1342116817275307
3.080155999999999,4.965176332452793,0.133269391413965
3.0847479999999994,5.006451794515599,0.1322738180446102
3.08934,5.043230084340167,0.1313542422015745
3.093931999999999,5.076044082231706,0.1305366431711069
3.098528,5.110901318446831,0.1296647727601764
3.103116,5.140772643567135,0.128920021409298
3.1076999999999995,5.171010522829875,0.1281511760685972
3.1122879999999995,5.200226782930822,0.1274217114782191
3.1168879999999994,5.229931781888352,0.1266547572427107
3.121471999999999,5.258326650807168,0.1258771839245033
3.126071999999999,5.281569282468389,0.1251740672038591
3.1306639999999994,5.301336361053165,0.1245166850267454
3.1352519999999995,5.324412666551612,0.1237667448317498
3.139844,5.338250258145289,0.1231879995075233
3.144432,5.355030522510201,0.1225562391038689
3.1490279999999995,5.370422613570882,0.1219856414971174
3.153611999999999,5.384260205164559,0.1214227754234719
3.158199999999999,5.392334635929912,0.1209674170698109
3.162808,5.397832948066467,0.1205415883321817
3.1673919999999995,5.404108509936525,0.1201148518587527
3.171975999999999,5.404865280406551,0.1197707561035066
3.176572,5.402679378105341,0.1194820757318244
3.181168,5.405235017470661,0.1191149438212173
3.185772,5.408812275997774,0.1187262821619357
3.190351999999999,5.412511719239033,0.118329017862267
3.194951999999999,5.415678282175082,0.1179136405132812
3.199532,5.4188448451111295,0.1175006771782344
3.204127999999999,5.418291485542442,0.1171438594555595
3.208715999999999,5.416472137383668,0.1168262986870887
3.213315999999999,5.417473277281984,0.116466115610502
3.2179,5.419373851627949,0.1160945943634768
3.222491999999999,5.42638252178288,0.115622674165974
3.227084,5.432613942204309,0.1151550748227102
3.231676,5.439744797073387,0.11467644654411
3.236279999999999,5.4412346758282855,0.1142823856625866
3.240876,5.439126816792593,0.1139319263203207
3.2454719999999995,5.439717261099843,0.1135501517421186
3.250067999999999,5.443128193464182,0.1131268374816141
3.254655999999999,5.447194190847879,0.1127109228036442
3.2592479999999995,5.451382372945722,0.1122882723899232
3.2638359999999995,5.461988780891244,0.1117853841119829
3.268428,5.471817939103265,0.1112816749154658
3.273019999999999,5.477560620668112,0.1108563963158809
3.277595999999999,5.482526052499457,0.110432568867632
3.282192,5.491089222121393,0.109972415532827
3.2867680000000004,5.504393933409859,0.1094473774146872
3.291359999999999,5.51589977580303,0.1089440794088961
3.295947999999999,5.531369910129229,0.1083764140374242
3.3005359999999992,5.549660532512517,0.1077729703202288
3.3051440000000003,5.566030101286364,0.1072029681032054
3.3097320000000003,5.581378050898417,0.1066519731374417
3.314335999999999,5.591495719987357,0.1062035545475264
3.3189200000000003,5.6023906388098,0.1057572823783526
3.3235080000000004,5.612508307898739,0.1053119153334541
3.328099999999999,5.627489703368355,0.1047952532992786
3.33268,5.6425932835521175,0.1042665733082977
3.3372759999999992,5.655775810126439,0.1037686462892377
3.341864,5.668181086967256,0.1032735703584696
3.3464600000000004,5.684550655741103,0.1027230963088816
3.351044,5.701819658962599,0.1021695552495135
3.355644,5.710505013298681,0.1017269129542293
3.3602360000000004,5.726874582072528,0.1011888334331326
3.364832,5.74757499692184,0.1005683679177858
3.3694120000000005,5.770973715114096,0.0999270987606802
3.374004,5.789875261068112,0.0993329038222707
3.378608,5.805711949536748,0.0987933055796013
3.3832000000000004,5.825146375795977,0.0982268997557967
3.3877919999999992,5.839062010655171,0.0977151832015796
3.3923760000000005,5.851545330761507,0.0971980632303031
3.3969639999999988,5.863007031706048,0.0966969960129241
3.401551999999999,5.879210274317122,0.0961474865360258
3.406136,5.897701124680074,0.0955501976933557
3.410724,5.913127117557645,0.0949991104218901
3.415315999999999,5.927409306559277,0.0944697867066275
3.419896,5.940669876399116,0.0939607395677444
3.424491999999999,5.958916357333775,0.0933877671739773
3.429079999999999,5.975486154087286,0.0928203880995987
3.4336640000000003,5.993854819736092,0.0922434295655569
3.438276,6.00376202121363,0.0917524121290869
3.442864,6.010970919348225,0.0912836987863773
3.447452,6.02430953245358,0.0907243420762852
3.452048,6.027021258349935,0.0902881792823826
3.456636,6.029610799532144,0.0898637528334078
3.461231999999999,6.02835823349547,0.0894808713083721
3.465824,6.025184613849356,0.0891166168701797
3.4704239999999995,6.022133178917387,0.0887446506480713
3.4750119999999995,6.016261255928329,0.0884007185649247
3.4796119999999995,6.017584808520454,0.0880081266143371
3.4841999999999995,6.01944124141779,0.0876341365434724
3.4887999999999995,6.02231929347692,0.0872463726707904
3.4933879999999995,6.020577988583665,0.0868978649476387
3.4979759999999995,6.018714498976264,0.0865573757081104
3.502559999999999,6.020160236282533,0.0861612757054529
3.507156,6.024670831074185,0.0857251985757889
3.511756,6.029303610579981,0.08528387378334
3.516347999999999,6.026907240667368,0.0849264877546487
3.520944,6.026431924364197,0.084550011052304
3.525535999999999,6.021581620536933,0.0841923398993756
3.530123999999999,6.024659900575726,0.0837462104770886
3.534708,6.027738180614517,0.0832994747368118
3.539287999999999,6.029794841491516,0.0828672389780279
3.54388,6.039657901520427,0.0823558836006354
3.548463999999999,6.045023789311097,0.0818703503157231
3.5530600000000003,6.053576719301294,0.0813400009465522
3.5576480000000004,6.065072322062727,0.080778494180083
3.5622360000000004,6.07374743676707,0.0802377242525548
3.566827999999999,6.080745867290261,0.0796983311563307
3.571416,6.0804266375181255,0.0792055984012133
3.576004,6.0785529082789855,0.078707605567848
3.580596,6.076801363753991,0.0782025864235799
3.585184,6.071984961743615,0.0777307813666687
3.589772,6.068190178895033,0.0772477954067918
3.594368,6.064273211332307,0.0767741802222364
3.598951999999999,6.059456809321933,0.0763058817599744
3.6035559999999993,6.051942103968614,0.0758497336959741
3.608132,6.052233797767206,0.0753232435228842
3.612732,6.051381687689861,0.074815629692696
3.61732,6.05118464263187,0.0743157596619461
3.62192,6.046778936212559,0.0738712328339027
3.626503999999999,6.041351610631456,0.0734363488409961
3.6311,6.036945904212147,0.0729910537151955
3.635684,6.028820275288099,0.0725693147029043
3.640267999999999,6.020328092221616,0.0721663465608293
3.644876,6.010692105279192,0.0717820994150185
3.649467999999999,5.999012880013181,0.0714183837177718
3.654067999999999,5.992974630861349,0.0710189173090695
3.65866,5.98603694726187,0.0706200802027441
3.663248,5.984984609204861,0.0701703230005658
3.667843999999999,5.986508389776648,0.0697194183724633
3.672431999999999,5.987132735900788,0.0692718865127403
3.677024,5.992865177833895,0.0687700349359696
3.681612,5.998719804481149,0.0682639283360771
3.686204,6.005718235004341,0.0677444009885066
3.690795999999999,6.016558772746417,0.0672044722705602
3.695383999999999,6.028176560221995,0.0666682006025979
3.69998,6.036074425192835,0.066154902872245
3.704568,6.047936582096704,0.0656132271950697
3.709159999999999,6.063640846219456,0.065049089877236
3.713752,6.078567860608705,0.0644790268238291
3.71834,6.095415928607396,0.0638967540873084
3.722932,6.109854204140063,0.0633562767282282
3.72752,6.124048110244438,0.0628300203401588
3.732123999999999,6.144127361891282,0.062263786669186
3.736716,6.165350417414068,0.0616849183872316
3.741316,6.194379872088763,0.0610617228790558
3.745911999999999,6.218912154525219,0.0604527185957213
3.750512000000001,6.2481859786282055,0.0598227320630085
3.7551159999999992,6.272473891636371,0.0592320697200925
3.759692,6.2922646324062965,0.0586512610248851
3.764287999999999,6.311933188462076,0.0580779738177716
3.768875999999999,6.331723929232002,0.0575031599091263
3.773476000000001,6.346406574192961,0.056969235606602
3.778063999999999,6.352139016126068,0.0564938676967878
3.782664000000001,6.348144005297823,0.0560729642462104
3.787248,6.343249560021931,0.0556517305336858
3.7918439999999993,6.336434061136597,0.0552388296856607
3.796436,6.322955966975291,0.0548540407784347
3.8010319999999993,6.307801188632836,0.0544647481212118
3.805636,6.294445279185676,0.0540719095767764
3.810228,6.281211554452661,0.0536716699479442
3.814828,6.271409241347464,0.053227893964533
3.819419999999999,6.260829678508765,0.0527759963227623
3.824007999999999,6.243465335679948,0.0523557875769212
3.828595999999999,6.220992897042164,0.0519710335847546
3.833180000000001,6.186871952033585,0.0516401923999371
3.83778,6.152506637596714,0.0513194594165776
3.842368,6.1130332273508765,0.0510335968661577
