Time,Force,Position
5.061768000000001,2.345428326129152,0.164933362522483
5.06636,2.453829410306719,0.1630223234662864
5.07094,2.5600106903661866,0.1606969195774569
5.075532000000001,2.6538340179551367,0.1587951667841213
5.080112,2.735055023645278,0.1573377877043345
5.084692,2.803918076864901,0.1561527802604657
5.089283999999999,2.8649203498522477,0.1549492579772141
5.093871999999999,2.912587192655911,0.1541893227878311
5.098471999999999,2.9499834627612715,0.1535950161293373
5.1030560000000005,2.9837717554443026,0.1527956306978519
5.107647999999999,3.009743409343683,0.1520809651849882
5.112235999999999,3.026754620583475,0.1515243564113325
5.116820000000001,3.032107085820734,0.1512161632621138
5.121432,3.028376923684258,0.1510522361386378
5.1260200000000005,3.020472002003351,0.1508971913621241
5.1306080000000005,3.009458081388436,0.1507906980216149
5.135192,3.0026969635834684,0.1505726841164153
5.139784000000001,3.006362505007839,0.1500576192004104
5.144375999999999,3.015224425138433,0.1495104373846039
5.148963999999999,3.0313259622988378,0.1488361364312989
5.153563999999999,3.051480074289528,0.1481837597102656
5.158151999999999,3.0680025466727368,0.1478475379573055
5.162751999999999,3.081626487733339,0.1477151008830025
5.167336000000001,3.1027344152520437,0.1474294958736229
5.1719360000000005,3.1304268947812037,0.1470190745694478
5.176527999999999,3.1669134908071777,0.1464758588093774
5.18112,3.2079414005200197,0.1459012313539016
5.185703999999999,3.25207830916687,0.1452730421808108
5.190296,3.3020225200906723,0.1445365702457328
5.194884,3.3531546763390425,0.1438435157105436
5.199479999999999,3.405596962626125,0.1431580650498246
5.204064000000001,3.459593748380213,0.1424478575551094
5.208652000000001,3.519886575267835,0.1415753002423494
5.213240000000001,3.580057217441312,0.1407300838741416
5.217836,3.637529556271845,0.139980700312709
5.222424,3.692836472064645,0.1393255975877274
5.227016000000001,3.751574799485263,0.1385512968585235
5.231608,3.802096032162905,0.138035720489815
5.236196,3.846321223707012,0.1376930457662274
5.240788,3.887315231602965,0.1374124798086689
5.245376,3.9259774902984095,0.1371548886524467
5.249964,3.965739411421167,0.136769964127706
5.254572,4.006356625542943,0.1362824931487664
5.25916,4.039367668492472,0.1359351065309479
5.26376,4.067593028326842,0.1356535609193059
5.268348,4.086002652502603,0.1355131339745234
5.27294,4.100359701848079,0.1353518973301007
5.277536,4.114139729439716,0.135099421627222
5.282132000000001,4.124522247220425,0.1348337250140646
5.28674,4.130607820742558,0.1345666182523425
5.29134,4.136238557224998,0.1341965100539892
5.2959320000000005,4.143091140848894,0.1337025211339339
5.300523999999999,4.143847911318919,0.133247547134848
5.3051200000000005,4.144027660035104,0.1327050932309606
5.309696000000001,4.143508202283305,0.1320859124397061
5.314292,4.144210591672963,0.1313415528493726
5.31888,4.136040821300289,0.1307629041359427
5.32348,4.127460355336548,0.1301487417264921
5.328060000000001,4.118713563210034,0.1294733376795455
5.332652,4.10661340272122,0.1288406328647013
5.337244,4.0921814930319,0.1282203524840945
5.341836000000001,4.075051279999634,0.1276515082527266
5.34642,4.060086490005103,0.1270086036760982
5.351016,4.05129555642996,0.1262553615822771
5.355604,4.044547861178406,0.1254423899179607
5.360196,4.047938314279269,0.1244207191248952
5.364784,4.050595659095257,0.1234717878369184
5.369376000000001,4.054685318664104,0.1225339301531693
5.37396,4.058819119681579,0.1216702808627946
5.378548,4.067494234385921,0.1207967322413204
5.383144,4.080177782471921,0.1199084055848298
5.38772,4.088286115054163,0.1191812794936927
5.392308,4.0991368924279765,0.118480261910397
5.396903999999999,4.1090101920886255,0.1178781880564204
5.401491999999999,4.121625936540847,0.1173065492237483
5.406088,4.133142018565756,0.1168431799147563
5.4106760000000005,4.148666533972321,0.1163501913133177
5.415272,4.16832166747469,0.1158226890722374
5.419867999999999,4.191618680216278,0.1153091567736019
5.424464,4.220722995234818,0.1147448174080779
5.429067999999999,4.258943839443983,0.1140397832155181
5.43366,4.303338540072537,0.1132595138015123
5.43826,4.345978513254423,0.1125874429811831
5.442852,4.388618486436308,0.1119340569056096
5.44744,4.429748101599818,0.1113570404253845
5.452028,4.464625817078421,0.110952345506939
5.456632000000001,4.5051445086712025,0.1104595162388591
5.461216,4.548239318892782,0.1099587160164991
5.465816,4.593499552152093,0.1094112419681505
5.4704,4.641413947305721,0.1087876549031855
5.474996000000001,4.683565181631025,0.1082741867401921
5.479583999999999,4.730702327051151,0.1076644303441209
5.484168,4.778738906918924,0.1070547664931111
5.488759999999999,4.829718159557931,0.1063981459497743
5.493352,4.877099674406348,0.1057901328117642
5.49794,4.930733088939672,0.1050612331021849
5.502532,4.9866541112248735,0.1042835408529376
5.5071200000000005,5.039099580433629,0.1035443940761487
5.511716,5.094077026822554,0.1027477509137588
5.516299999999999,5.148765962334561,0.101933857916941
5.520887999999999,5.196914487284741,0.101227363086102
5.5254840000000005,5.24170964387262,0.1005554740070219
5.530060000000001,5.288015158478877,0.0998349641719748
5.534656,5.332766173618129,0.0991257634181292
5.53924,5.381848034832847,0.09833868933193
5.54382,5.435138557408883,0.0974814217546119
5.548428,5.484953526908474,0.0966676038508657
5.55302,5.528716824702822,0.0959035517123001
5.557608,5.56798295025893,0.095185028989083
5.562204,5.5986654269296245,0.0945784346346305
5.566788000000001,5.630980446332841,0.0939128709661205
5.571392,5.662762585430847,0.0932412483486525
5.575988000000001,5.692335160042492,0.0925647874973614
5.580591999999999,5.715733878234749,0.0919316798337817
5.585179999999999,5.742319638626531,0.0912460561548969
5.5897760000000005,5.760810488989483,0.0906327765569655
5.594364000000001,5.775947970990135,0.090035966053993
5.598967999999999,5.797215167961547,0.0893567405462962
5.603555999999999,5.810143085475838,0.0887571453672188
5.608140000000001,5.819473265199536,0.0881877719808027
5.612736,5.827371130170379,0.0876058487617218
5.6173280000000005,5.831671257350627,0.0870485173157146
5.6219280000000005,5.833395265902079,0.0865037205663414
5.626524,5.834464209434174,0.0859507497121413
5.631107999999999,5.830791611299738,0.0854467662102029
5.635695999999999,5.820045722298264,0.0849811236147767
5.640276,5.807867518543932,0.0845023420266004
5.644868000000001,5.797610368399043,0.0840027630258206
5.649444000000001,5.790418075739533,0.08346192349376
5.654032000000001,5.791032182231934,0.0828382946204928
5.658616,5.791524104010191,0.0822238332733136
5.663195999999999,5.789439907159647,0.0816193149902519
5.667788,5.787600079737396,0.0810001193956546
5.672371999999999,5.791523413143469,0.0803266582993312
5.676952,5.7926262584924535,0.0796779189547246
5.681559999999999,5.796305222470236,0.0790206594017507
5.686147999999999,5.799495447591434,0.0783937249431807
5.690735999999999,5.795778708008372,0.0778420658369775
5.695328,5.797702944539486,0.0772465281530382
5.699916,5.800404430804103,0.0766544056815547
5.704516,5.804660416535723,0.0760680772126273
5.709096000000001,5.81353575921973,0.07545261033493
5.713692,5.824987220532533,0.0748348309092893
5.71828,5.835050508541104,0.0742527308155637
5.72288,5.845891046283181,0.073674504786733
5.727464,5.862905440444645,0.0730763474270815
5.732063999999999,5.880086160768884,0.0725214100700276
5.736648000000001,5.898044130826625,0.0719735626086176
5.74124,5.916657165903722,0.0714427434027951
5.745832,5.934781462124237,0.0709518639774494
5.750424000000001,5.955481876973549,0.0704627414546703
5.755016,5.979169106042724,0.0700011313120152
5.759608,6.002123226827025,0.0695859901027047
5.764196,6.026631847078331,0.0691863049210013
5.768788000000001,6.055637639567877,0.0687755725360479
5.773376000000001,6.089140604295661,0.0683561352696525
5.777956,6.1255862417946805,0.0679162403787966
5.782552000000001,6.165751801798436,0.067460156905961
5.787144,6.204773557926252,0.0670268309808378
5.791727999999999,6.246493617397014,0.0665908433274451
5.796315999999999,6.2914007190673,0.0661257757185948
5.800908,6.3370850704710895,0.0656733305622313
5.805496,6.380848368265436,0.0652371874420703
5.810084,6.428453773278668,0.0647814726255455
5.814696,6.477080797453692,0.0643203335364177
5.819279999999999,6.521987899123978,0.0638797610119393
5.823867999999999,6.569182608546143,0.063411367732215
5.82846,6.61829837157775,0.0629391825113827
5.833048,6.666514700161708,0.062475005871089
5.837643999999999,6.706513934002691,0.0620367728000363
5.842236,6.74381486450073,0.0616094318076733
5.846828,6.7795612955317655,0.061177257499299
5.851407999999999,6.818616953476472,0.0607111299311036
5.856007999999999,6.854319243058878,0.0602456139036282
5.8605920000000005,6.885768729831336,0.059781000656556
5.865195999999999,6.910022741022613,0.0593326330367892
5.869788,6.9363199905374735,0.0588749758077097
5.874383999999999,6.958897317547598,0.0584309579822272
5.878976,6.979797960376573,0.0579848449228795
5.883568,6.994158192643724,0.0575611655786429
5.888168,7.004309763549553,0.0571764019504151
5.892764,7.007021489445909,0.056813587137117
5.897352,7.01292025754179,0.0564246134794755
5.901944,7.014321853399433,0.0560423706432389
5.906532,7.015723449257076,0.0556615982728507
5.911116,7.020189902600099,0.0552605147272576
5.915704,7.020936433438385,0.0548700212718038
5.920296,7.017063607324287,0.0544909572652516
5.924887999999999,7.008449239543657,0.0541269442377005
5.92948,7.005720217305497,0.0537317452874673
5.9340720000000005,6.999026903134308,0.0533562147266575
5.9386600000000005,6.988613666458384,0.0529888505036303
5.9432480000000005,6.972192899525842,0.0526562356836257
5.947828,6.951563471231982,0.052354983111624
5.952404,6.926603196862654,0.0520907441272127
5.957012000000001,6.904341225836272,0.051822701561789
5.961604,6.87451722508627,0.0515763841699473
5.966203999999999,6.844693224336267,0.0513279321636581
5.9708000000000006,6.8158908427480585,0.0510708967345882
5.975388000000001,6.7910527530928775,0.0507911130033892
5.979991999999999,6.763271990666462,0.0505233284149704
5.9845880000000005,6.741132204354225,0.0502384356548612
5.989191999999999,6.710042215014138,0.0499989875501732
5.993772,6.6797294754075525,0.0497634106353387
5.9983640000000005,6.645696813296231,0.0495333326622489
6.002943999999999,6.605534436214148,0.0493410403220702
6.0075400000000005,6.562307201646685,0.049165797270198
6.012128000000001,6.516792359327343,0.0490146915835562
6.0167280000000005,6.474098005065089,0.0488543139932544
6.021319999999999,6.4289938583368125,0.0487247329963471
6.025912,6.387854003541564,0.048573182869484
6.0305040000000005,6.347369213765671,0.0484328997388049
6.035095999999999,6.306229358970423,0.0482772247015012
