Time,Force,Position
10.50134,2.022826954037333,0.167374567609227
10.505932,2.1206555320862663,0.1666082240506086
10.510528,2.21402083971385,0.1658809904312073
10.515111999999998,2.303900354633249,0.1648004126712617
10.519708,2.390416261558609,0.1635714323776548
10.524296,2.468338279966818,0.1625013315164864
10.528892,2.5411419629343195,0.1614317052514752
10.53348,2.60253126932758,0.1607909529367091
10.538068,2.650707330251304,0.1605819013615946
10.542648,2.693109990714964,0.1603562383057412
10.547228,2.728795674822285,0.1600109259360296
10.55182,2.757275643716685,0.1596455507703675
10.556416,2.777161724093933,0.1593546431406755
10.561004,2.78898679625924,0.1591915667458815
10.565596,2.7983918363267835,0.1588822090461014
10.570184,2.797326075716362,0.1588326654707983
10.574787999999998,2.794661674190308,0.1587091258746686
10.57938,2.791175881482123,0.1584954280294558
10.583976,2.787890316753602,0.1581348263001867
10.588568,2.788280533081189,0.1575030142967965
10.59316,2.7896482271219423,0.1567087863226403
10.597756,2.791093964428212,0.1558132959861165
10.602332,2.790574506676413,0.154905497618311
10.606932,2.788378364743465,0.1540463986637227
10.61152,2.77849800837275,0.1535271355710377
10.61612,2.7757689861345898,0.1526471663255216
10.620708,2.7708303994100705,0.1517849892796593
10.625308,2.766791247133197,0.1508835341092711
10.629904,2.7665942020752063,0.1498060937648219
10.634496,2.763943223102564,0.1487927437946384
10.639088,2.7610478747016303,0.147819562823448
10.643684,2.757130907138903,0.1468958845363629
10.648284,2.757711111814415,0.1458039906947789
10.65288,2.759479261814494,0.1447478224380512
10.657484,2.752175024072577,0.1441287678645297
10.66208,2.75386513080714,0.1431848873535121
10.666668,2.7551886833992647,0.1423022496493369
10.67126,2.759621234925398,0.1413662134613278
10.675847999999998,2.76716278538554,0.1403964965850629
10.680444,2.770495674484363,0.1396432784172987
10.685032,2.775627432478481,0.1388400005836358
10.689623999999998,2.773485671625899,0.1383989652118398
10.694216,2.771876791078528,0.1379846738153277
10.698795999999998,2.770922975550512,0.1375782425801874
10.703392,2.777653374460264,0.1368564587652262
10.707971999999998,2.775555755056309,0.1365168191628403
10.712564,2.776034254281153,0.1361092143826243
10.71716,2.7793332415630863,0.1355997699122638
10.721747999999998,2.7835316632926674,0.13507042017674
10.726344,2.7883851500416053,0.1345507770147828
10.730932,2.790418148733453,0.1341282587056228
10.73552,2.7922067779970097,0.1337409895208851
10.740116,2.7938732225464213,0.1333761098981409
10.744708,2.7948846020764764,0.1330029637896038
10.749312,2.804479630491944,0.1323021837188384
10.753892,2.8120314205838257,0.1317132886620324
10.758492,2.821259894856857,0.1310964916879334
10.763075999999998,2.830732738558179,0.1304508501240424
10.767672,2.837262909488266,0.1299255523793828
10.772256,2.848534622084884,0.1292370978301802
10.776848,2.858051607234835,0.1287069011193692
10.781427999999998,2.8711663301753765,0.1280639332324287
10.786012,2.8862021067253605,0.1273628610170165
10.7906,2.9029145674564942,0.1266383482338402
10.795192,2.916195616559809,0.1261035611014309
10.799776,2.9374493909778105,0.1253725479811287
10.804364,2.960379849576961,0.1246320477843101
10.808948,2.9829437540336747,0.1239595374301335
10.81354,3.0062849082238907,0.1233040911179944
10.818132,3.032202181042905,0.1226126340933863
10.82272,3.066092179176603,0.1217591369161707
10.827308,3.1044793495485417,0.1208140427448997
10.831884,3.143643769653982,0.1198820108467754
10.836468,3.184118319798136,0.118982944818888
10.841064,3.222183077476265,0.1182207284904107
10.845652,3.2627017690690465,0.1174616192195606
10.85024,3.30232102621418,0.1167345989089377
10.854831999999998,3.34427203255982,0.1160198531627069
10.85942,3.389698591981906,0.1152615944668846
10.86402,3.437945639461081,0.1144727056046609
10.8686,3.489135359711491,0.1136158675633264
10.873192,3.5458438713619334,0.1126679454713221
10.87778,3.604761947498736,0.1117610646906316
10.882376,3.665478892530836,0.1108507767109939
10.886964,3.731059563943612,0.1098415536565388
10.891564,3.792265247832294,0.1089194301029931
10.896156,3.853226562292684,0.1080511503169887
10.900752,3.9122668231436335,0.1072274551217056
10.905344,3.97028546483279,0.1064538631594945
10.909935999999998,4.02650523762665,0.1057239141322071
10.914524,4.082192130115299,0.1050147880183419
10.91912,4.138001207318094,0.1043218846620782
10.923704,4.1938102845208896,0.103641769283707
10.928296,4.250885350313769,0.1029276365435788
10.932884,4.312535631610406,0.1020945304980729
10.937468,4.371076913973034,0.1012866455796247
10.942056,4.431006369639892,0.1004385950722684
10.946644,4.488726260820389,0.0995990317538567
10.951235999999998,4.544358772228671,0.0987572781199076
10.955824,4.594472492236921,0.0980061327278105
10.960416,4.640699963577659,0.0972642730979285
10.964992,4.681897382374949,0.0965683064517875
10.96958,4.719330737218872,0.0958707826225283
10.974187999999998,4.752633473966993,0.0951982668502454
10.978776,4.780783973457519,0.0945709935909571
10.983384,4.81044483096642,0.0938897101777472
10.987972,4.835975070379519,0.0932248821787792
10.99258,4.86428165640108,0.0924686504449073
10.99716,4.888457624326838,0.0917259280449265
11.001748,4.912222896661532,0.0909563570619285
11.006344,4.927648889539102,0.0902865594739454
11.01092,4.939066449035017,0.0896253465913196
11.015515999999998,4.950317682368157,0.0889201742533186
11.020104,4.958459916767288,0.0882124197551048
11.024696,4.9590401214428,0.0875983286344958
11.029284,4.957821457223016,0.0869998566439591
11.033872,4.955581173841439,0.0864220534985053
11.038456,4.95256364072636,0.0858434856382335
11.043048,4.948402303735341,0.0852919738500918
11.047636,4.943708086439112,0.0847164587578909
11.052232,4.937747880552797,0.0841732995856037
11.056824,4.931010424932981,0.0836265812234768
11.061416,4.922351915703723,0.0831006031919577
11.066004,4.914592840922113,0.0825671088901905
11.070588,4.906711581426358,0.0820412084503449
11.075168,4.899485386949959,0.0815302192573034
11.07976,4.895201865244794,0.0809813435820745
11.084352,4.888630735787751,0.0804836619278913
11.088932,4.884635724959506,0.0799751083074225
11.093519999999998,4.8812957791506175,0.079480459338818
11.0981,4.882453005579969,0.0789543292564488
11.102676,4.881977689276799,0.0784876408092451
11.107271999999998,4.881013634117045,0.0780605148658522
11.111856,4.8832807626054455,0.0776413253270024
11.116444,4.891843932227381,0.0771859391164135
11.121044,4.903760470211617,0.0767305628092632
11.125636,4.916454257929355,0.0762835266177631
11.13024,4.933400848457042,0.0758361547814737
11.134828,4.955088980651259,0.0753543363620968
11.13942,4.9809077309412775,0.0748788380422096
11.144008,5.015432314830854,0.0743280337743434
11.148604,5.051389213473291,0.0737978454244147
11.153192,5.0937643379634086,0.0732372053049933
11.157788,5.140758819405909,0.0726591946880532
11.162372,5.192494842514942,0.0720530364680399
11.166964,5.243209246462182,0.0714682945132445
11.171551999999998,5.296621953752364,0.0708861257073009
11.176136,5.351178464918486,0.0702906777480338
11.180727999999998,5.408555464141697,0.0696849450482149
11.18532,5.4678535169743485,0.0690743937365026
11.189908,5.528661927825377,0.0684310337888137
11.1945,5.595600053647169,0.0677259280102431
11.19908,5.661516560307164,0.0670371358035135
11.203672,5.725878567500156,0.0663512607928483
11.208251999999998,5.787131575759139,0.0656601491677774
11.212832,5.845031215655822,0.0649719859818385
11.217416,5.902153605819003,0.0642877039965313
11.222,5.953879389296297,0.063628922750943
11.226584,5.997388078030615,0.0630083254938352
11.231184,6.03844283285028,0.06238635443165
11.235764,6.071935557946325,0.061818062796194
11.24034,6.106816456346602,0.0612241299729221
11.244948,6.135034759470905,0.0606730803932824
11.249524,6.155935402299882,0.0601505480117626
11.254128,6.16837458095759,0.0596682984528942
11.258708,6.1782376409865,0.059184888533966
11.263308,6.1816824751677295,0.0587234564645932
11.267884,6.184105690187165,0.0582725637168165
11.272472,6.184852221025451,0.0578212538437809
11.277055999999998,6.18020214517785,0.0573796238742494
11.281648,6.171587777397219,0.056965211699076
11.286231999999998,6.15655518376891,0.0565673734872805
11.290816,6.1411118945495335,0.0561414302434407
11.295404,6.120927063663629,0.0557331074026816
11.299996,6.09743300586405,0.0553607157929389
11.304576,6.074061132778618,0.0549788084406951
11.309172,6.042349980236063,0.0546156737396362
11.313752,6.006019470741124,0.0542602445168952
11.318336,5.972387264589128,0.0538973697729887
11.322928,5.937855623989484,0.0535328111992074
11.327504,5.899604060885104,0.0531739820277831
11.332096,5.859187074742991,0.0528366337150758
11.33668,5.819136642743315,0.0524732941263025
11.341268,5.778719656601202,0.0521276509704664
11.345859999999998,5.742922027411472,0.0517675904539759
11.350448,5.707779463241102,0.0514186655259293
11.355032,5.67316977937594,0.0510878752677388
11.359635999999998,5.636394672473047,0.0507785382709181
11.364228,5.594755839189475,0.0504907367021011
