Time,Force,Position
4.40718,2.651593497015237,0.147208787665441
4.411768,2.800720557475315,0.1463306196866179
4.416356,2.9337697429601373,0.1459074917477342
4.420944,3.053805910955087,0.1457035379442027
4.434716,3.3430759270305024,0.1456684693584021
4.439311999999999,3.4236521073330257,0.1454336039711183
4.443887999999999,3.495956811812206,0.145082940422483
4.44848,3.5590906060203955,0.1446228455736263
4.453068,3.6130534899575935,0.1440836207844225
4.457656,3.660177212824307,0.1434188672759855
4.462263999999999,3.697641286563447,0.1427130616752488
4.466856,3.724013396422154,0.1420127273113302
4.471444,3.734429816019752,0.1414876432407515
4.476035999999999,3.7324882831468327,0.1410305929617007
4.480635999999999,3.7222413726336816,0.1406482826037697
4.485232,3.7078197025761,0.1402600920945633
4.4898240000000005,3.684814383633104,0.1401315287973342
4.494415999999999,3.66319723799434,0.1399202139345103
4.498996,3.643789656841936,0.1396961149865767
4.503596,3.629778682375419,0.1393380607771625
4.508175999999999,3.621164314594789,0.1388446022564866
4.512772,3.6115724691009934,0.1384655772020551
4.517367999999999,3.602924199503475,0.1381431233515096
4.52196,3.5973849288399644,0.1377877053973367
4.526539999999999,3.5939330379486694,0.1374377615568008
4.531136,3.587704800448913,0.137249107908733
4.535724,3.583197388578935,0.1371092817483394
4.540315999999999,3.5864183325953505,0.1368231946053762
4.544903999999999,3.590338483079752,0.1366211732934746
4.549488,3.5972454477840143,0.1364075906920024
4.554076,3.6131467569647566,0.1359924518687398
4.558676,3.632934314813009,0.1355486807995756
4.563264,3.657629740490567,0.1350299797111246
4.56786,3.68494542624555,0.1345422595216227
4.572455999999999,3.715370110934542,0.1340359174901464
4.577043999999999,3.7412195801197767,0.1337171648210872
4.581636,3.777573751799866,0.1331170758801483
4.586224,3.812661934889872,0.1325861239394694
4.590819999999999,3.845296184065224,0.1320932895600483
4.595412,3.875109945183488,0.1316795383690961
4.6,3.904923706301751,0.1312730357502979
4.604595999999999,3.9420109862667143,0.1306327147008554
4.609183999999999,3.977910320907111,0.1299622463481159
4.613771999999999,4.012255156080503,0.1293097738298271
4.618368,4.042469373158093,0.1287082423659179
4.622952,4.072272894644617,0.1280752605872309
4.627556,4.099989036358927,0.1274398920303896
4.632144,4.115768160825524,0.1270747427458916
4.636744,4.134445816614727,0.1265634372706639
4.641323999999999,4.153856580688804,0.1259888527013305
4.645923999999999,4.166971303629346,0.1255461356546288
4.650511999999999,4.178775896531175,0.1250942912425638
4.655111999999999,4.194666966080178,0.1245381561349754
4.659696,4.207693406123464,0.1239738152490507
4.664287999999999,4.217488662518595,0.1234413065055626
4.668875999999999,4.232758568865131,0.122729120096615
4.673468,4.238545391878605,0.1222333851492174
4.678056,4.246375453215668,0.1216858674942485
4.682651999999999,4.256781633181528,0.1211066409013188
4.687239999999999,4.270008301204476,0.1204727423654836
4.691836,4.285278207551013,0.1197948635468073
4.696427999999999,4.294784953069224,0.1192493494441154
4.701015999999999,4.308133805806317,0.1186292999181951
4.705603999999999,4.320461039381619,0.1180338151690458
4.7102,4.33560876101401,0.1173802673495138
4.714791999999999,4.350389928503962,0.1167619526211507
4.719379999999999,4.36504891127977,0.1161568571591764
4.723972,4.385471054883902,0.115418967838345
4.728551999999999,4.401806721840859,0.1147938387540585
4.733143999999999,4.414833161884144,0.1142755379878683
4.737739999999999,4.431701709146313,0.1136840521225517
4.742327999999999,4.44832588698019,0.113121088882941
4.746932000000001,4.4593090886998885,0.1126688799908818
4.751519999999999,4.476221777410686,0.1121637503081613
4.7561040000000006,4.494811150302632,0.1116454489375368
4.760708000000001,4.514832837947437,0.1111470143289702
4.765295999999999,4.54049550170642,0.1105528217614027
4.769887999999998,4.566158165465404,0.1099691092897819
4.774467999999999,4.588100906719651,0.1094458085697966
4.779071999999999,4.608899844097959,0.1089619668573853
4.783660000000001,4.627655543152681,0.108530919178722
4.788260000000001,4.648987360836197,0.1080773489346204
4.792839999999998,4.669053189929631,0.1076761368157021
4.797439999999998,4.69627035315562,0.1071362467361785
4.802019999999999,4.727207438886345,0.1065532824085263
4.806615999999998,4.76067650179724,0.105895116922658
4.811212000000001,4.794512118850571,0.1052109777549324
4.815804,4.831168223960993,0.1044961319251875
4.820391999999998,4.868723763519062,0.1037707134143621
4.824984000000001,4.904846988324272,0.1030325596692069
4.829571999999999,4.938149725072393,0.1023458025472889
4.834156,4.97157464653466,0.1016555422921622
4.838732,5.006143371872866,0.1009369312752855
4.843323999999999,5.038746902153003,0.1002076370777164
4.847908,5.073638040185017,0.0994336197799174
4.852488000000001,5.103621310387728,0.0986854324329916
4.857071999999999,5.132050081123433,0.0979479549350024
4.861656,5.157003298782693,0.0972396573509708
4.866247999999999,5.185021373927334,0.0964770624276144
4.870840000000001,5.211729319033262,0.0956970060467203
4.875423999999999,5.23508389577689,0.0949317887397556
4.880016000000001,5.256473277462449,0.09414126140382
4.884599999999999,5.274631475499852,0.0933591615441911
4.889192000000001,5.281141167166463,0.0927442054177222
4.893792000000001,5.2841753057566265,0.0921582737835807
4.898375999999999,5.28246790268026,0.091630081183883
4.902975999999999,5.280638314889748,0.0911116810963261
4.907556,5.279053096527527,0.0905811952213147
4.912156,5.278733866755391,0.0900179617509647
4.916744000000001,5.283522732792223,0.0893768605644297
4.921344000000001,5.287534349095552,0.0887338864631868
4.925936,5.288070412322436,0.0881087496520743
4.930532,5.286685421939879,0.0875050394365385
4.935108,5.280314520462499,0.0869709720237351
4.939703999999999,5.268835523176152,0.0865156602173091
4.944299999999998,5.259688275090314,0.0860658545464927
4.948896000000001,5.249519407842679,0.0856316392744344
4.953484,5.243969897547429,0.0851571117058626
4.958068000000001,5.237765322232823,0.084672219411237
4.962655999999999,5.234136865547015,0.0841786420211691
4.9672519999999984,5.23602720026124,0.0836410472518389
4.97184,5.237306611404736,0.0831459307733925
4.976420000000001,5.242838825358182,0.0826407620658901
4.981012,5.253889830711659,0.0820861374298288
4.985599999999998,5.2635526627609055,0.0815724013207265
4.990192,5.280410970391336,0.0810163054759469
4.994775999999998,5.299845396650563,0.0804572543951191
4.999364,5.314948976834326,0.0799756165592028
5.003972000000001,5.332750860361031,0.0794855712817651
5.008559999999999,5.345078093936332,0.0790919493090252
5.013168,5.3616581303215805,0.0786930468907214
5.017759999999999,5.383634773392717,0.0782662073163027
5.022364,5.412806892045035,0.0778054463251833
5.026955999999998,5.449296670992683,0.0773025205861668
5.031544,5.487707503549772,0.0767799701689401
5.03614,5.528694454735658,0.0762592404454106
5.040716,5.571235905388549,0.0757506572319495
5.045307999999999,5.611611933003707,0.0752836158918136
5.049896,5.655996394000523,0.0748358669369078
5.054492,5.700258670283192,0.0744037323559173
5.059076000000001,5.743254957975776,0.0740076416932891
5.063676000000001,5.792014406496685,0.0735710692084636
5.068259999999999,5.841018224445883,0.0731294787895832
5.072855999999998,5.896929007099347,0.0726357070832895
5.077444,5.95986893917122,0.07208148849025
5.082039999999999,6.01614627596712,0.0715810603440156
5.086628000000001,6.069725309420076,0.0710974178966295
5.091224,6.125714135339057,0.0705721097915046
5.095811999999999,6.177860854039154,0.0700838081767066
5.100396,6.233316799652924,0.0695500427087342
5.104976000000001,6.283742692723243,0.0690197718780416
5.109567999999999,6.333391336060061,0.0684953784856746
5.114163999999999,6.376988307691635,0.0679865531129654
5.118756000000001,6.413267619027879,0.0675126886186592
5.123352000000001,6.453100526706087,0.0669883385754251
5.127932000000001,6.484183459336109,0.0664775170496733
5.132528000000001,6.51305682747977,0.065950136784773
5.137108000000001,6.537677392813483,0.0654208594106311
5.141696,6.553547983099008,0.0649046161217292
5.1463,6.564021966698647,0.064402911224922
5.150880000000001,6.570365332202483,0.0638927745917781
5.155463999999999,6.56939103741099,0.0634110620454163
5.160056000000001,6.563020135933612,0.0629435198086871
5.164635999999998,6.546266716675523,0.062529081972868
5.169228,6.518109160474932,0.0621728820879393
5.173811999999998,6.49248358145451,0.0617692217132438
5.1784,6.465303502967084,0.061353518958019
5.182984000000001,6.4374683594603015,0.0609243529820823
5.187584000000001,6.408978150934163,0.0604814729763342
5.192163999999998,6.378689073512729,0.0600402227922027
5.196756000000001,6.347256192215355,0.0596101450465419
5.2013560000000005,6.313780072594395,0.0591963956525706
5.205947999999999,6.2812033874210815,0.0587783998956229
5.210532000000001,6.251569375019003,0.0583392087189328
5.215128,6.221324439046198,0.0579344384716449
5.219712000000001,6.198274978654574,0.0575157760161545
5.224304,6.176535648301663,0.0571205565505854
5.228884000000001,6.160192924634639,0.0567161528950788
5.233476,6.150146242101151,0.0563013898045016
5.238063999999998,6.148438839024784,0.0558635434690303
5.242664000000001,6.151883673206013,0.0554330737841825
5.247252,6.161502363806633,0.0550032729940617
5.251839999999998,6.175251672503053,0.0545888407706633
5.256432,6.196318641494802,0.0541611765053769
5.261019999999999,6.225724889943675,0.0537109039517632
5.265595999999999,6.253498595660025,0.0533034218949068
5.270195999999999,6.28474785445282,0.0529018955789661
5.274784,6.315264004960742,0.0525427994079931
5.279388000000001,6.34811190466917,0.0522039594584298
5.28398,6.382514303844602,0.0518794923884453
5.288575999999999,6.422435494420068,0.0515467711687653
5.293175999999999,6.459658381652589,0.0512162112191621
5.297751999999999,6.496392530028527,0.0509139798205589
5.302347999999999,6.531860689814381,0.0506338649506165
5.306936,6.558867385428967,0.0503778334726284
5.311532,6.584974646595906,0.0501252917100049
5.316112,6.611204092476989,0.0498678648312443
5.320708,6.634490865586837,0.0496261365481791
5.325299999999999,6.656878204249039,0.0493873890193341
5.329895999999998,6.67170351318762,0.0491717544072651
5.334475999999999,6.679211161830873,0.0489639723261638
5.33906,6.680300584626445,0.048764281632744
