Time,Force,Position
9.045716,3.879164225444359,0.1600808706098417
9.050308,3.980101802427301,0.1600389864832521
9.0549,4.076209554846456,0.1599535041542528
9.05948,4.173006274101858,0.1597061794829596
9.06408,4.271269209927008,0.159280742081687
9.068656,4.36674555951196,0.1588062129046958
9.073256,4.44995223952365,0.1586007249200395
9.077848,4.532415571618727,0.1582767442743712
9.082440000000002,4.615157174958985,0.1577861475499547
9.087028,4.693435507877894,0.1572825674227669
9.091612,4.775834219260867,0.1565198204773787
9.096212,4.857611767441372,0.1556290666227734
9.100804,4.936480544667532,0.1547093358714013
9.105392000000002,5.012929289795928,0.1537329204203758
9.10998,5.086713633398272,0.152736399944505
9.114568000000002,5.150682241342007,0.1518929478143613
9.119164,5.204180048607774,0.1512113217110157
9.123752,5.248150631091853,0.1507171463494159
9.128332,5.297307352650417,0.15002682789104
9.132924,5.34425450972262,0.149358820695921
9.137512,5.392545698650426,0.1485821409540453
9.142104,5.437727888644224,0.1478386157296202
9.146684,5.485686425246481,0.1469769152366732
9.151272,5.527959844285933,0.1461909848857866
9.155864,5.567735187962103,0.1453977511428903
9.160456,5.60309140266555,0.1446299656168556
9.165044000000002,5.637870595615159,0.1437921748019527
9.169628,5.668230659592046,0.1429894165455741
9.174220000000002,5.6922505409867705,0.14225115532843
9.178816,5.711851293408772,0.1415313665319132
9.183396000000002,5.72204700576323,0.1409500837965281
9.187992,5.727823589144966,0.1403871252785521
9.192572000000002,5.730324847429918,0.1398059726272207
9.197172000000002,5.724975565114332,0.1393394457187396
9.201768,5.70997687330291,0.1390158421132005
9.20636,5.69722164779474,0.1385711180517631
9.210944,5.686221149733234,0.138043561154957
9.21554,5.6763203140990415,0.1374285169675328
9.220136,5.658691122578457,0.1369146960498162
9.224732,5.638974551285656,0.1363947522377759
9.22932,5.619502349421144,0.1358541398858926
9.233912,5.600641071127361,0.1352640636566526
9.238500000000002,5.581369097242514,0.1346490524764303
9.243084,5.564384731109543,0.1339670920306903
9.247676000000002,5.543802627185983,0.1333364509538049
9.252272,5.526940445767158,0.1326410880889403
9.256864,5.512532198262986,0.1319226878032805
9.261456,5.496325081863517,0.1312277987780786
9.26604,5.484737322416434,0.1304572143194914
9.27062,5.478546169655238,0.1296101436809014
9.275212,5.475708385256341,0.1287262660765001
9.279804,5.47213749257257,0.1278934698224093
9.28438,5.471553414108664,0.1270575784176593
9.288976000000002,5.475999388188206,0.1261688247617977
9.293564,5.488540272296579,0.1251632838066187
9.29816,5.502801982034732,0.1241991528432413
9.302752000000002,5.51800726766916,0.1232821359030018
9.30734,5.53342302091499,0.1224615536670994
9.311936,5.554157337581192,0.1216296362251803
9.316512,5.576856849305462,0.1208173839972772
9.321112,5.599478317764215,0.120074206041974
9.325692,5.6236984271385975,0.1193810431524198
9.330292,5.650294427162117,0.1187393837816799
9.334884,5.679877241405501,0.1181066074996666
9.339480000000002,5.715922422945192,0.1174423593630578
9.344072,5.749968507609925,0.1168752145928039
9.348664,5.783037114561493,0.1163808515445087
9.353252,5.817337808286257,0.115956841213374
9.357848,5.8533593276408,0.1155809368337102
9.362448,5.888036815139739,0.1153065403070177
9.36704,5.927499985753839,0.1150191945773794
9.371616,5.971993208911387,0.1146971270780026
9.3762,6.016774942945855,0.114413452776287
9.380788,6.0641327956091216,0.114114667450879
9.38538,6.106793248054485,0.1139311998062743
9.389972,6.151252569395144,0.113734018547536
9.394552,6.197144205488662,0.1135471769516215
9.399136,6.244546199600557,0.1133116580353499
9.403724,6.293869247321893,0.1130572662478588
9.408316,6.346667848119674,0.112779805826906
9.412912,6.399344264203309,0.1125126583440599
9.4175,6.456107156934119,0.1121876889896625
9.422104,6.513358788521511,0.1118404125816564
9.426692,6.570366050680614,0.1115180366944468
9.431296,6.627862051696302,0.111178873772604
9.435888000000002,6.685968976282714,0.1108043126432789
9.440476,6.74685224747759,0.1103591868820755
9.445072,6.811655669156865,0.1098214087451631
9.449648,6.867709115787952,0.1093493978076907
9.454244,6.921142302341614,0.1088528518006466
9.458824,6.968113121598967,0.1083835445378673
9.463424,7.013363115226541,0.107888568850255
9.468012000000002,7.058568967405487,0.1073590067059825
9.472612000000002,7.102709058974011,0.1068127310156139
9.477204,7.151013670455229,0.1061619577664254
9.481796,7.194410414107142,0.1055330498141312
9.486376,7.235309082395774,0.1048787612091775
9.490972,7.275141990073983,0.1042041318377982
9.495568,7.308390345741741,0.1035570394213194
9.500164000000002,7.331456411608451,0.1029595696984213
9.504748,7.351902217397734,0.1023367880913061
9.509336,7.3619213639576815,0.1017788051481669
9.513924,7.363801459040168,0.1012418153955506
9.518512,7.359585740968781,0.100698667792409
9.523108,7.34649786313506,0.1002159979811542
9.527704,7.331322605529124,0.0997185131287237
9.5323,7.31111729537974,0.0992391905825834
9.536884,7.283061444629815,0.0988026653667532
9.54148,7.260480243831295,0.0982770300916927
9.546056,7.234545674670475,0.0977597753204184
9.550644000000002,7.209877094099739,0.0972127382167791
9.55524,7.181366406310122,0.0967021365003381
9.559828,7.14541587351103,0.0962524226518607
9.564416,7.101003876540669,0.0958761301741585
9.569012,7.049807099580192,0.0955670698872378
9.573608,7.0015529953909486,0.0952213749353695
9.578204,6.948190795392739,0.0949370588851931
9.582796000000002,6.892418802928505,0.094695309809558
9.587392,6.839345113807215,0.0944307878347913
9.591976,6.7944885194289,0.0941012329154556
9.596576,6.749387555622295,0.0937814494898282
9.601156,6.712259317130375,0.0934113738329837
9.60576,6.681593445934764,0.093031883306986
9.610348000000002,6.649827912311842,0.0927117970319241
9.614948000000002,6.61949469344178,0.0923983013323061
9.619532,6.593169907953373,0.0920808381467964
9.624128,6.568688132808892,0.09179287523458
9.62872,6.547970421617775,0.0915156863668402
9.633304,6.528196286322934,0.0912750270054491
9.637908,6.513330018857397,0.0910261952711056
9.642504,6.501084011469286,0.0908104601117065
9.647092,6.492724252748686,0.0906009093553733
9.65168,6.491970665200334,0.090367279557778
9.656268,6.502787540757259,0.0900664508206689
9.660852000000002,6.520433337752931,0.089740623428772
9.66544,6.538123276197231,0.089461359820264
9.670036,6.562519951366129,0.0891639979801933
9.674628000000002,6.589248375735536,0.088870521059643
9.679216,6.617164745429507,0.0886039387573744
9.683816,6.647168494895695,0.0883615555163489
9.688396,6.68285736192469,0.0881189138549937
9.692988,6.716136436487659,0.0879247609771095
9.697572,6.749948391355841,0.0877487553303594
9.70216,6.794020679290586,0.0874974975541371
9.706768,6.848231115577748,0.0871820163281827
9.711364,6.89913232495124,0.0869182239505908
9.715968,6.9537534568294666,0.086631188568735
9.72056,7.011072892050637,0.0863315651702792
9.725148,7.068147957843517,0.0860482985217611
9.72976,7.127921326979341,0.0857554565575351
9.734348,7.189860119152896,0.085440360466937
9.738952,7.251143846307097,0.085119398652783
9.74354,7.313937931479672,0.0847691018875597
9.748144,7.372889909433365,0.0844571049740713
9.75272,7.435806179320086,0.0841178929660951
9.75732,7.4943474616827155,0.0837929011291887
9.7619,7.552600233168423,0.0834453758817305
9.7665,7.613262797120156,0.0830631156526539
9.771084000000002,7.6711048730148,0.0826999827354946
9.775672,7.721873658042406,0.0823663537869407
9.780264,7.768634009688356,0.082033281147068
9.784856,7.813062612133797,0.0816940884172852
9.789452,7.85360496591173,0.0813468252899797
9.794044,7.887973463270272,0.0810275305899005
9.79862,7.911426562542895,0.0807644713564677
9.803212000000002,7.932792282043303,0.0804821751998566
9.807804,7.950027383447908,0.0802035184574149
9.8124,7.965052920366154,0.0799144466103158
9.816984,7.976192208616887,0.0796146403210973
9.821576,7.983200878771818,0.079317454841954
9.826168,7.976595847497887,0.0790799146410107
9.830752,7.969702305347035,0.0788167495737744
9.835344,7.956390537348502,0.0785845739843743
9.839928,7.940091955130106,0.0783369097505141
9.844516,7.911978540378143,0.0781400637128857
9.849116,7.886397102806351,0.077899654812524
9.853704,7.855541243262815,0.0776725223161182
9.858296,7.820066026766896,0.0774668180621198
9.862892,7.7836472343747,0.0772252689887757
9.86748,7.750415484182031,0.0769484200066971
9.872072,7.715629234522357,0.0766643758089918
9.876652,7.682764038472126,0.0763664523314108
9.881248,7.650676092155395,0.076069122416247
9.885828,7.613069354438632,0.075794917600704
9.890432,7.579426908654898,0.0754875972057707
9.89502,7.551547623699488,0.0751416704981403
9.899608,7.524689957905871,0.0747850002656703
9.904188,7.499997715149986,0.0744036903746181
9.908784,7.479924829346486,0.0740003008247826
9.913392000000002,7.461772997152429,0.073584510354937
9.917984,7.456824170796169,0.0730960584131459
9.922572,7.449832106116323,0.0726242756435223
9.927168000000002,7.445660529493565,0.072136800613919
9.931756,7.440345148994868,0.0716614444236585
9.936348,7.441814548486288,0.0711407457511765
9.940936,7.447003870482447,0.0706060869665233
9.945528,7.457711983878639,0.0700498081719588
9.950116,7.467520662827183,0.0694936532514668
9.954716,7.481704329299819,0.0689319726021707
9.959308,7.495887995772456,0.0683723081636955
9.963884,7.514568834483331,0.0678035182006217
9.96848,7.536192345965442,0.0672202540798988
9.973064,7.560636345504642,0.0666269956445324
9.97766,7.594563428376904,0.065989025604533
9.982256,7.631066629877963,0.0653561374735874
9.986836,7.66540440834129,0.0647512915906134
9.991444,7.700397251823974,0.0641594508659987
9.996024000000002,7.732980302840631,0.0636045504318452
10.000612,7.765441169143145,0.0630610666442993
10.005216,7.800600338788601,0.0625189560554155
10.009804,7.83371627011047,0.0619986831395664
10.014396,7.872106623404081,0.061477690191627
10.018988,7.91254021502128,0.0609474150775402
10.023576000000002,7.961435270809745,0.0603925728178979
10.028156,8.01200701077936,0.0598476673605657
10.032744,8.057226285511717,0.0593509407750121
10.037336,8.103222809977577,0.058864727112117
10.041932,8.15498249527176,0.0583584465457288
10.046524000000002,8.204821126956503,0.0578648173401466
10.051116,8.25813531171769,0.0573779446604767
10.055704,8.311449496478877,0.0568987497128678
10.060304,8.360266509001825,0.0564291122816478
10.064896,8.40752902205777,0.0559558347967847
10.069488,8.452870481504272,0.0554966205676049
10.074076000000002,8.491793715103094,0.0550499638398866
10.078668,8.53006188368256,0.0545968068766408
10.083248,8.567552802528523,0.0541418782799783
10.08784,8.605410275516924,0.0536738196932047
10.092436,8.638770576267083,0.0532107141347065
10.097012,8.662647793684185,0.0527742084235356
10.101608,8.681783469434755,0.0523512549547434
10.106188,8.694745288765935,0.0519284649522566
10.110780000000002,8.70362063144994,0.0515286014453764
10.115376,8.702113456353235,0.0511543824727714
10.119964,8.693044251532912,0.0507974845958845
10.124572,8.683564351121525,0.0504189979875522
10.12916,8.667666224862456,0.0500471548294107
10.133752,8.644861133899125,0.0497013850977164
10.138344,8.619113370164557,0.0493646770283974
10.142932000000002,8.583105273363428,0.0490434827217226
10.147528,8.533771986010352,0.0487514956415901
10.152104,8.48407214451484,0.0484716982328167
10.156704,8.431962510553303,0.0482150245181591
10.161292,8.36922598938277,0.0479866594111893
10.165892,8.30522347962215,0.0477705325991021
10.170476,8.23329238599547,0.0475824689782219
10.175076,8.153554893216882,0.0474177970221012
10.179660000000002,8.065888816572237,0.0472814125676241
10.184256,7.9779783704993,0.0471513576267485
10.188848,7.891744608607513,0.0470246863381795
10.19344,7.804489227553932,0.0469005657480781
10.198032,7.714046804300827,0.0467943757041785
