Time,Force,Position
14.369972,2.0630073350245977,0.1650638740090757
14.37456,2.213763755295524,0.1645142601415946
14.37916,2.36983873898682,0.163894117992696
14.38374,2.528001102450331,0.163397359326936
14.38834,2.693236756780879,0.1624302557801467
14.392928,2.8568398683789056,0.1618788216899649
14.397528,3.0233076094826488,0.1614003779160616
14.402112,3.1882649925680164,0.1610977083400036
14.406708,3.351745919451898,0.1607639709360555
14.411296000000002,3.509131033181908,0.160718913806681
14.415892,3.666872461422616,0.1603488222907383
14.42048,3.815897816432028,0.1601622990208789
14.425076,3.961515421998772,0.1596719889735007
14.42966,4.101882267778927,0.1589304330745272
14.434247999999998,4.238430668525349,0.1579500549695197
14.438836,4.364253659533776,0.1569443356263323
14.443432,4.481394479127794,0.1558527845790943
14.44802,4.58715482396446,0.1547389443800996
14.452616,4.676548782948951,0.1538181340493783
14.457212,4.754684451890236,0.1529050218292779
14.461788,4.819929288055794,0.1520744089506147
14.46638,4.873060541179124,0.1512932862910099
14.470968,4.914322580688519,0.150544899219224
14.475564,4.947968209393928,0.1497500884975168
14.48016,4.970688200381678,0.1490237186794037
14.484748000000002,4.986569030298946,0.148230134585184
14.489351999999998,4.992379515497571,0.147417685468484
14.493932,4.9932718932351525,0.1464886312548328
14.49852,4.987902131656089,0.1455704672997833
14.503116,4.974226992436791,0.1447152311584504
14.507708,4.95114681314995,0.1440207618387091
14.512304,4.92405820048145,0.1433708044588612
14.516892,4.896725218384661,0.1427387486302888
14.521492,4.8627737824605255,0.1423174804451059
14.526084,4.824247131032635,0.1420463281370251
14.530684,4.791649966595842,0.1416802111479913
14.535264,4.761140181931265,0.1413119276778131
14.539864,4.7359489606870575,0.1409075052893766
14.544455999999998,4.712234195644335,0.1405611088293389
14.549052,4.689218637069599,0.1402752599395937
14.553632,4.67356488023882,0.1398965746581296
14.558228000000002,4.666294544313792,0.1394004419798742
14.562816,4.6631989679331936,0.1389106438668965
14.567408,4.663500901363523,0.1384383086034259
14.572,4.665768029851923,0.1379791843790652
14.576584,4.671310483437104,0.1375476013828721
14.581172,4.679883892690778,0.1371645118304829
14.585764,4.689278693126584,0.1368373544905805
14.590352,4.697818200563369,0.1365856289332729
14.594936,4.712575705868171,0.1362901427457947
14.599532000000002,4.735183751773512,0.1358752143994957
14.60412,4.76323254581337,0.1354249028472759
14.608716,4.789404427692414,0.1350788222858949
14.613304,4.8252257190672925,0.1345787883900073
14.6179,4.865954878271476,0.1340296441201172
14.622496,4.906972548352579,0.1335349391300987
14.627084000000002,4.950444152348334,0.1330279370802449
14.63168,4.998412928582328,0.1324661549536573
14.636268,5.057785841758825,0.1316897617707694
14.640856,5.120389938583477,0.1308960430732566
14.645460000000002,5.177230874579805,0.1302302616037764
14.650048,5.229330268909601,0.1296682065399789
14.654644,5.2853939551724265,0.1290392322410057
14.659224,5.336838284482868,0.1284921404335213
14.663824,5.391758166869753,0.1279064031092703
14.668404,5.444590669484424,0.1273186349741158
14.673008,5.50150964874627,0.1266563360754942
14.677596,5.559572431884052,0.1259694329696447
14.682192,5.624664364440245,0.1251511361627968
14.686776,5.68689166749072,0.1243390548388701
14.691372,5.742456375265223,0.123653899191888
14.695968,5.795811518553366,0.1229784069175558
14.70056,5.852598073469326,0.1222167439661357
14.705148,5.905254010289486,0.1215053227028749
14.709744,5.955700382623285,0.1208043651584482
14.714324,6.001361071841923,0.1201338051738929
14.718912,6.04264677353647,0.119518009298676
14.7235,6.073383631287531,0.1190244664911175
14.728096,6.096147763723908,0.1186339543487525
14.732688,6.113226778597479,0.1182774707205682
14.737272,6.134881008974805,0.1178142743562678
14.74186,6.15804559737051,0.1173008471886143
14.746440000000002,6.1765466873652,0.1168093540454981
14.75102,6.195780885644767,0.1162666983489398
14.755616000000002,6.212517008561052,0.1156965651836263
14.760204,6.23051912006742,0.1150954223910922
14.764808,6.238871822077954,0.1145886522037219
14.7694,6.241950102116746,0.1141314873556582
14.773988,6.234768049088976,0.1138067986936234
14.77858,6.228363245794706,0.113480827621508
14.783172,6.221792116337663,0.113114507851301
14.787768000000002,6.213910856841908,0.1127347648419197
14.792356,6.2017767945362055,0.1123863852811719
14.796948,6.186289363868201,0.1120583240749324
14.80154,6.165649695942601,0.1117688946461936
14.806136,6.144232778283498,0.1114787128497414
14.810720000000002,6.125103468376272,0.1111356902244797
14.815320000000002,6.107895212078491,0.1107626444145969
14.819912,6.088888086885413,0.1104071286914744
14.8245,6.072701449749425,0.1100127542666951
14.82908,6.050385097642675,0.1097237106715211
14.833676,6.02704712637413,0.1094505609062685
14.838264,6.000932808497127,0.1092602348435019
14.84286,5.978294043696568,0.1090391118023647
14.847448000000002,5.953778366735196,0.1088909772550756
14.852036,5.925953462860153,0.1088095413997125
14.856628,5.903280796242704,0.1086897019575077
14.861216,5.88972465881588,0.1084702927207632
14.865808,5.883486181684384,0.1081702375321503
14.870392,5.878269323714683,0.1078541743685208
14.87498,5.875139845517197,0.1075519276356217
14.87956,5.871277259034837,0.1072978337593636
14.884156,5.870768040914777,0.1070250781600728
14.888748,5.873367821728726,0.1067493726458903
14.893328,5.883695958429069,0.1064198461631129
14.897924,5.899831397406364,0.1060638609741395
14.902516,5.914334293651136,0.1057669128188027
14.907104,5.935666111334654,0.1054284660751783
14.911700000000002,5.958430243771032,0.1050967475597035
14.916292,5.98226013681783,0.1047988636482259
14.920896,6.0090327026358645,0.1044578406472921
14.925488,6.0382592023685495,0.1041121770562031
14.930092,6.071982874339475,0.1037247040874877
14.934676,6.100720635215578,0.1034129043264898
14.939264,6.135465926348297,0.1030169895431767
14.94384,6.173808955271605,0.1025882854744791
14.948436,6.2141952225185015,0.102134476596166
14.95302,6.247918894489428,0.101767072828854
14.957612,6.283563620069794,0.1013866386103333
14.962212,6.315899118736489,0.1010689009257369
14.966804000000002,6.350644409869205,0.1007027793921687
14.971396,6.389476177649099,0.1002793738352744
14.975988,6.4280635760007,0.0998763112673577
14.980568,6.467794778228241,0.0994550429075196
14.98516,6.505727111560485,0.0990551735843563
14.989736,6.542227130139873,0.0986543687399131
14.994336,6.5820363756329305,0.0982006747480414
14.998928,6.618736622191979,0.0977530698838389
15.003512,6.6586239109505545,0.0972616972782438
15.008104,6.699244307994004,0.0967326827425555
15.012692,6.743706812256336,0.0961713634097615
15.017288,6.781751090670989,0.0956614127373545
15.021872,6.816930739579923,0.0951384089573588
15.026459999999998,6.857340669011971,0.0945446883810176
15.031059999999998,6.890310753434544,0.0940197673142445
15.035648,6.9229923269801965,0.0934712373364507
15.04024,6.950032924411673,0.0929743214775741
15.044832,6.980504933470965,0.0924212114120738
15.049432,7.001860413339634,0.0919356749475609
15.054028,7.026891674264412,0.0913797466687492
15.05862,7.050124066293893,0.0908416315601182
15.063216,7.067959851637489,0.0903390410574451
15.067792,7.082808822761222,0.0898260016359944
15.072387999999998,7.096225479132095,0.089306795529801
15.076968,7.107310386302462,0.0887854072701536
15.081572,7.11504192511053,0.088273347741941
15.08616,7.119297910842149,0.0877781936676757
15.09076,7.121755027678474,0.0872942270848543
15.095352,7.1225354603336495,0.0868170649061857
15.099944,7.119840339912378,0.0863535997967234
15.104536,7.111748612805222,0.0859202655868727
15.109132,7.10823210120182,0.0854136635144402
15.113728,7.105492839331921,0.0849088011625861
15.118324,7.098012035795493,0.0844409675025801
15.122912,7.09281884001094,0.0839358464432833
15.127496,7.08570459061695,0.0834465254690189
15.132084,7.084720056193717,0.0828920240575888
15.136684,7.078749610675665,0.0823851424675649
15.141272,7.0767434570906405,0.0818379105395148
15.145848,7.071916815448527,0.0813113874765153
15.15044,7.062470816854027,0.080810758553489
15.15502,7.056866925478412,0.0802793859948717
15.159612,7.053061902998092,0.0797389607980958
15.164196,7.04901251108948,0.0792119450855007
15.168784,7.045862553628516,0.0786807607231807
15.173392000000002,7.043001107044471,0.0781763570836472
15.17798,7.039895291032135,0.0776841401925374
15.182568000000002,7.040387212810392,0.077178393898389
15.187152,7.038713711550914,0.076700050029552
15.19174,7.039494144206089,0.0762234430403963
15.196336,7.043627945223563,0.0757456549475003
15.200924,7.047805887689666,0.0753106593480294
15.205524,7.051206580422268,0.0748732140090693
15.210112,7.060370433983194,0.0743985438407814
15.214704,7.072643286478128,0.073938398911183
15.219292,7.085693388706565,0.0734819550110228
15.223892,7.09453482957368,0.0730724295878228
15.228476,7.108895061840831,0.072638644407228
15.233072000000002,7.126486477756135,0.0722138562574934
15.237664,7.1424453509389165,0.0718285889566741
15.24226,7.164822449969379,0.071416962925856
15.246848000000002,7.186832994857406,0.0710269734522988
15.25144,7.210275854498289,0.0706526790969523
15.256028,7.236539202196262,0.0702673770891699
15.260624000000002,7.263579799627737,0.0698880218308369
15.265208,7.293807439258739,0.0694779322723609
15.269804,7.322891275013802,0.0690821833843673
15.274392,7.349931872445277,0.068707977900344
15.278988,7.376073035429106,0.0683358419087939
15.28358,7.403235817574725,0.0679587267827276
15.288168,7.42500199303446,0.0675966089081702
15.29276,7.448034157084279,0.0672167512331983
15.297336,7.46877871338222,0.0668651880644486
15.301932,7.485436793032987,0.0665506195155632
15.306527999999998,7.49771988515966,0.066242793658167
15.311116,7.510780227019834,0.0659398465057181
15.315712,7.523718384165863,0.0656425041196766
15.3203,7.533058803521301,0.065355480764792
15.324888,7.539945288962087,0.0650647837804926
15.329484,7.552062054925986,0.0647293192441033
15.334076,7.564178820889886,0.0643976352259597
15.338672,7.575396152406137,0.064068902646865
15.343255999999998,7.583015746131796,0.0637483531648028
15.347855999999998,7.583073310133837,0.0634599380221038
15.352444,7.580310386078787,0.0631827210569257
15.35704,7.574849158680794,0.0629113347081377
15.361628,7.572697158196473,0.0626056342772628
15.366228,7.5671917893498515,0.0622946408671688
15.370824,7.566427962169762,0.0619643198503438
15.375416,7.563743081380229,0.0616440149164069
15.380012,7.565677557543081,0.0613091675326495
15.384604,7.563769926487052,0.060992287073806
15.389208000000002,7.567503271545202,0.0606551238366202
15.3938,7.567638878812759,0.0603225995258654
15.398404,7.567652301366172,0.0599945189727452
15.402996,7.569831146957316,0.0596484147120231
15.407588,7.575197034747987,0.0592762818650686
15.41218,7.581584541700452,0.0588973898265898
15.416772,7.590548167281714,0.0585225122076869
15.421356,7.5947702511964446,0.0581663827902069
15.425944,7.593473543711145,0.0578233765753974
15.43054,7.594464443977721,0.0574569656147699
15.435132,7.597376397853741,0.0570822980923296
15.439711999999998,7.607972566167524,0.056676560441597
15.444312000000002,7.621511407252543,0.0562569784348945
15.448892,7.635827498071064,0.0558426921303649
15.453484,7.649654850033001,0.0554530609210629
15.45808,7.665936135909593,0.0550715561778628
15.46266,7.675554826510211,0.0547130334500645
15.467263999999998,7.683252463501388,0.0543614571046304
15.471852,7.690050666044917,0.054011725112907
15.476439999999998,7.702612029416771,0.0536427079393401
15.481036,7.71337452389333,0.0532776634114206
15.485628,7.732598482541154,0.0528919572894776
15.490224,7.757341232589012,0.0524991271647876
15.4948,7.775299202646753,0.0521329763059532
15.499404,7.791213934380907,0.051781015808992
15.503984,7.80688429668677,0.0514408981540934
15.508588,7.815892063716659,0.0511201699549445
15.51318,7.8265765149277,0.0508038830640222
15.51778,7.839959269481684,0.050486127030314
15.522372,7.849011177960203,0.0502031001526909
15.526967999999998,7.858962520886369,0.0499207596738586
15.53156,7.861884714394127,0.0496728095592875
15.536156,7.862763669578297,0.0494364446050083
15.866644,1.7385784453894626,0.0493765551755859
15.871232,1.653376542291208,0.0493021956765278
