Time,Force,Position
12.323804,2.426153834691345,0.1737672059492864
12.328388,2.5721040925836345,0.1719778044174115
12.33298,2.712857971769701,0.1705069348416398
12.337571999999998,2.8518468838773607,0.1688182063702661
12.34216,2.9902146327825534,0.1669372174135227
12.346756,3.118067439561152,0.1654535742464645
12.351347999999998,3.2416572038980647,0.1638773157761336
12.355944,3.3605732302022253,0.1621199780780638
12.36052,3.4654546198547185,0.1607689880855593
12.36512,3.556101144875881,0.1599036643196117
12.369708,3.634267532712381,0.1593122405370247
12.374304,3.703673705868954,0.1587576032405708
12.378896,3.757779253783776,0.1584897775943272
12.383488,3.797727980332784,0.1584024715577919
12.39266,3.8555636903840806,0.1582910826593438
12.397248,3.878602911143966,0.1581304366739589
12.401832,3.8964457531976255,0.1580241165275226
12.406408,3.9101138357068574,0.1579303104995213
12.411,3.920750962547596,0.1577956101589137
12.415588,3.929911633186849,0.1575993360397841
12.420179999999998,3.934775359567525,0.1574314763722498
12.424772,3.941393813394869,0.1571438766526822
12.429356,3.950544244402382,0.1567352936378901
12.433951999999998,3.9573629262093895,0.1563657825152873
12.43854,3.970599833864077,0.1558263839472682
12.443124,3.986046306005125,0.1552868348881186
12.44772,4.002802908184886,0.1547654403534222
12.452308,4.022912878726948,0.1541811289910807
12.456912,4.044455164021867,0.153581076547941
12.461492,4.073114881632454,0.1529043582689637
12.466079999999998,4.104028305178028,0.1522834957144197
12.470676,4.140382476858118,0.1515952444583168
12.475268,4.18397626556802,0.1507966225279829
12.479864,4.233010802412435,0.1499527535669126
12.484448,4.285931587924362,0.1490786907277995
12.489048,4.338241449865561,0.1482831371659987
12.493631999999998,4.394804114616708,0.1474124383782917
12.498231999999998,4.457174081644806,0.1464634546842582
12.502816,4.523552482054561,0.1454943681962733
12.507416,4.585844405817142,0.1446610084654124
12.512007999999998,4.649324274904291,0.1438598617542929
12.5166,4.711782524829646,0.1431144258734969
12.521192,4.769377048374326,0.1425214836748293
12.525783999999998,4.828115375794944,0.1419077810946519
12.530383999999998,4.884521954015056,0.1413396606188255
12.534976,4.938718967748807,0.1408014959509366
12.539556,4.990706416996196,0.140282590584461
12.544148,5.041017182062436,0.1397884229835881
12.548735999999998,5.095780977918287,0.1391582949964713
12.553328,5.140240299258945,0.1386916643946634
12.557916,5.186165837169353,0.1381101693094544
12.562496,5.230126180021691,0.1375196181587528
12.567084,5.273798011997109,0.1369089651902526
12.57166,5.311129661390365,0.1363596685248613
12.576256,5.343309073526025,0.1358849859215527
12.580839999999998,5.373401105889471,0.1354067080004613
12.585428,5.39972907429955,0.1349490078102903
12.590032,5.4226595328987015,0.1344882903784464
12.594611999999998,5.438228189753897,0.1341045742761042
12.5992,5.456695377931698,0.1336048167382359
12.603796,5.470865621850925,0.1331039008430264
12.608387999999998,5.478451313759698,0.1326676361041364
12.612984,5.484193995324543,0.1322052750614271
12.61756,5.486050428221879,0.1317691934586091
12.62216,5.480056320518675,0.1314404028942433
12.626748,5.468377095252665,0.1311619387211168
12.631348,5.45232288246256,0.130944490167726
12.635939999999998,5.439045016280916,0.1306188743475029
12.640539999999998,5.418693859232237,0.130394985520336
12.645124,5.40165192909723,0.1300785172385808
12.64972,5.381789510905133,0.1298114609634227
12.654312,5.36319308130312,0.1294994887980019
12.658904,5.341243283338807,0.129220655824778
12.663496,5.320437289250434,0.1289066663947778
12.66808,5.301019468466292,0.1285391778269469
12.672667999999998,5.282623266843942,0.128147084105485
12.677252,5.263205446059798,0.1277763763641347
12.681832,5.239578963914335,0.1275059624821656
12.686424,5.218406415683526,0.127212852931366
12.691016,5.19368027111075,0.1270268120956809
12.695595999999998,5.171163691024336,0.1268380598724307
12.700192,5.1587852592903385,0.1264810075721235
12.704771999999998,5.147961327023348,0.1261155625968462
12.709348,5.137548090347422,0.1257748820258004
12.713947999999998,5.137150817309769,0.1252796500588611
12.718536,5.137042055149036,0.1248149705494918
12.723119999999998,5.142452084388334,0.1242594623609024
12.727716,5.142387463676228,0.1238493304658903
12.732312,5.147719449650009,0.1233590927570924
12.736908,5.156160434557799,0.1228592817827691
12.741499999999998,5.164112680609007,0.1223997339058881
12.746092,5.170554568641838,0.1220039711667906
12.75068,5.178428771427527,0.1216130602711773
12.75528,5.190189222880729,0.1212117598904179
12.759864,5.205425227410375,0.1207750261241548
12.764468,5.224258969730613,0.1202968253273534
12.769056,5.2484893187367385,0.1197515532469291
12.773656,5.279015708876398,0.1191259018309244
12.778248,5.309175544873621,0.1185292074386075
12.78284,5.346120160860961,0.1178192229809127
12.787432,5.3869068840671845,0.117055456968703
12.792024,5.420664457854999,0.1164396406270428
12.796616,5.457120334985756,0.1157984628597553
12.801208,5.4926767776688665,0.1151680703897235
12.805796,5.523491678685446,0.1146211531551511
12.81038,5.56456691276859,0.1139400242471706
12.814968,5.606297211871089,0.1132785551624263
12.819564,5.656611159859003,0.1124959694392228
12.824151999999998,5.706558553704478,0.1117509242053585
12.828727999999998,5.754707078654659,0.1110358521009495
12.833324,5.803755038052486,0.1103127518433718
12.8379,5.855745670221548,0.1095504833350097
12.842492,5.908757921552405,0.1087788254903815
12.847088,5.958416804520961,0.1080386370516131
12.851664,6.009874556384814,0.1073002489714175
12.856272,6.056468581867988,0.106640533023795
12.86086,6.096522196789338,0.1060635782897232
12.865464,6.133877508367744,0.1055216057416752
12.870055999999998,6.1736426124121735,0.1049261747061374
12.874644,6.206867305894778,0.1044137670695435
12.879248,6.2352282729967055,0.1039726752316885
12.883831999999998,6.267675716745807,0.1034693650960736
12.888428,6.296403237990171,0.1030108960927195
12.893007999999998,6.326030193682184,0.1025440440554302
12.897604,6.357700387697783,0.1020491321629255
12.902183999999998,6.380376237236904,0.1016431349223213
12.906788,6.400353783433081,0.1012638707891889
12.911372,6.415711972676873,0.1009371509297929
12.915956,6.431436716063103,0.1005910321092385
12.920552,6.448427448039416,0.1002182824078638
12.925148,6.465129669138811,0.0998173961972302
12.929744,6.479133586895262,0.0994412497965031
12.934344,6.489417582146976,0.0991016395221893
12.938932,6.499823762112835,0.0987555222973791
12.943528,6.503689531516868,0.0984751493178261
12.948116,6.507921855063339,0.0981720620885521
12.952708,6.518161708866424,0.0977913907158526
12.957296,6.527990867078445,0.0973898966486496
12.961887999999998,6.53487735251923,0.0970249137945236
12.96648,6.544051445711895,0.0966170270774839
12.971072,6.551671039437554,0.0962055953159416
12.975663999999998,6.554671276210829,0.095836185550588
12.980252,6.5580380671265415,0.095444181978372
12.984844,6.563570281079985,0.0950189045688247
12.989436,6.565626941956985,0.0946131312829725
12.994024,6.568460852567487,0.0942069727545441
12.998632,6.569984633139274,0.0937838566068224
13.00322,6.56905447979641,0.0933651811080999
13.007815999999998,6.566569826986541,0.0929461220287231
13.0124,6.558322013348349,0.0925852377560893
13.016988,6.54995201499601,0.0922313821224828
13.021591999999998,6.537984278853081,0.0919002543090675
13.02618,6.529081400195531,0.0915283453340559
13.030776,6.521977390433277,0.0911451574903736
13.035356,6.513074511775728,0.0907712720036815
13.039952,6.505071067565826,0.0903907618222132
13.04454,6.494002765870545,0.090050853258087
13.049132,6.479747421975736,0.0897560932230789
13.053719999999998,6.4694563700139565,0.0894165119376925
13.058308,6.459453828929096,0.0891073481537268
13.062888,6.456236067834353,0.0887303886015721
13.067484,6.453917741187258,0.0883465030921901
13.07208,6.451355045111873,0.0879762532748225
13.07668,6.447770729874693,0.087620323422972
13.081271999999998,6.447539782999813,0.0872573273833815
13.085864,6.4500071394678775,0.0868791408983882
13.090456,6.456727298745889,0.0864902988046468
13.095047999999998,6.462059284719671,0.0861328044547999
13.099636,6.467801966284518,0.0857997644740608
13.104232,6.478286189515895,0.0854256076013588
13.108823999999998,6.487260054728896,0.0850921329268827
13.113416,6.502652145789578,0.0847159322311417
13.118,6.516123183240818,0.0843586021039036
13.122588,6.527795351796764,0.0840136486701085
13.127184,6.548173353952267,0.083591493058192
13.131771999999998,6.571371844164859,0.0831522265498783
13.13636,6.595591953539244,0.0827036582565864
13.140968,6.624553604580161,0.0822181917591596
13.145556,6.649550963688049,0.081776414379895
13.150152,6.676958115261963,0.0812959906171667
13.15474,6.700156605474555,0.0808730482299825
13.159332,6.728218822067824,0.0804126722999276
13.163923999999998,6.7638430683847135,0.0799060387656102
13.168523999999998,6.797668445806307,0.0794102791646357
13.173127999999998,6.8309609429226885,0.078904056830083
13.177708,6.8638427444480055,0.078381167187182
13.182299999999998,6.895047861792173,0.0778655933317836
13.186888,6.934181563002398,0.0772849291071644
13.19148,6.97110569972626,0.076691180485751
13.196072,7.006353152268973,0.0761013532288686
13.200668,7.044132581991855,0.0754670865719695
13.205251999999998,7.076515405028851,0.0748569142043096
13.209844,7.109919847227639,0.074238674408336
13.21444,7.140625986083484,0.0736304502650124
13.219036,7.165568964111007,0.0730686856589081
13.223627999999998,7.18793582350973,0.072515610933577
13.228212,7.2133675403938335,0.0719409434123128
13.2328,7.2383885616868735,0.0713499464209501
13.237388,7.267496059627087,0.0707265627684129
13.241976,7.293905254224358,0.0701178802553083
13.246576,7.3199037532305615,0.0694883890407762
13.251164,7.337562972779644,0.0688973657205662
13.255764,7.344184609528661,0.0683534877992277
13.260355999999998,7.352849484601265,0.0677935065580127
13.264944,7.360492740512075,0.0672442802228289
13.269544,7.366337127527589,0.0667016415837394
13.274136,7.370382645647808,0.0661647056787363
13.278728,7.366621764616115,0.0656777662247436
13.283316,7.365314817499075,0.0651961554963603
13.287907999999998,7.367727792886773,0.0647020280313947
13.2925,7.371040202722118,0.0642087297640652
13.297092,7.3810152078334355,0.0636857744448166
13.301692,7.390868028230607,0.0631698601198027
13.306288,7.405340205580162,0.0626393345056354
13.310876,7.422755055700954,0.0620940066027993
13.315476,7.440047721107598,0.0615565546460631
13.320068,7.451577225685921,0.0610497699343655
13.324672,7.457876449741129,0.0605852874942294
13.329259999999998,7.45931194741566,0.0601474139131181
13.333868,7.461524694823693,0.0597151308426518
13.338444,7.46643574557467,0.0592801338460674
13.343044,7.479808260496916,0.0588165460998692
13.347624,7.498577382105048,0.0583439282934892
13.352224,7.514403830941945,0.0578876990551694
13.356815999999998,7.528064856741111,0.0574509640729571
13.361408,7.541770023988903,0.0570535956564907
13.365992,7.554986452380113,0.0566789118228195
13.370587999999998,7.572167172704352,0.0562823403303739
13.375176,7.588448458580943,0.055888530059258
13.37976,7.601909256400444,0.0555066080092103
13.384348,7.611527947001062,0.0551411472409797
13.388939999999998,7.615383476773356,0.0547999555851187
13.393528,7.620138440993299,0.054458847066801
13.39812,7.62579283966089,0.0541197225160362
13.40272,7.625561892786011,0.0538070659054939
13.407315999999998,7.624064957321047,0.0535117262980871
13.411896,7.623345271589584,0.0532204587453347
13.416484,7.626345508362858,0.0529197187979557
13.42108,7.631144614031429,0.0526174545708318
13.42566,7.63120217803347,0.0523287483663682
13.430248,7.628194884550129,0.0520591171677492
13.434843999999998,7.617136822486586,0.0518326874444933
13.439432,7.604402076241892,0.0516012256738273
13.444028,7.5924445797307,0.0513738679707921
13.448612,7.583551940704889,0.0511280742310388
13.453212,7.568607629973837,0.0508716033400733
13.457804,7.552353189204069,0.0505916789804925
13.462395999999998,7.530335587605979,0.0503289858669595
13.467,7.504475878789005,0.0500771105932594
13.471588,7.473508074163063,0.0498532986754867
13.476188,7.440374846499391,0.0496451117661045
