Time,Force,Position
6.215812,2.3086243353728797,0.1713236586700794
6.220399999999998,2.459149808768926,0.1685266232470768
6.224992,2.6123735855079167,0.1656173571316323
6.229572000000001,2.7585682128284974,0.1640238572612479
6.234168,2.910447957711885,0.1623589057891182
6.238755999999999,3.059995953394767,0.1610143313012309
6.243355999999999,3.206190580715349,0.1598161497440788
6.24794,3.349764947958504,0.1587563496745715
6.252531999999999,3.489042370943084,0.157899542390791
6.257124000000001,3.622179839325164,0.1572201885535583
6.26172,3.748888842227825,0.1566239066142435
6.266307999999999,3.868636499345855,0.1560816751299925
6.270900000000001,3.979379572355667,0.155610612608997
6.275487999999999,4.07613215016244,0.1553712453129324
6.280083999999999,4.169032381118592,0.1550316283222871
6.2846720000000005,4.256037026900534,0.1546890603622514
6.289263999999999,4.330116938089859,0.1545963043060466
6.293844,4.398179079390832,0.1544792450967637
6.298428000000001,4.464920851021351,0.1541206145447674
6.30302,4.523845983868221,0.1538023707875869
6.307607999999998,4.582394322940915,0.1533190060847017
6.312207999999998,4.64146530268708,0.1526711939757316
6.316787999999999,4.696439566154333,0.1519680953165632
6.321379999999998,4.745273875019086,0.1512475362656297
6.325963999999999,4.785880849509123,0.1505472492207704
6.330552000000001,4.8219023688636655,0.1498348669134714
6.335148,4.85730272501574,0.1489917516925749
6.339735999999999,4.889305571356886,0.1481574756057917
6.344324,4.918565972906461,0.1473336497740754
6.34892,4.948192928598473,0.1465002750015376
6.35352,4.976676080414546,0.1457220716529524
6.358111999999998,5.000706201441007,0.1450952121562856
6.362691999999999,5.025924267792036,0.1444915044819564
6.367287999999999,5.056949636420017,0.1438056718757261
6.371867999999999,5.088385700639064,0.1431562402267434
6.376463999999999,5.121376264325114,0.1425071669040178
6.381059999999998,5.155388447172959,0.1418260888112316
6.385652,5.1928761830972485,0.1410969589840743
6.390235999999998,5.231307494917815,0.1404195596874558
6.394828,5.270271687043592,0.139758067695691
6.399415999999999,5.305271587236341,0.1392017099892614
6.404011999999998,5.333120153296534,0.1388352828279983
6.408604,5.359702730766644,0.1385192255308612
6.413195999999999,5.391026849903284,0.138107036751568
6.417776,5.421984414897487,0.1377297813881877
6.422360000000001,5.454618664072839,0.137338737150821
6.426947999999999,5.48905178214349,0.1369300531249039
6.431528,5.522952019908927,0.1365125434047514
6.436119999999999,5.558240430978597,0.136051726890552
6.440708000000001,5.591074908133614,0.1356268886980252
6.445287999999998,5.616347355565012,0.1353368800301185
6.449876,5.641209107405344,0.135019750167797
6.454463999999998,5.66488291392111,0.1346863815377703
6.459056,5.686713710092952,0.1343330263888782
6.463647999999999,5.7009383350925456,0.1340654238275289
6.468239999999998,5.7066573544722425,0.1339002232781398
6.472832,5.714008916584461,0.1336653816940174
6.477419999999999,5.717596414743316,0.1334457172644357
6.482023999999999,5.720118152291748,0.1331994972035921
6.486615999999998,5.721451944515613,0.1329341122908093
6.491212000000001,5.720576172253118,0.13267118137989
6.495799999999999,5.720800062417933,0.1323233282713481
6.500399999999999,5.717914953648741,0.131992058525378
6.504975999999999,5.710899226783746,0.1317014933998047
6.509575999999999,5.698731262661153,0.131473418255969
6.514171999999999,5.682677049871049,0.1312659507639793
6.518771999999999,5.660326795947409,0.1311522031141461
6.532556,5.568292097622012,0.1311060555619432
6.537140000000001,5.539846030544499,0.1310120924723356
6.541740000000001,5.517163124295311,0.1308058504973684
6.546332,5.490760295541387,0.1306617703294981
6.550919999999998,5.462314228463874,0.1305616111568988
6.555508,5.443884125024634,0.130303619127392
6.560095999999998,5.432649497166577,0.129937156832683
6.564684,5.419371630984932,0.1296150846498135
6.569275999999999,5.402007288156114,0.1293823534471438
6.573851999999999,5.382599707003708,0.1291936367541434
6.578447999999998,5.364990994746598,0.1289768200184572
6.583036,5.353678323623023,0.1286673451914307
6.587627999999999,5.344697401699955,0.1283467877196507
6.592212,5.34176815148213,0.1279557593058815
6.596799999999998,5.343868953807756,0.1275184409138082
6.601412,5.353043047000419,0.1269883829496116
6.605999999999998,5.3641823352511535,0.1264763041326337
6.610588,5.381617664635422,0.1258789547834245
6.615179999999999,5.404493742154205,0.1252648316022843
6.619772000000001,5.431500437768792,0.1246165054469645
6.624364,5.468400912307504,0.1238323716318186
6.628944000000001,5.505956451865573,0.123073421925459
6.633551999999998,5.542123818119412,0.1223804549320886
6.638135999999999,5.584342856078494,0.1216230299772055
6.642735999999999,5.631714131295172,0.1208193115065761
6.647327999999998,5.677164352902409,0.1200690046780906
6.651927999999998,5.7241690739766495,0.1193295256793277
6.65652,5.776203847594339,0.1185613129354623
6.661107999999999,5.838010215422012,0.1176849940670611
6.665692,5.90214833245019,0.1168054555436839
6.670276000000001,5.966819329783579,0.115951775997298
6.674879999999998,6.027403850469794,0.1151864289100767
6.6794720000000005,6.087866186441863,0.114441331320268
6.684052000000001,6.145630219070989,0.1137393582255233
6.688635999999999,6.1987748947477295,0.1131027092185784
6.693231999999998,6.252941189586263,0.1124631101652015
6.697824000000001,6.308373473014884,0.1117956258133009
6.702407999999998,6.361107453100559,0.1111690166742415
6.707003999999998,6.409055750071076,0.1105659712259089
6.711596,6.45430574369865,0.1099923035377595
6.716183999999998,6.499555737326223,0.1094358560645546
6.720779999999998,6.541207993163205,0.1089227651943245
6.725368,6.578240892047802,0.108462869819562
6.729959999999998,6.61384147617954,0.1080032642784555
6.734548,6.646988126396626,0.1075602429450785
6.739135999999999,6.676414854108973,0.1071615275763202
6.743728000000001,6.702366028744877,0.1067929418196257
6.74832,6.7222655316755375,0.1064691976936385
6.75292,6.737134982062746,0.106175658096617
6.757511999999998,6.750816487125387,0.1058629169694449
6.7621,6.764331666025257,0.1055171765111822
6.766696,6.777313964619914,0.1051568747513452
6.771287999999998,6.788741763747566,0.1047993702581773
6.775883999999998,6.801557736179452,0.1044085047228923
6.780467999999999,6.817560750810861,0.103968118212509
6.785067999999999,6.828944408489886,0.1035745482017387
6.789643999999999,6.836730328378319,0.1032108632306065
6.794243999999999,6.841817944923809,0.1028689577086844
6.798832000000001,6.844862323145712,0.1025543630453579
6.803424,6.852115362728934,0.1021767148788861
6.808004,6.849474623388031,0.1018778694908066
6.812595999999999,6.846956068761274,0.1015720433129629
6.817191999999999,6.843904633829305,0.1012500998869049
6.821784000000001,6.841219753039773,0.1009078406155491
6.826371999999999,6.836980372783237,0.1005655217773075
6.8309560000000005,6.830164873897904,0.1002351306766287
6.835543999999999,6.8197516372219775,0.0999314256721635
6.840136000000001,6.812158888603141,0.0995989162979497
6.844728,6.806731563022038,0.0992317973741846
6.849315999999998,6.802203671888583,0.0988584012187056
6.8539080000000006,6.796287607450896,0.0985205590128788
6.858495999999999,6.79037154301321,0.0981819341676006
6.863088000000001,6.782534424966084,0.097862918073731
6.867676,6.770733014985928,0.0975912529913835
6.872264000000001,6.7563554863769735,0.0973315344073118
6.876860000000001,6.740423458301015,0.0970694213084052
6.881447999999999,6.7264124838344985,0.0967862976729552
6.8860600000000005,6.715099812710926,0.096483204429804
6.890647999999999,6.707629248806235,0.0961393238433959
6.895223999999999,6.69721601213031,0.0958294633396058
6.899832,6.696041489359154,0.0954417744671053
6.904423999999999,6.693845347426205,0.0950671569344831
6.909027999999999,6.701010104112172,0.0946129443025423
6.913616000000001,6.704743449170321,0.0942189899327356
6.918208,6.707332990352531,0.0938440349458616
6.922795999999998,6.716462942096566,0.0934131826048181
6.927395999999998,6.7294350010594846,0.0929426856872028
6.931984,6.740608191127108,0.0924854044296594
6.936579999999999,6.745529481509824,0.0921122367479081
6.9411640000000006,6.747385914407159,0.0917777387618667
6.94576,6.750263966466288,0.0914313191312373
6.950347999999998,6.755185256849004,0.0910600397271799
6.954940000000001,6.7620276008411615,0.0906698517026394
6.959544000000001,6.769891563995112,0.0902659217052329
6.96414,6.778288407454276,0.0898777411892146
6.968727999999999,6.790282988704028,0.089466759909328
6.973323999999998,6.800478701058486,0.089066897979397
6.977912,6.808997729231794,0.0886720618666767
6.982499999999998,6.819437811014543,0.0882629374738356
6.987088,6.829633523368999,0.0878683573834652
6.991688,6.83418825960928,0.0875215303240068
6.996275999999998,6.840664049459002,0.0871579049349999
7.000855999999999,6.83651295209972,0.0868939891855407
7.005455999999999,6.83350565861638,0.0866103061136801
7.01004,6.837160960409012,0.0862721405669324
7.014635999999999,6.840694077487497,0.0859441599858875
7.019224000000001,6.847458378214137,0.0856192253065609
7.023812,6.855899363121926,0.0852920380675043
7.028403999999998,6.8730461816292765,0.0848899534108613
7.032992,6.893912922641363,0.0844630686630433
7.037596000000001,6.913758044491655,0.08404951660724
7.042192,6.937323088846684,0.0836176298942378
7.046779999999998,6.964608055706451,0.0831664259071247
7.051387999999999,6.992303718157283,0.0827367518537151
7.055983999999999,7.02102099976991,0.0822985894785917
7.060579999999998,7.050759900544328,0.0818542400055477
7.065168,7.0888380807758695,0.0813661475134196
7.069759999999999,7.129614564350354,0.0808690929835554
7.0743480000000005,7.167448375153604,0.0804019393793855
7.078952000000001,7.206425989832793,0.0799206008220566
7.083528000000001,7.247202473407277,0.0794314027389664
7.088128000000001,7.28605790337232,0.07895854276629
7.09272,7.329532690289748,0.078457650884953
7.097315999999999,7.378648453321355,0.0779271229000239
7.101907999999998,7.42302267468643,0.0774364579052887
7.1065000000000005,7.463799158260914,0.0769648762881586
7.111096,7.503265511796687,0.076482979271534
7.115691999999999,7.539911377275369,0.0760183090228472
7.120283999999998,7.570261201620518,0.0755829708853493
7.124883999999998,7.600078145660454,0.0751370241995707
7.129472,7.628873470538598,0.0747007503355237
7.134056000000001,7.649207331245472,0.0743147633025381
7.138648,7.663000781390522,0.0739650969498267
7.143243999999999,7.679448393429887,0.0735690502292193
7.147835999999998,7.691276648516865,0.0731939861455491
7.152424,7.704126522765639,0.0728138139351229
7.157015999999999,7.707493313681351,0.0724895922824214
7.1616040000000005,7.711104474025355,0.0721558641620685
7.166195999999999,7.71406056935,0.0718133351904135
7.170776,7.715339980493496,0.0714710311457249
7.175363999999998,7.716863761065285,0.0711174695430933
7.1799800000000005,7.718509726351218,0.0707575804908966
7.184567999999999,7.718845561598439,0.0703801429350785
7.189171999999999,7.71186373655033,0.0700304527346434
7.193760000000001,7.703738107626283,0.0696945166570168
7.198343999999999,7.692791990645147,0.0693701529907124
7.202943999999999,7.675061093673893,0.069085480305665
7.207532,7.66039505418802,0.068775155762061
7.212128,7.647405698883297,0.0684646883906553
7.216704,7.63147367080734,0.0681723187906756
7.221304,7.617951435197406,0.0678457205024502
7.225895999999999,7.609292925968147,0.0674887407455282
7.230495999999999,7.602555470348331,0.0671196973902638
7.23508,7.590954288347838,0.0667789634569147
7.23968,7.585771332195026,0.066416411689587
7.244260000000001,7.572781976890303,0.0660997033234761
7.248856,7.564778532680401,0.0657483670149198
7.253451999999999,7.553055165965762,0.065411101490234
7.258047999999999,7.542231233698772,0.065071161662156
7.262651999999999,7.5371704622601055,0.0647035943215606
7.267243999999998,7.535052363592674,0.0643205250522472
7.271832,7.535999122410623,0.0639158914519418
7.276427999999999,7.537723130962074,0.0635153699848501
7.281016000000001,7.544188681180056,0.0630952358643569
7.285608,7.551142970254621,0.0626520848356761
7.290195999999998,7.564759854605157,0.0621809493268768
7.294788,7.587204757269398,0.0616624618447
7.299384,7.60797297575249,0.0611435929344832
7.303971999999998,7.626942325340285,0.0606278085056811
7.308568000000001,7.646811109375728,0.0601099799334929
7.313144000000001,7.66529172010694,0.0596185800746772
7.317723999999998,7.684427395857509,0.0591405787571643
7.322316000000001,7.704462506055727,0.0586619842727764
7.326895999999998,7.729239157920475,0.0581671472404786
7.331503999999999,7.752461310318218,0.0576680589215222
7.336084,7.781690992972576,0.057132853374695
7.340671999999998,7.805279699512758,0.0566165509941451
7.345268000000001,7.831444524681737,0.0561037289413704
7.349855999999999,7.856465545974775,0.0556040591110741
7.354447999999998,7.869715876182875,0.0551610865553436
7.359036,7.8778581105820065,0.0547521340951091
7.3636279999999985,7.883834921943405,0.0543634961461089
7.368216,7.889811733304805,0.0539756857916055
7.372803999999999,7.89194643744732,0.0536026621139274
7.377388,7.891016284104456,0.0532466113106719
7.381983999999999,7.884445154647413,0.0529058439308213
7.386572000000001,7.869823256610169,0.0526082631527032
7.391164,7.853935369982839,0.0523262896872507
7.395751999999998,7.837925298641363,0.0520482044002779
7.40034,7.823836280909329,0.0517631722084913
7.404927999999998,7.805250090939056,0.0514786059364511
