Time,Force,Position
6.677479999999999,2.7459345833067723,0.1937028043750734
6.682063999999999,2.919410994565448,0.1883104402091714
6.68666,3.095908121860876,0.1834950189181116
6.691247999999998,3.2669203595731613,0.179386451838989
6.695848,3.431504131806027,0.1758645131128757
6.700427999999999,3.588227123806616,0.172801896736132
6.705027999999999,3.727439926079092,0.1705068955597578
6.709615999999999,3.852529808802645,0.1684676048125548
6.714215999999999,3.960598240654667,0.1669027780123529
6.718799999999998,4.050789928636139,0.1658291791032836
6.723391999999999,4.132221401937684,0.164855301767224
6.728,4.20415955227443,0.164052904859472
6.732591999999999,4.261085588246344,0.16359268798092
6.737188,4.309784289843542,0.16321505311676
6.741779999999999,4.354875014018408,0.1627370002344748
6.746355999999999,4.390838969370912,0.1623363162149552
6.750951999999998,4.416410167310965,0.1620447039652656
6.755539999999998,4.436207964790957,0.1617322944515267
6.760127999999998,4.453707914887332,0.1613034977955626
6.764719999999999,4.460981433734033,0.1610297741131744
6.769307999999999,4.472086820167877,0.1604330050695329
6.773899999999999,4.475908448123282,0.1598980582259424
6.778487999999999,4.467338221791279,0.1595936600024094
6.783079999999998,4.456636474238434,0.1592304318129159
6.787659999999999,4.438983620532697,0.1590191863074906
6.792247999999999,4.419898452074099,0.1588133854803806
6.796843999999998,4.403755956386736,0.1585191635908987
6.801431999999998,4.391621894081029,0.1581618496259468
6.806035999999999,4.386194568499924,0.1576768112160974
6.810631999999998,4.3916826410047385,0.1569193174070543
6.815219999999998,4.397459224386472,0.1562022785316403
6.819823999999999,4.405811926397003,0.1554359719835519
6.824411999999999,4.422015169008073,0.1545009837097194
6.829019999999998,4.437363118620125,0.1536610284410552
6.833599999999999,4.45095634078551,0.1529360687100244
6.838199999999999,4.461895401056578,0.1523352981289839
6.842779999999999,4.476965079423452,0.1516629915864104
6.847375999999999,4.492445453381389,0.1510265281820442
6.851959999999998,4.511279195701626,0.1503435383501759
6.856559999999998,4.541150520821928,0.1494051815530599
6.861144,4.565425011276682,0.1486952484945358
6.865739999999999,4.593707935113092,0.1479452759482995
6.870335999999998,4.63098520342598,0.1470206279787346
6.874931999999999,4.667940059045058,0.1461943032590975
6.879527999999999,4.713112009407115,0.1451904536910466
6.884127999999999,4.759061209502672,0.1441916303294645
6.888719999999999,4.812205885179413,0.1430717753570068
6.893319999999999,4.865106191427863,0.141993156101027
6.897899999999998,4.917884312962167,0.1409528511379932
6.902483999999999,4.962978220058705,0.14011174796018
6.907063999999998,5.008849376888746,0.1392687654932271
6.911655999999999,5.055742152880579,0.1384173149982715
6.916251999999998,5.100958244691262,0.1376089132909267
6.920831999999999,5.145152717340153,0.136828605682596
6.925424,5.186771071360245,0.1360820555908502
6.930003999999999,5.235296390084602,0.1351838179688348
6.934591999999999,5.284843327970751,0.1342698953151821
6.939188,5.331691962513957,0.1334059565910665
6.943771999999999,5.370323502314187,0.1326906830448995
6.948359999999999,5.400371393229003,0.1321658794617071
6.952955999999999,5.430663653572112,0.1316244793918402
6.957543999999999,5.459767968590652,0.1310753979418214
6.962147999999999,5.477179635789771,0.1307176202930897
6.96674,5.497734203739789,0.1302284010951948
6.971343999999998,5.51697864165109,0.1297409878746558
6.975919999999999,5.535812383971329,0.1292346527851805
6.980519999999999,5.546018335957527,0.12884023977363
6.985099999999999,5.555691407638512,0.1284342600358234
6.989699999999999,5.562910545404846,0.1280519936389348
6.994292,5.572172921494766,0.1276240661615434
6.998887999999999,5.578859178955888,0.1272249953196807
7.003471999999999,5.58080389475048,0.1269100424526818
7.008068,5.579928122487983,0.1266434926060538
7.012656,5.582483761853302,0.1262854345763467
7.017251999999999,5.588226443418149,0.1258527707261256
7.021839999999999,5.585385476097582,0.125570205932496
7.026432,5.583688312652956,0.1252593553628742
7.031019999999998,5.585178191407853,0.1248768299028754
7.035603999999999,5.595129534334021,0.1243583697837938
7.040191999999999,5.611088407516802,0.1237260031622882
7.044783999999998,5.624471162070785,0.1231203208885333
7.049375999999999,5.6340118094058855,0.1225820193676252
7.053963999999999,5.649848497874521,0.1219549507253848
7.058563999999999,5.659555471372394,0.1214558509114434
7.063139999999999,5.665542522365532,0.1210162653459615
7.067732,5.670385769482732,0.1206080300992419
7.072327999999999,5.681525057733465,0.1201222248386442
7.076911999999998,5.691764911536549,0.1196503135671454
7.081508,5.700738776749549,0.1192160323227694
7.086099999999998,5.710612076410198,0.1187724034302332
7.090703999999999,5.728047405794467,0.1182198499143378
7.095295999999999,5.751612450149497,0.1175549083001431
7.099895999999999,5.775299679218673,0.1168797738513129
7.104491999999999,5.795022616354821,0.1162797088480357
7.109083999999999,5.812580130453235,0.1157287854760327
7.113679999999999,5.838721293437063,0.1150517283985901
7.118267999999999,5.864085206687388,0.1143875246414356
7.122867999999999,5.88536264329054,0.1138000053967202
7.127447999999999,5.9049633957125405,0.1132342499517364
7.132047999999999,5.92096641034395,0.1127147036417642
7.136635999999999,5.941833151356036,0.112126277550239
7.141235999999999,5.967074879892216,0.1115013360305461
7.145819999999999,5.9946042161802735,0.1108332604922599
7.150415999999998,6.025076225239567,0.1101175257655626
7.155007999999999,6.054526615137067,0.1094175645691343
7.159599999999999,6.081156516977478,0.1087511301642561
7.164199999999999,6.101001638827771,0.1081858961638952
7.168799999999999,6.120846760678064,0.1076229759786374
7.173387999999999,6.142979490280235,0.1070105905452902
7.177983999999999,6.166256023758345,0.106379225149143
7.182575999999999,6.182092712226982,0.1058416899293385
7.187159999999999,6.191022435991354,0.1054076497951595
7.191747999999999,6.202772647812817,0.1049418987105811
7.196339999999999,6.218242782139016,0.1044375243489577
7.200931999999998,6.237677208398243,0.103879626793729
7.205535999999999,6.253391712152733,0.1033706158678728
7.210127999999999,6.264242489526548,0.1029255751889028
7.21472,6.280079177995184,0.1024114453994346
7.21932,6.292728824264294,0.1019540173626613
7.223903999999999,6.307832404448056,0.1014927067986131
7.2285119999999985,6.31807225825114,0.1010951366254374
7.2330999999999985,6.325980362853719,0.1007002135352876
7.237687999999999,6.330945794685063,0.1003455798401635
7.242279999999999,6.337954464839995,0.0999634252971447
7.246872,6.348683057499662,0.0995460052310628
7.25146,6.3630093879499245,0.0990989304203165
7.256043999999999,6.381177825619067,0.0986069576197619
7.260635999999998,6.402166751345298,0.0980911366899777
7.265231999999999,6.423810742090886,0.0975881078236092
7.269819999999999,6.442267690636948,0.0971375835529944
7.274419999999999,6.46048026975472,0.0966992338885963
7.279003999999999,6.48151333692958,0.0962310539680219
7.283599999999998,6.502668588818585,0.0957612824767351
7.288183999999999,6.517405614859911,0.0953468368538582
7.292783999999999,6.52919996813,0.0949705150903495
7.297367999999999,6.539972702238297,0.0946096825546607
7.301963999999998,6.55560916272727,0.0941948273971446
7.306551999999998,6.567403515997361,0.0938230139014972
7.311147999999999,6.58148547701933,0.0934102702487398
7.315735999999999,6.58710597387003,0.0930748439299951
7.320331999999999,6.594403154901881,0.0927333400037751
7.324919999999999,6.603499204829027,0.0923816001467552
7.329503999999998,6.613250319775531,0.092039401132776
7.334095999999999,6.619814392522509,0.0917456803950979
7.338691999999998,6.626378465269485,0.0914545582160247
7.343279999999998,6.63523014576834,0.0911258782106301
7.347855999999998,6.645225630143135,0.0907798258806847
7.352451999999999,6.652034072318402,0.0904811139733973
7.357035999999999,6.657288015026666,0.0901812360170607
7.361628,6.665851184648601,0.0898310904110475
7.366216,6.67964463479365,0.089413659610221
7.370799999999999,6.694337519386347,0.0889923753173203
7.3753959999999985,6.705188296760162,0.0886075062029902
7.379987999999999,6.721435680819863,0.0881903217897272
7.384575999999999,6.738949053469649,0.0877496233065144
7.389168,6.756584610833581,0.087303337907102
7.393768,6.774097983483367,0.0868685340953544
7.398371999999998,6.79365459445674,0.0864116390509246
7.4029479999999985,6.811167967106526,0.0859798500873515
7.407551999999999,6.837387173355872,0.0854680184437559
7.412139999999999,6.867570671538246,0.0849215441322791
7.416739999999999,6.895833116111179,0.0843959785779168
7.421327999999999,6.919720573160016,0.083886081075
7.425923999999998,6.947816691570175,0.0833269937779317
7.430515999999999,6.973092321923245,0.0827913667268913
7.435111999999998,6.996324713952728,0.0822842005008308
7.439696,7.01649224849683,0.081812617969884
7.4442879999999985,7.038292325773452,0.0812994732357662
7.448884,7.062912891107164,0.0807719339240983
7.453475999999998,7.084712968383787,0.0802671869481091
7.4580639999999985,7.105247057070327,0.0797922329455319
7.462655999999999,7.126025515185156,0.0793074764423612
7.467243999999999,7.152689318842454,0.0787773913196183
7.471827999999999,7.180496926375693,0.0782368052756082
7.476407999999999,7.208060164480641,0.0777131161991032
7.480999999999998,7.236645021747383,0.0771825764519393
7.485595999999999,7.260732706775886,0.0766712995232591
7.490183999999999,7.283920957356739,0.076166643342995
7.494775999999998,7.310296250137119,0.0756297505417541
7.499363999999998,7.335117043450494,0.0750934545056661
7.503959999999999,7.355440664525632,0.0745780523805623
7.508551999999998,7.373065982257826,0.0740716653396538
7.513131999999999,7.397476079980136,0.073519790720264
7.517739999999998,7.418943504931212,0.072993995186991
7.522323999999999,7.440777484024724,0.0724503320119372
7.526911999999999,7.456315421984702,0.0719256726582305
7.531499999999999,7.473363717963056,0.0713683374448182
7.536091999999998,7.488246590903677,0.0708371540270791
7.540695999999999,7.498510106891913,0.0703286824514239
7.545275999999999,7.511716295651384,0.069802313709856
7.549875999999999,7.524389604105643,0.0692644098925157
7.554463999999999,7.5355084130929,0.0687215898483096
7.559059999999999,7.5389430076423904,0.0682239188936153
7.563643999999998,7.538002614667788,0.0677339428734356
7.568243999999998,7.534363918350242,0.0672509005042146
7.572827999999999,7.526105865080311,0.0667840256210764
7.577423999999999,7.519646680705675,0.0663104668713171
7.582015999999999,7.511388627435743,0.0658405011758535
7.586607999999998,7.50096515112808,0.0653937902908624
7.591207999999998,7.489397870944475,0.0649613499687511
7.595807999999998,7.478074960189162,0.0645159648097688
7.600383999999998,7.467529299167353,0.0640718564255038
7.604971999999998,7.455962018983749,0.0636379161754688
7.609559999999998,7.444883477656729,0.063180455538317
7.614155999999999,7.43458218606321,0.062726424218821
7.618743999999999,7.43159855476502,0.0622505199565087
7.623339999999999,7.427471119590891,0.0617879207726738
7.627931999999999,7.422322065254969,0.0613313784829467
7.632519999999999,7.41897187981434,0.0608708373076893
7.637111999999998,7.414233521069484,0.0604370600908447
7.641699999999998,7.4063081201251,0.060030630010089
7.646291999999999,7.397649610895841,0.0596580572716875
7.650887999999998,7.393610458618968,0.0592712933478834
7.655472,7.391125805809101,0.0588927548385406
7.660067999999999,7.39068439132282,0.0584994108056084
7.66466,7.393962899341275,0.0580936501629364
7.669248,7.399939710702673,0.057685230500793
7.673843999999999,7.408492640692871,0.0572793250727379
7.678431999999999,7.418067189844862,0.0568679338047321
7.683027999999998,7.4264979351209135,0.0564695350176795
7.6876159999999985,7.434195572112092,0.0561056023253169
7.692212,7.445735316322152,0.0557267693926624
7.6967919999999985,7.455109637494478,0.0553690914190286
7.7013919999999985,7.463873035096077,0.0550411995833754
7.705976,7.474068747450533,0.0547300903354064
7.710576,7.484142275090846,0.0544270586398811
7.715159999999999,7.497569171093458,0.054133734102069
7.719759999999999,7.513161490133803,0.0538223663754442
7.724352,7.526466201422269,0.0535348601211823
8.110052,1.845402027681729,0.0534757047388982
