Time,Force,Position
8.768639999999998,2.5137299821201986,0.1624377936852571
8.773228,2.6578711314854537,0.1607611440899329
8.777819999999998,2.7937849464759945,0.1597268785378199
8.782399999999999,2.925557903738994,0.1583667169594806
8.786999999999999,3.0510245802367195,0.1570409792649517
8.791576,3.1667094228927253,0.1558381678563208
8.796175999999999,3.2741227897253884,0.1547063894347403
8.800767999999998,3.370199823249328,0.1537648107400152
8.805364,3.459804249845219,0.1526589761018715
8.809956,3.5424473306564805,0.1515685106403047
8.814543999999998,3.6171074465213175,0.1504834121179374
8.819132,3.684561847173233,0.1494082169242367
8.823723999999999,3.739413925926341,0.1484893278362107
8.828316000000001,3.784850724980165,0.1475670011859667
8.832908,3.822793297944149,0.1465633443313903
8.837495999999998,3.8459239845229622,0.145706821340521
8.842088,3.8624259776426944,0.1449213833840129
8.846675999999999,3.873531364076538,0.1442844444279277
8.851268000000001,3.8777297858061193,0.143879684181114
8.85586,3.8818060228215545,0.1434922135683815
8.86044,3.886781694284638,0.1430813728935485
8.86504,3.896865461556689,0.1424818947923684
8.869627999999999,3.901430437428707,0.1420375201516363
8.874220000000001,3.90444091383372,0.1416132880618456
8.878808,3.903975837162288,0.1412647801439049
8.883395999999998,3.906575617976237,0.1408092959321136
8.887999999999998,3.90316786853357,0.1405550585662312
8.892588,3.896817446319668,0.1403949344602813
8.906355999999999,3.8638300655552897,0.1403762053723734
8.910947999999998,3.852615916960712,0.1403625588315067
8.915536,3.8449995061567246,0.1402628924659661
8.920131999999999,3.840858648429183,0.1400921077146251
8.924707999999999,3.8382722901686464,0.1399071565743863
8.929307999999999,3.8386727461279735,0.1397063712463642
8.933896,3.841527136001952,0.1394743480884987
8.938496,3.845447286486352,0.1392799750907657
8.943088,3.855785662818433,0.1389279075454831
8.947683999999999,3.869843961655252,0.1384923704646434
8.952275999999998,3.887133444140224,0.1380235728764376
8.956872,3.9102302289021487,0.1374934901482512
8.961459999999999,3.933859893969284,0.1369734814562275
8.966059999999999,3.957900254627484,0.1364879283940925
8.970651999999998,3.9863156028097775,0.1359233547792465
8.975244,4.013875657993053,0.1354564959236645
8.979831999999998,4.046710135148069,0.1348809633940702
8.98442,4.084819034274826,0.1342022728605126
8.989007999999998,4.129346159249264,0.1333857266444522
8.9936,4.176860098443565,0.1325627612041995
8.998196,4.224251852923721,0.131761997762463
9.002787999999999,4.268578749918495,0.1310645305121855
9.007379999999998,4.311639658323186,0.1304314752619937
9.011968,4.35175789395664,0.1298923022116076
9.016552,4.391387390733514,0.129410265504288
9.021144,4.43228287610047,0.1288811398535316
9.025731999999998,4.469580623676837,0.1284311131533263
9.030324,4.513008086223964,0.1278215602197624
9.034911999999998,4.553737245428148,0.127270329737756
9.039511999999998,4.5885810590898615,0.1268731800417905
9.044107999999998,4.621215308265213,0.1264879549138656
9.048696,4.641013105745205,0.1263470098424931
9.0533,4.665141749300662,0.1260781739046749
9.057887999999998,4.689881316426847,0.1257565203207832
9.062492,4.713965818533676,0.1254362877942795
9.067072,4.738006179191877,0.1250573493481485
9.071659999999998,4.760614225097218,0.1246774693351383
9.076248,4.781789956249701,0.1243004682253812
9.080848,4.797813450144588,0.1239942257396303
9.085444,4.809950695371965,0.1237061148037643
9.090044,4.822332310027633,0.1233991725586951
9.094628,4.8323821754827945,0.1230995516125704
9.099224,4.842143530061036,0.1227617371906644
9.103811999999998,4.850594754600565,0.1224099889765001
9.108404,4.857980218529673,0.1220242014009392
9.113004,4.863688998277631,0.1216581364814669
9.1176,4.8697643321680255,0.1212610370550865
9.122187999999998,4.8695436249248845,0.1209631709153742
9.126776,4.870344536843536,0.1206422037813402
9.131363999999998,4.86946876458104,0.1203351331721872
9.135944,4.865772504261454,0.1200788884011498
9.140539999999998,4.87065989282728,0.1196556940167419
9.145132,4.874525662231314,0.119261971899143
9.149728,4.876103823883469,0.1189369575329088
9.154315999999998,4.874739312764389,0.1186732461824954
9.158908,4.871209378607576,0.1184670631269167
9.163488,4.86972268277435,0.1182148191615224
9.168076,4.866969998351039,0.1180067730199261
9.172684,4.867037801984818,0.1177505730835521
9.177272,4.870703343409187,0.1174440289828234
9.181867999999998,4.872447831224116,0.1171733195638236
9.186456,4.876768437667844,0.1168732370922247
9.191048,4.880844674683279,0.1165943034678028
9.195643999999998,4.8865975958798655,0.1163013345061897
9.200232,4.893005582095807,0.1160177854467429
9.204828,4.9010902524928985,0.1157218454810799
9.209408,4.908930553461699,0.1154470612167257
9.214008,4.920490776935237,0.1151168941879012
9.2186,4.931273750675272,0.1147903970792743
9.223192,4.948064254671923,0.1143439301007363
9.22778,4.968696865887456,0.1138322133572405
9.232371999999998,4.985609554598252,0.1133812991056675
9.236956,4.997003451909016,0.1130089320314491
9.241544,5.01068495697166,0.1125743442898038
9.24614,5.024488646748447,0.1121279627139793
9.250732,5.0376372715058775,0.111670629190746
9.255308,5.052584765158606,0.1111995417010997
9.259892,5.066222128772621,0.1107100762402981
9.26448,5.077816254063047,0.1102666371682153
9.269071999999998,5.089410379353475,0.1098286744772741
9.273656,5.102681188825051,0.109378856574717
9.278244,5.120038474943802,0.1088532089233253
9.282828,5.141115683567289,0.1082821917305898
9.287416,5.162847957210135,0.1077250342190346
9.292008,5.182903546671829,0.1071807142558429
9.296592,5.200383017504724,0.1066605500329762
9.30118,5.21990572666121,0.1061055862545618
9.305772,5.234442524722872,0.1056405301639823
9.31036,5.250900376393974,0.1051504105857077
9.314948,5.267358228065079,0.1046702346278455
9.319551999999998,5.281772841412594,0.1042308057024527
9.32414,5.296065270045964,0.1037988685155355
9.328732,5.316653739812869,0.1033005604401586
9.333312,5.336098405703837,0.1028329079055921
9.337908,5.357464125204243,0.1023388648530381
9.342492,5.38729130887592,0.1017455146260381
9.347088,5.40967864753812,0.1012446095869001
9.351679999999998,5.440160896229152,0.100673822231678
9.356264,5.469743710472536,0.1001116165623862
9.360844,5.49764984053477,0.0995636109114744
9.36544,5.526044709453586,0.0989853823106929
9.370027999999998,5.549942406134165,0.0984572213907182
9.37462,5.571263984185944,0.0979529950747371
9.379207999999998,5.591397616913157,0.0974262283329289
9.383796,5.613574487963956,0.0968693071772
9.388384,5.636650793462403,0.096305234206992
9.392979999999998,5.654985557294318,0.0957975724170877
9.397564,5.674952863858757,0.0952291781304495
9.402148,5.69618615901328,0.0946376395449227
9.40674,5.71190066276777,0.0941019093270924
9.41132,5.727981720664697,0.0935427300100501
9.415896,5.749537428513029,0.0928874093823174
9.420483999999998,5.768106322141498,0.0922244087873261
9.425068,5.792027681007227,0.0914802756362506
9.429655999999998,5.815416159567743,0.0907232606320076
9.434252,5.828544305061698,0.0900693005954864
9.438848,5.847557796098122,0.0893441607196302
9.443452,5.856799692924565,0.0886866407477618
9.44804,5.867307578341093,0.0879991498943914
9.452644,5.877160398738265,0.0873029146891909
9.457224,5.886235969401932,0.0866083678522605
9.461824,5.899031462570338,0.085887400980953
9.466411999999998,5.907574152928796,0.0851782801324452
9.471004,5.914073604963668,0.0844960504803672
9.475592,5.918774188103244,0.0838267578736323
9.480192,5.923841325385257,0.0831353360833636
9.484783999999998,5.932994939314443,0.0823898600598771
9.48938,5.9420263685294845,0.0816522842799104
9.493968,5.945172452202057,0.0809795697356362
9.498559999999998,5.949095785608129,0.0803050926735049
9.503156,5.9501986309571135,0.0796521903833366
9.507756,5.94337289244004,0.0790882003547459
9.512348,5.938878903123474,0.0785340028945124
9.516948,5.928133014122,0.078065940948634
9.521536,5.919308178729969,0.0775818957762435
9.52612,5.914325450556819,0.0770615629777269
9.530711999999998,5.903701746269491,0.0765821901866876
9.535304,5.894754726163314,0.0760974703818069
9.539896,5.887728759666578,0.0755976371723726
9.544484,5.879436804579758,0.0751231450549882
9.54908,5.871799914512293,0.0746604521266091
9.553656,5.857256059740567,0.074264077067045
9.558232,5.845821203902847,0.0738796054309048
9.562828,5.837206836122218,0.0734744654433561
9.567415999999998,5.830146967808593,0.0730766733120395
9.572024,5.823986533942615,0.0726755681329517
9.576612,5.816804480914844,0.0722863192858026
9.581215999999998,5.812320731230017,0.071886868683842
9.585808,5.81257852321172,0.0714544080811106
9.590404,5.81655623769816,0.0710010944762123
9.595016,5.827973797194074,0.0705086251931336
9.5996,5.847852820861256,0.0699668234690827
9.604195999999998,5.865932975633142,0.069435394271509
9.608784,5.88425749983332,0.0688886389615343
9.613392,5.898128993243886,0.0684078788021309
9.61798,5.913799355549748,0.0679248837650591
9.622576,5.9329452709320565,0.0674356824905571
9.627156,5.955811108819101,0.0669298780376668
9.63176,5.975734273934911,0.06645107538283
9.636344,6.000398980717252,0.065946889059659
9.640936,6.021343764994858,0.0654610260388367
9.645523999999998,6.047396645081428,0.0649244837749896
9.650119999999998,6.074715513758084,0.0643664106218105
9.654716,6.10125713270124,0.0638084781877627
9.659312,6.128409675215122,0.0632200780501828
9.663899999999998,6.155317848300712,0.0626515387601096
9.668492,6.184924324729247,0.062082725739363
9.67308,6.2109330633671895,0.0615258792132517
9.677675999999998,6.235142933109837,0.0609780454051995
9.682251999999998,6.258575553118982,0.0604303592512356
9.686844,6.273546708956859,0.0599231093057982
9.69144,6.282099638947058,0.0594390407083441
9.696027999999998,6.2880764503084565,0.0589519581584961
9.700623999999998,6.291354958326911,0.0584668547071342
9.705203999999998,6.295610944058531,0.0579237852114111
9.709796,6.293326519228327,0.0574032774356401
9.714379999999998,6.288465975769324,0.0568780084459674
9.718968,6.277065021748494,0.0563740445786471
9.723564,6.264764633280017,0.0558689935960801
9.72814,6.245024399802066,0.0553858955365416
9.73274,6.225406351038259,0.0548909299240206
9.73734,6.201701825627279,0.0544265706970986
9.741927999999998,6.174399562425709,0.0539634256874134
9.746531999999998,6.14198920341517,0.0535364166299753
9.751108,6.102183140843784,0.0531761192228294
9.755707999999998,6.053793429386985,0.0528488617312327
9.760296,5.995920634597125,0.0525557534257484
9.764892,5.939602339274271,0.052271002989832
9.769479999999998,5.875599829513649,0.0520166765282413
9.774079999999998,5.804035290029409,0.0517849823336968
