Time,Force,Position
14.74326,2.503979822625511,0.1652128703919308
14.747856,2.6375177469669167,0.163515696005726
14.752443999999995,2.7627061522194616,0.1619757806065917
14.75704,2.882321384991607,0.1601004841977823
14.761623999999998,2.99113316476024,0.1586860009759841
14.766208,3.087342622630063,0.1575905065882864
14.770795999999995,3.167884901115697,0.1569755840344598
14.775375999999998,3.2418765294077665,0.1563867500987666
14.77996,3.3085402577727683,0.1558451841760171
14.78454,3.367221021191346,0.155295459926326
14.789123999999996,3.419184808253585,0.1546266559947905
14.793716,3.4670077375882835,0.1538053063039498
14.798292,3.5015732800048163,0.1531526809695982
14.802888,3.5231258049314755,0.152636378298107
14.807475999999998,3.538083538215941,0.1520264810226619
14.812071999999995,3.53953951515395,0.1515819757774537
14.816668,3.5354767006919268,0.1513089621958841
14.821264,3.5293706479063163,0.1511179486323662
14.82586,3.5242862142824998,0.1508846729816094
14.830451999999998,3.5201012151063296,0.1506249917812362
14.835044,3.510397424530128,0.150535165566709
14.839623999999995,3.5020818072581568,0.1503572245626791
14.84422,3.4987521010810068,0.1499898560432495
14.848807999999998,3.4999195671420966,0.1495005436695799
14.853407999999998,3.4994103490220367,0.149043900750535
14.857988,3.50159943424492,0.148508008324558
14.862579999999998,3.5106954841720666,0.1477161649244775
14.867168,3.519136469079857,0.1469282247201427
14.871751999999995,3.5229580970352616,0.1462787231448309
14.876327999999996,3.5289451480284,0.1455406799710054
14.880916,3.536198187611623,0.1447382762580523
14.885503999999996,3.5380546205089582,0.1440827596159084
14.8901,3.542853726177529,0.1433209108397888
14.894688,3.5487185924565208,0.1425984575556488
14.899264,3.553317470145428,0.1419578497030555
14.903855999999998,3.562046965930138,0.1412551656475911
14.908435999999998,3.5760508836865887,0.1404271989503234
14.913027999999995,3.5922643659294007,0.1395797544208788
14.91762,3.608111294029776,0.138783680054998
14.922203999999995,3.622325679397629,0.1381014040564152
14.926803999999995,3.64079286757543,0.1373247800802183
14.931392,3.659670751344296,0.1365892456711959
14.935983999999998,3.674462158465989,0.1360157058079236
14.940576,3.6823466008834167,0.1356730414659011
14.945163999999998,3.6944838461107934,0.1352513536809284
14.949768,3.706743276052316,0.1348158913976843
14.954359999999998,3.716060033222603,0.1344810787624166
14.958955999999995,3.725010236250453,0.1341917821470375
14.963531999999995,3.7411559148594864,0.1337366112055112
14.968131999999995,3.758367354078941,0.1333367132680674
14.972707999999995,3.77292463140408,0.1330748174200406
14.977307999999995,3.793044841577881,0.1327551277257701
14.9819,3.8152524315238967,0.132450030553914
14.986496,3.84310099758409,0.1320122053459124
14.991083999999995,3.8675181520164665,0.1317135580976371
14.995676,3.890014252839402,0.1314778598490184
15.000267999999998,3.912265984234046,0.1312745641186715
15.004859999999995,3.935539334790483,0.131038859445155
15.009443999999998,3.9607337389563617,0.1307593146306547
15.014035999999995,3.9891151853217663,0.1303776307543157
15.018624,4.021338738906054,0.1299123243821362
15.023219999999998,4.056504965261577,0.1293817399146956
15.0278,4.090893941883596,0.1288522545664371
15.032387999999996,4.132844948229237,0.1281494784884841
15.03698,4.171975466517788,0.1275194371175403
15.041559999999995,4.215480972330432,0.1268329601602839
15.046152,4.261562596771874,0.1261193980459205
15.050735999999995,4.309687459536905,0.1253616967642531
15.055324,4.354214584511342,0.1246885815504161
15.059919999999998,4.391546233904598,0.1241385493232146
15.064508,4.43566266328797,0.1234407953748443
15.069104,4.477447343470836,0.1227657927536624
15.0737,4.515756470577258,0.1221431516589428
15.078287999999995,4.549079686588857,0.1216570154413362
15.08288,4.584690510352334,0.121090972978253
15.08746,4.620301334115811,0.1205341524990014
15.092047999999998,4.657955396202875,0.1199392166883975
15.096628,4.698674315775319,0.1192808438635125
15.101219999999998,4.7406592239378496,0.1185967106278291
15.105804,4.779945828757436,0.1179635281283377
15.110399999999998,4.81256983830105,0.1174627726723349
15.114976,4.842373359787574,0.1170220756891475
15.119571999999998,4.875896803778836,0.1165227629374789
15.12416,4.907743563588947,0.1160552177787392
15.128752,4.941633561722647,0.1155454856085783
15.133339999999995,4.971148572332251,0.1150965451406062
15.137928,4.998986898760707,0.1146684213968539
15.142512,5.024126921846219,0.1142814004909472
15.147112,5.047712445464725,0.1138992428591345
15.151704,5.076650434320492,0.1133857491370202
15.156295999999998,5.097615697861573,0.1129742774860881
15.160888,5.120868569154533,0.1125076034444289
15.165467999999995,5.148207917094667,0.1119603998547772
15.170051999999998,5.173704254690877,0.111377844478406
15.174636,5.19686884308658,0.1108001945476385
15.179223999999998,5.217579497567632,0.1102394212120578
15.183827999999998,5.233137914791088,0.1097305222197097
15.188403999999998,5.243421910042801,0.1092815494022988
15.192992,5.2480649291803365,0.1089188225012498
15.197588,5.2558949905173975,0.1084901213358328
15.202179999999998,5.26932188652001,0.1079270389383714
15.206775999999998,5.277596545265025,0.1074033502903937
15.21136,5.279697347590652,0.1069426405498592
15.21596,5.277545347106332,0.1065158672843046
15.220547999999996,5.27318378213565,0.1060827530820995
15.225144,5.267512087126256,0.105630841771667
15.229731999999998,5.259386458202208,0.1051893703109439
15.234327999999998,5.249828514525302,0.1047380704324135
15.238923999999995,5.240392755562543,0.1042757872827154
15.243516,5.2296910080096985,0.1038516208441912
15.248103999999998,5.223852986837531,0.1033498242441124
15.252696,5.212496174265328,0.1029146434973975
15.257284,5.194066070826089,0.102543962617123
15.261879999999998,5.174736532939203,0.1021792286344812
15.266468,5.156550798928256,0.1017832003390748
15.271051999999996,5.137954369326243,0.1013556845896468
15.275627999999998,5.119357939724232,0.1009250540263983
15.280223999999995,5.101660944569868,0.1004823244087686
15.284816,5.084330503557939,0.100007839208841
15.289407999999998,5.062014151451189,0.0996170465589503
15.293999999999995,5.032913019354322,0.0993245293455973
15.298588,5.01149610169522,0.098917972142081
15.303183999999998,4.9969861487403815,0.098398794958218
15.307764,4.981210207195459,0.0979131308447997
15.312351999999995,4.964412646488743,0.0974424700380674
15.316948,4.951090638858471,0.0969447821822376
15.321535999999998,4.939811869551788,0.0964084433573178
15.326124,4.928288730816813,0.0958876711555782
15.33072,4.919586080138926,0.0953321386032862
15.335303999999995,4.911905048622835,0.0947595000915648
15.3399,4.901281344335507,0.0942309901059271
15.344479999999995,4.892456508943475,0.0936826655175782
15.349079999999995,4.889927714684978,0.0930749575899776
15.353668,4.89357277684587,0.0924228499708706
15.358263999999998,4.897628534597828,0.0918008061411584
15.362848,4.904793291283795,0.0911873205058585
15.367439999999998,4.913756916865057,0.0905577426348014
15.372031999999995,4.92439722662747,0.0899239813757703
15.376616,4.935692601409238,0.0892997386631938
15.381207999999996,4.9462107264575055,0.0886681938623903
15.3858,4.960082219868072,0.0880211668328048
15.390392,4.9707666710791125,0.0874420419909082
15.394983999999996,4.977897525948189,0.0869563357766912
15.399572,4.988992672750293,0.0864129895460637
15.404168,5.004340622362347,0.0858562221772139
15.408744,5.015724280041372,0.0853574862671044
15.413335999999996,5.026619198863815,0.0848979896060463
15.417931999999997,5.042255659352788,0.0843891985960673
15.422507999999995,5.055848881518175,0.0839166510497421
15.427104,5.069564288397706,0.0834395123768181
15.43168,5.085078564172534,0.0829519541624983
15.436276,5.10455713188039,0.0824184683568471
15.440872,5.123913514874099,0.0819018372856505
15.445459999999995,5.135830052858335,0.0814514819625849
15.450059999999995,5.14889039471851,0.0809797999871542
15.454652,5.159130248521596,0.0805358868186119
15.459239999999998,5.169247917610536,0.0801022007176518
15.463832,5.180753760003706,0.0796328763387486
15.468419999999998,5.195080090453966,0.0791414148373909
15.473015999999998,5.21516958173255,0.0785951907398744
15.477604,5.236280692172928,0.0780376600100987
15.4822,5.257391802613304,0.0774820371513507
15.486787999999995,5.275926794424883,0.0769300548973611
15.491387999999995,5.294339601522318,0.0763919815395754
15.495971999999998,5.308255236381513,0.0758810336777764
15.500567999999998,5.3240919248501495,0.0753508088877909
15.505152,5.33837411385178,0.0748123810355969
15.509747999999998,5.35163468369162,0.0742947872658074
15.514343999999998,5.362319134902659,0.0737810761980502
15.518939999999995,5.37108253250426,0.0732868540767058
15.523536,5.378824310944065,0.072807664521772
15.528136,5.380314189698964,0.0724145363055523
15.532728,5.380127384272712,0.0720234124953076
15.537319999999998,5.384926489941282,0.071576699255898
15.541908,5.391891018647585,0.0711018997951799
15.546495999999998,5.399222101496325,0.0706014572555223
15.551084,5.407696988221006,0.0700828883298697
15.55568,5.409264910241421,0.0696307314346391
15.560264,5.409156148080688,0.0691798328944579
15.56484,5.407248517024658,0.068739629449691
15.56944,5.406729059272859,0.0682665312502242
15.574016,5.4054323517875575,0.0677882048468539
15.578604,5.410920424292374,0.0672574951876119
15.583208,5.413588008740101,0.0667439693525028
15.587795999999996,5.417155027635475,0.0662254943411238
15.592392,5.420844231244997,0.0656997990043313
15.59698,5.4310738454163445,0.0651426055277314
15.601568,5.436684102635306,0.0646074610726455
15.606164,5.447813151254301,0.0640499275004788
15.610756,5.461640503216239,0.0634873726857083
15.61536,5.476611659054115,0.0629094351153641
15.61994,5.497590345148609,0.0622782723888688
15.624536,5.521267334586046,0.061646871181629
15.629123999999996,5.544577769881045,0.061044344789306
15.633723999999996,5.56355735910058,0.0605016411653497
15.638312,5.584213632501264,0.0599652179891335
15.642907999999998,5.607568209244891,0.0594308011948797
15.647503999999998,5.638240446283849,0.0588729117694629
15.652096,5.666747260285073,0.0583424458464246
15.656679999999998,5.691944847372623,0.057857201974047
15.661275999999996,5.718574749213034,0.0574002929525265
15.66586,5.749168942986473,0.0569203510984652
15.670455999999998,5.775021595093381,0.0564688122029748
15.675031999999998,5.802795300809731,0.0560077171968921
15.679627999999996,5.833511679297315,0.0555314014148375
15.684216,5.866026926680195,0.0550571841544375
15.688812,5.891879578787104,0.0546187141617254
15.693403999999996,5.919653284503453,0.0541699405681838
15.697996,5.940642210229685,0.0537587089417917
15.702588,5.956767409575242,0.0533747237360466
15.707164,5.971748805044857,0.0530085476953475
15.711759999999998,5.983665343029094,0.052669645707974
15.716348,5.987897666575565,0.0523657249853373
15.720935999999998,5.990331121226738,0.0520636980465996
15.725531999999998,5.98838958835382,0.0517547176153422
15.730116,5.9864480554809,0.0514469304562159
15.734707999999998,5.976944492884361,0.0511657345124003
15.7393,5.961922138887791,0.050894811152027
15.7439,5.947799219338866,0.0506218952967385
15.748492,5.933798484504088,0.0503398825851131
15.753079999999995,5.909293047174455,0.0500987025147681
15.757676,5.877391906283977,0.0499259145879115
15.762263999999998,5.84512421125106,0.0497736812503093
15.766863999999998,5.810568908466266,0.0496507081008612
15.771452,5.7701282601390025,0.0495576336020671
