Time,Force,Position
16.885883999999997,2.781837970878295,0.1497108216389824
16.890464,2.9125215053457225,0.1496061878063333
16.895063999999998,3.038941997371462,0.1491461462062912
16.899648,3.155869166432404,0.1488640427426431
16.90424,3.267756043318155,0.1484042511516068
16.908831999999997,3.366507717999887,0.1480867952182197
16.913424,3.4587867857535715,0.1476074117728095
16.918016,3.53642029328486,0.1474129842812782
16.922600000000003,3.606070835869725,0.1471732340372165
16.927188,3.665695175184579,0.1469614830355403
16.931772000000002,3.7175809189813007,0.1466639300309483
16.936363999999998,3.7589075792028006,0.146383780273672
16.940959999999997,3.789797340563225,0.1461031426158421
16.945552,3.811804702529577,0.1458077541451452
16.950139999999998,3.823252980920708,0.1455287020734379
16.954732,3.8209551335370913,0.145389213901875
16.959311999999997,3.820900752456724,0.1450733605558156
16.963904,3.8252213589004502,0.1446556142855748
16.968491999999998,3.8263549231446503,0.1443635258533621
16.973080000000003,3.8252008796369736,0.144172958005723
16.977676000000002,3.83034287726283,0.143814541714672
16.982264,3.8304989637938656,0.1436323595424167
16.986852,3.829999985305544,0.1434462123604673
16.991444,3.828190876778509,0.1432492213370674
16.99604,3.8251157796613895,0.1431181592836094
17.000636,3.824494616458922,0.142947671344818
17.005232,3.8208085957710742,0.1428860006438701
17.014404,3.81229275051944,0.1428133934189362
17.023592,3.801200786639007,0.1427948889485547
17.028188,3.797392581237014,0.1427469579640377
17.032772,3.795505429444462,0.1426400456054934
17.037363999999997,3.793129538795327,0.1425891660649045
17.041952000000002,3.792185962899051,0.1425356933480944
17.046548,3.797782797564601,0.1422997911012287
17.051136,3.802602382496649,0.1420767684350047
17.055728000000002,3.804845848799899,0.141905061946738
17.060316,3.811464302627243,0.1416416816089087
17.0649,3.820414505655093,0.1413540152003285
17.069488,3.8330846311876807,0.1409751249666395
17.074088000000003,3.846409821739624,0.1405964691769632
17.078676,3.859368458149132,0.1402622650129061
17.083256,3.8759248323492304,0.1398503656504648
17.087848,3.889127838187029,0.1394943463186054
17.092436,3.901797963719616,0.1391207110420563
17.097032,3.917288577309293,0.1386744486045028
17.101619999999997,3.934700244508412,0.1381786580822055
17.106208000000002,3.953910780602825,0.1376362682328919
17.110816,3.976841239201976,0.1370133463740006
17.115403999999998,4.009376965848333,0.1361478339747218
17.120012000000003,4.040768888618752,0.1353404321726458
17.1246,4.073837495570321,0.1345245992677088
17.129204,4.1063732222166776,0.1336847209166055
17.1338,4.139275503005472,0.1328144953218176
17.138388,4.167436242127737,0.1320742184433028
17.14298,4.192776493192912,0.1314070071497477
17.147571999999997,4.220159982581674,0.1306825358855564
17.152164,4.244845168627492,0.1300196055934346
17.156751999999997,4.271817962425189,0.1292822962940794
17.161344,4.294171399270501,0.1286538553718506
17.165923999999997,4.322776735800719,0.1278515960449197
17.170516,4.34994975757808,0.1270479360730068
17.1751,4.375978975479501,0.1262997896925708
17.179696,4.403807062276217,0.125515461794773
17.184288000000002,4.43229021409229,0.1247431255757694
17.188884,4.45999611617486,0.1239859602461923
17.19348,4.483982095752694,0.1233055466509648
17.198064000000002,4.508212444758819,0.1226016621633548
17.202652,4.527212513241831,0.1220533060135677
17.207248,4.533786825620547,0.1217810241846345
17.211832,4.538562269103968,0.1215394717027965
17.216424000000004,4.540761593958589,0.1213342997183943
17.221012,4.548479710213243,0.1210314435874824
17.225608,4.555953457039607,0.1207532617444508
17.230204,4.5652260727612655,0.1204458372201066
17.234792,4.577974241559371,0.1200937139166797
17.239384,4.591910355682043,0.1197731205180723
17.243972,4.60878914257595,0.1193924200713121
17.248576,4.622847441412769,0.1190692497092565
17.253163999999998,4.643446150811413,0.1186370931768582
17.257752000000004,4.658814579686944,0.1183433997120434
17.262355999999997,4.675859692743625,0.1180354753439127
17.266939999999998,4.69224974078095,0.1177234184269706
17.271527999999996,4.715302384094247,0.117302629814489
17.276124000000003,4.74064263515942,0.1168243309658431
17.280720000000002,4.764839082348656,0.1163813236048217
17.285324000000003,4.792755452042629,0.1158803611546465
17.289915999999998,4.82181562561254,0.1153514975482214
17.29452,4.853529961076768,0.114728246190989
17.299100000000003,4.893172880407053,0.1139445681085319
17.3037,4.9339596036132765,0.1131278281028701
17.308276,4.973724707657706,0.1123341714116651
17.31288,5.007315955282746,0.111625824034701
17.317464,5.041518126478516,0.1108755816341207
17.322063999999997,5.074410167635573,0.1101117869823964
17.326656,5.105092644306267,0.1093519603068107
17.331252,5.1339321106330384,0.1085649369215264
17.335839999999997,5.1585187741498615,0.1078196445555531
17.340435999999997,5.178730450142592,0.1071123395961248
17.345039999999997,5.188926162497049,0.1065388893382555
17.349632,5.198056114241085,0.1059268544648422
17.354219999999998,5.205875935946408,0.1052989118777077
17.358815999999997,5.207521901232341,0.1047314627763501
17.3634,5.197353033984707,0.1043132586896433
17.367987999999997,5.180765940889392,0.1039766609309111
17.372568,5.164012521631305,0.103589783533477
17.377160000000003,5.144394472867496,0.1031830632492034
17.381756000000003,5.121300871027247,0.1028043006083737
17.386344,5.094731716110549,0.1024520430674887
17.390936000000004,5.063543204241466,0.1021557376207679
17.395516,5.033087800657257,0.1017958822539565
17.400108000000003,5.002099516767838,0.1014137270362547
17.404704000000002,4.972377221468504,0.1009878697625762
17.409292,4.938935003664434,0.100604753442543
17.413888,4.906636589736301,0.1001872393860217
17.418476,4.868697199693991,0.0998413297162748
17.423063999999997,4.827815136880445,0.0995379164854624
17.427667999999997,4.786810889352754,0.0992400273483655
17.432256000000002,4.754390290710477,0.0988143429896301
17.436852000000002,4.726711233734729,0.0983186455021055
17.44144,4.698665622616546,0.097848160177019
17.446039999999996,4.671030707089426,0.0974053478088346
17.450632,4.65059126714349,0.0968857269487073
17.455224,4.634526814721648,0.0963243892304547
17.459804,4.6260243920234245,0.0956585803224443
17.464404000000002,4.618054849630413,0.0950128364452462
17.468992,4.613971555904911,0.0943745930814462
17.473588,4.617083737760592,0.0936712982178615
17.478164,4.62816864493096,0.0929097750773862
17.48276,4.642074040158416,0.0921152208902719
17.487360000000002,4.65295871934912,0.0914344832147365
17.491943999999997,4.668096201349771,0.090737254651556
17.496536,4.684177259246699,0.0900948708747659
17.50112,4.704266750525282,0.0894527733058293
17.505708,4.725299817700143,0.0888689471909637
17.5103,4.757492652389215,0.0881689129282758
17.514892000000003,4.7977803971071165,0.0874117346642186
17.51948,4.8452636174062,0.0866096323483947
17.524071999999997,4.888293806915675,0.0859162508455911
17.528652,4.934432995359156,0.0852437843835983
17.533231999999998,4.98584660577438,0.0845461829389825
17.537824,5.040202888960839,0.0838200231652548
17.542412,5.096235856328447,0.0831075051924437
17.546999999999997,5.156521626506003,0.082389009788501
17.551592,5.214031050075099,0.0817714035510408
17.556179999999998,5.273872222844702,0.0811707287024582
17.560783999999998,5.331670157290716,0.0806087541996379
17.565371999999996,5.386281049537207,0.0801140060742889
17.569975999999997,5.435906030688874,0.0796944742156966
17.574564000000002,5.487862761041047,0.0792944795407151
17.579164,5.545704836935689,0.0788313293774387
17.583744000000003,5.6054679664397735,0.0783648028682496
17.588344,5.667518703695737,0.0778623834513739
17.592923999999996,5.729691625665845,0.0773582008904969
17.597524,5.79505158983548,0.0768184375029685
17.602116000000002,5.853382404586706,0.0763705259231163
17.606707999999998,5.905172808776106,0.0759793858291261
17.611296000000003,5.950300617689534,0.0756495329816114
17.615887999999998,5.999759272678427,0.0752622744565792
17.620492,6.048152167056898,0.074847425141847
17.625087999999998,6.095112746682511,0.074427116253927
17.62968,6.138475588517532,0.0740282565747662
17.634272000000003,6.178362877276108,0.0736435856721239
17.638852,6.217062220710115,0.0732371697583642
17.643444000000002,6.250975881028964,0.0728148647710912
17.648035999999998,6.279737304090219,0.0724005927787087
17.65262,6.305389728217464,0.0719714768201361
17.657212,6.3287104031442025,0.0715329844400536
17.6618,6.345857221651552,0.0711085294890554
17.666392000000002,6.355031314844216,0.0707085544097772
17.67098,6.360074789941078,0.0703069158001306
17.675572000000003,6.356001735847316,0.0699465156191714
17.680168000000002,6.346654259781812,0.0695984323867618
17.684756,6.331255112011064,0.0692567043024848
17.689352,6.304041131706748,0.0689616660387563
17.693939999999998,6.2802585630302525,0.0686128205446469
17.698544,6.253122625991454,0.0682585260432313
17.703136,6.2229998747327935,0.0678760392880241
17.707735999999997,6.183638409569362,0.0675354451285998
17.712331999999996,6.137369979701668,0.0672489401988566
17.716924,6.085460573719796,0.066991369379064
17.721528,6.030975049109125,0.0667300835213179
17.726115999999998,5.977755513088541,0.0664381310005326
17.730711999999997,5.91991662011557,0.0661613040600541
17.735292,5.862977161590248,0.0658766468368412
17.739888,5.807303691655012,0.065561134721403
17.744480000000003,5.756371763386304,0.0652114412757417
17.74908,5.703885335650593,0.0648455234203113
17.753659999999996,5.653564330952615,0.0644452423288288
17.758256000000003,5.610927540692401,0.0639902847183449
17.762847999999998,5.568945815451545,0.0635440334053344
17.767443999999998,5.52888514382013,0.0630789507239938
17.772039999999997,5.493321644426954,0.0625990447021021
17.77664,5.4642985555956045,0.0620843800712865
17.781232000000003,5.446435234278467,0.0615174939534365
17.785823999999998,5.422686567418858,0.0609908098371897
17.790412000000003,5.4053561264069305,0.0604393636075264
17.795004,5.394854606833749,0.0598938885948702
17.799591999999997,5.393347431737046,0.0593286098031708
17.804192,5.396703983021019,0.0587270656664191
17.808784000000003,5.403780456809729,0.0581076292119618
17.813375999999998,5.419729090360772,0.0574828759677561
17.817968,5.430325258674556,0.05691943917622
17.822547999999998,5.444274795350639,0.0563650982414199
17.82714,5.462599319550816,0.0558116446935216
