Time,Force,Position
11.474364,3.541694905714864,0.1485665782877668
11.478952,3.622770064505709,0.1484655955166998
11.483548,3.693897063292061,0.1483052993798329
11.48814,3.754953717359774,0.1480581580191737
11.492719999999998,3.808760514765937,0.1476565296767837
11.497320000000002,3.856094705244052,0.1471290055854935
11.5019,3.8933585510035287,0.1465489368421062
11.547820000000002,3.722481920558801,0.1464923225948871
11.55242,3.7051278173617233,0.1464801492289585
11.566199999999998,3.65556358313377,0.1464712091688348
11.589168,3.611484238488959,0.146451103269852
11.593764,3.609519043430889,0.1464338545812081
11.59836,3.610296293164391,0.1464252400342373
11.602964,3.6281627974032022,0.1459903175251455
11.607556,3.649793365595379,0.1455295196488391
11.612144,3.6763318016168607,0.1449794402672396
11.616732,3.708144659610083,0.1443138393604636
11.62132,3.7460091893085488,0.1435414098973281
11.625916,3.78428441459808,0.1428031788184612
11.630504000000002,3.82452483494568,0.1421012594795995
11.635096,3.8682408083697264,0.1413405587067377
11.639692,3.912489662098984,0.1406096642475392
11.644280000000002,3.9585373847235377,0.1398608948965199
11.648864,4.005773052672658,0.1391592934171792
11.653452,4.057750262288309,0.1383175726956402
11.658044,4.106784799132725,0.1375727918868061
11.66264,4.150056175148817,0.1369975639952489
11.667228,4.203221330089035,0.1362195217550877
11.671836,4.258185353924549,0.1354275372103463
11.676424,4.312372128026562,0.1346526745119994
11.681012,4.365004402661568,0.133891625680766
11.685607999999998,4.414938373953632,0.1332024806298492
11.690196,4.469858256340519,0.1323753924654431
11.6948,4.509121198974955,0.1319103779670651
11.699392,4.548095630732471,0.131414666875006
11.703996,4.589724224384303,0.1308160139779722
11.708576,4.630453383588486,0.1302533445838875
11.713176,4.662432567744482,0.1298403274040114
11.717768,4.69490049075706,0.1293838147779936
11.722364,4.723482165102128,0.1289566465861432
11.726952,4.750753709408484,0.1285287160168944
11.731556,4.777858927552065,0.128056654329009
11.73614,4.801855146761638,0.1276114996154578
11.740736000000002,4.818489564227253,0.1272354053149095
11.745328,4.833936036368301,0.1268388028749418
11.749924,4.851015051241872,0.1263646020130004
11.75452,4.8689493591144615,0.1258119814219763
11.759108,4.875557573310067,0.1254235394917903
11.763696,4.880977842181104,0.125017304667322
11.768284,4.883044742689841,0.1246455195135381
11.772872,4.883801513159867,0.1242584883475539
11.77746,4.885291391914764,0.1238098144207588
11.782052,4.8817512181262135,0.1234154070523656
11.786652,4.885484563184362,0.1228340285448825
11.791244,4.887663408775508,0.1222630739171893
11.795836,4.884445647680765,0.121777296763534
11.800424,4.876320018756719,0.1213310737145555
11.805004,4.872403051193991,0.1207769479814103
11.809596,4.871018060811433,0.1201385982886649
11.814191999999998,4.869877439857167,0.1194780485953038
11.81878,4.864239646664661,0.1188822255077248
11.823392000000002,4.857458049596217,0.1183209289824013
11.827976,4.845568356718805,0.1178722010646606
11.832572,4.838053651365486,0.117365058644581
11.837156,4.832337814907463,0.1168334323073825
11.841743999999998,4.825600359287646,0.1163256925889794
11.846348,4.820661772563126,0.1157928965438787
11.850924,4.822385781114577,0.1151395179469065
11.855524,4.817980074695266,0.1146212907032649
11.860112,4.81602830219061,0.114083696798128
11.864708,4.8188180713524815,0.1134654065577883
11.869296,4.818665167743119,0.1129049034684902
11.873895999999998,4.8213327521908464,0.112297710060339
11.87848,4.8232672283537,0.1117555056958805
11.883072,4.822914096764675,0.1112766635628024
11.887664,4.824359834070946,0.1107730636920633
11.892256,4.827360070844221,0.1102633698339832
11.896856,4.828439254008054,0.1097890627623954
11.901447999999998,4.824288156648773,0.1094353282213752
11.906036,4.821813743470644,0.1090691802338641
11.910620000000002,4.821915448921311,0.1086776083158197
11.915204,4.8190744816007465,0.1083387793685355
11.919804,4.824162098146236,0.1078458874973446
11.924392,4.828594649672369,0.1073441237920558
11.928968,4.830983962874916,0.106888412213271
11.93356,4.8314522224680205,0.1064640941483522
11.93814,4.8316761126328345,0.1060623817093165
11.942732,4.826914091702825,0.1057549285569766
11.947316,4.829303404905372,0.1053010584395744
11.951892,4.832181456964502,0.1048073802973038
11.956500000000002,4.829829228500518,0.1044283177614224
11.961092,4.832629237294131,0.1040087968494489
11.965696,4.835062691945304,0.1036215837285297
11.97028,4.835819462415329,0.1032448385899235
11.974868,4.83976327508488,0.1027977952499177
11.979472,4.848326444706816,0.1022978495577676
11.984048,4.85664524490046,0.1018160071733811
11.988644,4.864353121523377,0.1013822579340523
11.993232,4.875658735936884,0.100909872987469
11.997828000000002,4.887741600083893,0.1004426213724499
12.002416,4.900723898678551,0.0999683803322802
12.007016,4.921390411710974,0.0993841848477781
12.0116,4.941568185886814,0.0988499236775539
12.016192,4.96689819732025,0.0982897745706657
12.020784,4.992883273773042,0.0977423314615343
12.025376,5.023365522464075,0.0971552524630156
12.029964,5.05348121701267,0.0966000465205805
12.034555999999998,5.088871333533006,0.0960031236435345
12.039144,5.121729472873172,0.0954897621771648
12.043728000000002,5.158063165289785,0.0949634709383705
12.048316,5.198483334353571,0.0943694201521319
12.052908,5.234406331179118,0.0938221466735065
12.057492,5.272372566328252,0.0932499903959901
12.062080000000002,5.315080343143916,0.0926289388879036
12.066672,5.35922043471244,0.0920302699044764
12.07126,5.395554127129055,0.0915409413021238
12.075848,5.438672599535784,0.0909753707708077
12.080432000000002,5.487554232770837,0.090347537928645
12.085007999999998,5.534636997110596,0.0897390780030115
12.089604,5.57763328480318,0.0891934826909477
12.094196,5.620507387781618,0.0886617172757206
12.098783999999998,5.658762133807672,0.0881844068565534
12.103388,5.696483999528515,0.0876979741171946
12.10798,5.728687073849324,0.0872649446466794
12.112576,5.760479452579069,0.0868084809164605
12.117160000000002,5.78957352796587,0.0863759556730284
12.121760000000002,5.8174796580281045,0.0859162954536804
12.126348,5.843298408318124,0.0854395253429016
12.130944,5.870505331912373,0.0849294925803196
12.135532,5.893215083268384,0.0844542502837654
12.140132,5.914125965729098,0.083994595432571
12.144716,5.933482348722807,0.0835280866977467
12.149308,5.946298321154691,0.0831170739429867
12.153904,5.956660359671923,0.0827122164756668
12.158496,5.962891780093352,0.08231200158379
12.163084,5.973454046590247,0.0818429132423558
12.167676,5.97682083750596,0.0814196198968226
12.172256,5.972459272535278,0.0810193240784769
12.176848,5.969730250297117,0.0805687233884741
12.181436,5.971698628276859,0.0800300584323482
12.186036,5.973256310665536,0.0794670877450189
12.190624,5.972892939444772,0.0789200563891909
12.195208,5.96688859210983,0.0784149799727433
12.199804,5.961250798917323,0.0778855420774125
12.204384,5.951770898505934,0.0773868353785845
12.208976,5.941635933075191,0.0768763650528882
12.213564000000002,5.931500967644447,0.0763642732419527
12.218148,5.9201000136236175,0.075878703592914
12.222756,5.905101321812197,0.0754095920730549
12.227340000000002,5.888059391677188,0.0749614783082476
12.231936,5.869096407932739,0.0745276328916671
12.236528,5.852831727531234,0.0740788343639498
12.241124,5.843351827119845,0.0735692860378594
12.245724,5.832728122832518,0.0730796599807455
12.250324,5.824680537173988,0.0725851094369215
12.254916,5.816388582087167,0.0721072195362096
12.259496,5.808751692019703,0.0716388137068433
12.264088,5.808188092819276,0.0711490140796304
12.268672,5.804193081991031,0.0707155196929214
12.273268000000002,5.79701102896326,0.0703235221884562
12.27786,5.7926494639925785,0.0699158634210967
12.282456,5.790208952631339,0.0694932500665988
12.287048,5.7917327332031245,0.0690332608157342
12.29164,5.795954817117857,0.0685657065861926
12.296248,5.805817877146768,0.0680644546943414
12.300844,5.819933739985625,0.067567229086406
12.305432,5.8394462095103705,0.067058563049263
12.310032,5.863822405415792,0.0665191800004526
12.314623999999998,5.891796339111805,0.0659724315656047
12.319216,5.927576671959728,0.0653736167419804
12.3238,5.971041219245417,0.064734419564332
12.328384,6.018225689035843,0.0640872928214284
12.332972000000002,6.063366920502682,0.06346885541553
12.337564,6.108508151969521,0.0628542546074256
12.342156,6.154671002598154,0.062238038399237
12.346732,6.199034984331492,0.0616298091508975
12.351316,6.248018323017214,0.0610106912054142
12.355900000000002,6.292504489464697,0.0604094818244956
12.360475999999998,6.341077132559354,0.0597768619912512
12.36508,6.3924702637111,0.0591375997430104
12.369668,6.436834245444438,0.0585546795785491
12.374256,6.483241465501363,0.0579614656456214
12.378848,6.531081000311146,0.0573917367201818
12.383436,6.58084158873037,0.0568233417212406
12.388027999999998,6.630602177149594,0.056263473380719
12.392616,6.674311093863575,0.055703764530836
12.397204,6.710702350282227,0.0551655751711403
12.401784,6.740431011424906,0.0546586929134871
12.40638,6.765295946186911,0.0541777729799906
12.410976000000002,6.7854193392823845,0.0537211179912158
12.41556,6.793116976273562,0.0533151294724384
12.420144,6.797216875474148,0.0529155460113835
12.424736,6.795920167988848,0.0525186164343443
12.42934,6.792824591608251,0.052122251322452
12.433936,6.784088039113476,0.0517414015151039
12.438512,6.772408813847465,0.0513724704364086
12.4431,6.750713624943182,0.0510137711811699
12.447688,6.721989286620491,0.0506930998706434
12.452280000000002,6.682638061088799,0.0504130873966951
12.456864,6.637401490014637,0.050159896952212
12.46146,6.59150985392112,0.0498898308958784
12.466044,6.53781181867569,0.0496526791766136
12.47062,6.476796123134932,0.0494220448106857
12.475212,6.404498475365817,0.0492169463290398
12.479796,6.323617178711292,0.0490370858579209
12.484384,6.24057045901903,0.0488722438212514
12.488980000000002,6.154458881841389,0.0487243462271971
12.493564,6.068225119949602,0.048579415782338
12.498152,5.979048685286581,0.0484476229930739
12.502756000000002,5.88002261314806,0.048366185762202
12.507352,5.784838648228424,0.0482655780944473
