Time,Force,Position
11.431472,1.8144686889265655,0.1703809347893019
11.436072,1.8824969284106476,0.169867803915761
11.440652,1.9384557263011315,0.1696624783161919
11.445252,1.9878638739980503,0.1693500975588423
11.449835999999998,2.0337862289867847,0.1687701214818275
11.454428,2.0729916076191803,0.1681096888706139
11.45902,2.107034509362241,0.1672827280160534
11.463615999999998,2.140412106454207,0.1659814563781022
11.468211999999998,2.1687935528196114,0.1647434813116575
11.472811999999998,2.1938555326396054,0.1633686923264396
11.477404,2.205337712847625,0.162480012583176
11.481996,2.207737265681911,0.1618172909079211
11.486584,2.211314524209025,0.1607737650537219
11.49118,2.2073636548294084,0.1599079972003722
11.495767999999998,2.193064169485972,0.1593761297577437
11.500363999999998,2.182773117524192,0.1587245587348126
11.504956,2.1775562595544904,0.1580082390369533
11.509532,2.180356268348102,0.1570548093570043
11.514128,2.187042525809225,0.1560047550375803
11.518715999999998,2.201457139156741,0.1546512116121611
11.523308,2.2137504709151528,0.1535782721239534
11.527895999999998,2.222534347780229,0.1529462212942055
11.532484,2.243421568055793,0.1518289348779127
11.53708,2.270893340341812,0.1505165848974908
11.541667999999998,2.296243831038725,0.1494966510943305
11.54626,2.3216826046328958,0.1487289186254726
11.550852,2.3487200191426973,0.1480801980173181
11.55544,2.3736361520633955,0.1477209214933985
11.560036,2.396919742251572,0.1475593762917379
11.564612,2.4218800166208974,0.1473671103702116
11.569204,2.4550573857332,0.1468263311061339
11.573784,2.494120100387972,0.1460048161357643
11.578384,2.528563458090359,0.1453869302647144
11.582976,2.5660716732781266,0.1445861084202915
11.587571999999998,2.605134387932899,0.1437494212973378
11.592164,2.6391670500442213,0.1430680469353404
11.59676,2.672011766830976,0.1423744804965149
11.601364,2.702891288559661,0.1417073589872507
11.60596,2.7313168763736946,0.1411024537433843
11.610556,2.756633465253719,0.1405820216448577
11.615151999999998,2.781905912685115,0.1399364402452957
11.61974,2.807622957524466,0.1391051236624008
11.62434,2.825856015905714,0.1384762081331283
11.628927999999998,2.837504522276508,0.1379942466654845
11.63352,2.8491088871986734,0.1374026267959951
11.638108,2.8610356648146484,0.136648660604765
11.642699999999998,2.8693205631914034,0.1359108526682713
11.647292,2.873841397614793,0.1351934245691387
11.651875999999998,2.874475983370672,0.1345253541829232
11.656472,2.869058897421307,0.1340248621426408
11.661051999999998,2.862576050861521,0.1334724440638386
11.665636,2.854294335406439,0.1329788862744686
11.670224,2.847400793255587,0.1323809941032187
11.674812,2.837931132475938,0.1318434391111654
11.67942,2.826496276638219,0.1312732159106746
11.684003999999998,2.8201695166094685,0.130476714221465
11.688596,2.8120438876854217,0.1297321846656954
11.693179999999998,2.797011294057111,0.1292600283087661
11.697768,2.786964611523622,0.128582902891775
11.702376,2.7736087020764626,0.1280713702871683
11.706972,2.760785672934513,0.1275863165888965
11.711564,2.743387428288807,0.1273538752846445
11.716152,2.7263998792341653,0.1271711256025624
11.720752,2.712521329113533,0.1269567343654702
11.72534,2.698276224850464,0.126798532017853
11.729944,2.6835423817308124,0.1267130016495128
11.734531999999998,2.672694787278671,0.126586110096548
11.739131999999998,2.66687724536998,0.1263570995197049
11.743724,2.6648237674146538,0.1261086019609138
11.7621,2.6563520636116467,0.1260652783323335
11.780472,2.685975836381986,0.1260346534015249
11.785059999999998,2.7061401880044142,0.1257833460178225
11.789644,2.722873127999025,0.12572354660382
11.794235999999998,2.7423043713365804,0.1255910189844577
11.798828,2.766110602198228,0.1253668511435665
11.803411999999998,2.79850048194529,0.1248649713033408
11.808004,2.83371084974944,0.1242778966102871
11.812583999999998,2.8681439678200884,0.1236985501164805
11.817176,2.907973692576624,0.1230007411385634
11.821759999999998,2.952300589571399,0.1222170005360405
11.826344,2.995195171813315,0.1214507000074114
11.830956,3.04037736180711,0.1206124128809393
11.835544,3.0843716064763376,0.1197412750573315
11.840132,3.1296318397356497,0.11883050161957
11.844728,3.1806110923746576,0.1176417549700043
11.849328,3.2336335833372525,0.1163715632454521
11.85392,3.2811372828998144,0.1152534720900634
11.858508,3.32324437577649,0.1142797957020411
11.863112,3.360976481129071,0.1134144858813705
11.8677,3.400218944500029,0.1124546226178846
11.8723,3.4336541055940346,0.1115695286608312
11.87688,3.4636137136115943,0.1107794577933402
11.881476,3.4899755838385627,0.110050217034191
11.886063999999998,3.516581823493822,0.1092977019808463
11.890656,3.537136391443838,0.1086412303094054
11.895243999999998,3.5524165374221126,0.1080857930230048
11.899836,3.567941052828679,0.1075119254003534
11.904436,3.584609372111184,0.1068969946076863
11.909036,3.594204400526652,0.1064011661277192
11.913628,3.597625572522731,0.1060060857839119
11.918219999999998,3.599780755928725,0.1056700694576455
11.922808,3.599892701011132,0.1053976583660627
11.9274,3.600781895827041,0.1051253286727987
11.931991999999996,3.597828983424068,0.1049394256805301
11.936588,3.593610082431009,0.1048086386098014
11.94118,3.586692878095007,0.104719817305202
11.945767999999996,3.583739965692033,0.1045343206631496
11.95036,3.584873529936234,0.1042409993994479
11.95494,3.586007094180434,0.1039479580934687
11.959532,3.585219604815193,0.1036957223504389
11.964119999999998,3.5849649957551626,0.1034672119925647
11.968708,3.5798466603144563,0.103348097577879
11.973299999999998,3.577670997644985,0.1031591814061071
11.977888,3.5774163885849544,0.1029309426227473
11.982475999999998,3.581536767049018,0.1026471125676221
11.987071999999998,3.5882332641418797,0.1023376666544464
11.99166,3.5912098387300038,0.1020964284372996
11.996256,3.594963663051629,0.1018580163123145
12.000832,3.603214659611496,0.1015537057250275
12.005423999999998,3.613264525066658,0.1012216987157665
12.010012,3.6235587599501113,0.1008629830848357
12.014608,3.631154691490619,0.1005457034038728
12.019196,3.6377290038693353,0.1002560489161554
12.023796,3.644425500962196,0.0999515166189325
12.028388,3.6520214325027056,0.0996378566207352
12.032979999999998,3.661660602366802,0.0992707210828418
12.037588,3.674120260287987,0.0988647063864626
12.042184,3.683392876009646,0.0985520955962473
12.046775999999998,3.691766057283658,0.0982511729946259
12.051372,3.7041035304906975,0.0978694779949321
12.05596,3.7213047300784137,0.0973936498616669
12.060555999999998,3.7415707871515114,0.0968398220571946
12.065144,3.766578385891137,0.0962167883046574
12.069727999999998,3.787866062126027,0.0956586162724109
12.074316,3.8077214236080583,0.0950915620976464
12.078907999999998,3.826022285623086,0.0945283346514806
12.083503999999998,3.849841939038146,0.0938953791429309
12.088092,3.873905961881498,0.0932502995552854
12.092683999999998,3.897314919705493,0.0926012585684848
12.097272,3.9208460622436334,0.0919429837329371
12.101864,3.94449938949592,0.091275509625053
12.106455999999998,3.970073770357647,0.0905793305761247
12.11104,3.9958925206476654,0.0898612938642801
12.115652,4.025675562870713,0.0890790779351126
12.12024,4.0536597361984645,0.0883228072120969
12.124828,4.0844643975833055,0.0875396287443257
12.12942,4.1086064636921735,0.0868638740463483
12.134007999999998,4.132093464781686,0.0861736712578667
12.138616,4.158278769214142,0.0854609747981937
12.143207999999998,4.179478162551775,0.0848427609095788
12.147811999999998,4.200921925317701,0.0842172680450911
12.152392,4.223142937817128,0.0835989179424301
12.156992,4.241644027811818,0.0830365224392458
12.161572,4.264886659473039,0.0824219322280188
12.166172,4.28980597531541,0.0818106297340396
12.170759999999998,4.314236552301199,0.0812440663072825
12.175359999999998,4.334169957048748,0.0807207607106639
12.179944,4.349117450701474,0.0802751405876677
12.184535999999998,4.363942759640056,0.0798448899058828
12.189132,4.378890253292783,0.0794064908157783
12.193728,4.393837746945509,0.078970034032205
12.198324,4.405964752541147,0.0785641164605199
12.202915999999998,4.419235562012724,0.0781343137747016
12.207504,4.4294415139989205,0.0777595779825111
12.2121,4.440791269861056,0.0773604042699004
12.216687999999998,4.446500049609013,0.0770191153003195
12.221276,4.4542520676805575,0.0766441513273477
12.225863999999998,4.462659150771458,0.0762836354448801
12.230456,4.472454407166588,0.0758825865955773
12.235052,4.483149098009368,0.0754729339327384
12.239639999999998,4.490778931366767,0.0751152357043791
12.244239999999998,4.500574187761899,0.0747211842529768
12.248819999999998,4.50869275997588,0.0743292898489585
12.253415999999998,4.509493671894533,0.0739900553116824
12.258,4.509395149365537,0.0736582961100881
12.262588,4.512728038464361,0.0732553131715877
12.2672,4.519003600334418,0.072820493421049
12.271788,4.531286692461091,0.0723094598824416
12.276376,4.54254816542597,0.0718150965779984
12.280964,4.557407376181441,0.071309443811191
12.28556,4.572266586936912,0.0708055530550238
12.290156,4.590967904911265,0.0702670306710765
12.294752,4.60852541900968,0.0697561282664996
12.299347999999998,4.626082933108094,0.0692462103054308
12.303936,4.641719393597065,0.0687563065349638
12.308532,4.664018449362011,0.0682137817033891
12.313112,4.6852958859651626,0.0676851904300397
12.317712,4.70477445367302,0.0671620562527059
12.322304,4.713381764743583,0.0667539762796941
12.326892,4.725298302727818,0.0662891183440365
12.331471999999998,4.737459210140346,0.0658066855350756
12.336064,4.747699063943432,0.0653473946279801
12.340652,4.757694548318226,0.0649063375564464
12.345247999999998,4.771287770483612,0.0644490089455412
12.349836,4.785003177363143,0.0639861900519482
12.354428,4.791933804252556,0.063585000283191
12.35902,4.7987422464278255,0.0631980404692984
12.363616,4.801708581384211,0.0628440585613436
12.368199999999998,4.80594090493068,0.0624611668692518
12.372795999999996,4.802611198753531,0.0621281146288236
12.377388,4.801202546185823,0.0617820639805678
12.381975999999998,4.799671708903968,0.0614478848925909
12.386575999999998,4.798018686907969,0.0611228746737188
12.39116,4.795710599892614,0.060781841742266
12.395744,4.792258709001319,0.0604594565529031
12.40034,4.783820907015202,0.0601860668094814
12.40492,4.779591766390405,0.059859994968682
12.40952,4.780592906288721,0.0594712554517291
12.414112,4.792220933396037,0.0590022290479343
12.418716,4.800784103017973,0.0585690883880148
12.423308,4.807304034316322,0.0581569921444254
12.427908,4.809981858395787,0.0577694419267121
12.432503999999998,4.814580736084695,0.0573698415812215
12.437096,4.8211006673830425,0.0569604269886519
12.4417,4.825699545071951,0.0565641870737902
12.446288,4.838637702217981,0.0561378624084668
12.450879999999998,4.841848406602658,0.0557757879004103
12.455468,4.847879599044423,0.0554018483661758
12.460068,4.8527669876102495,0.0550488744821565
12.464648,4.861618668109106,0.0546617072567536
12.469248,4.868549294998519,0.0542886690755225
12.47384,4.871759999383197,0.0539298977540828
12.478431999999998,4.873171834872577,0.0535724043607725
12.483012,4.876260354543109,0.0532221386995985
12.487607999999998,4.881636481965517,0.0528337627983354
12.492196,4.888278597978012,0.0524177534930417
12.496792,4.890712052629186,0.0520521772913591
12.501379999999996,4.889958465080835,0.0517265704425012
12.505976,4.886384389475395,0.0514135448028024
12.510559999999998,4.884486998051104,0.0511080294504048
12.515159999999998,4.88348904107446,0.0508003765044235
12.519748,4.886211006602554,0.0504810934585096
12.524344,4.887134103235353,0.0501632086041426
12.528928,4.882171854325681,0.0498814155700063
12.533516,4.877087420701865,0.049607212698383
