Time,Force,Position
14.196912,2.0210967867974547,0.165693660690968
14.201508,2.105691640113374,0.1647416550892304
14.206096,2.1828364087880803,0.1637303419406132
14.210696,2.253552711983367,0.1629101498542017
14.215284,2.3166526043746667,0.1620163344860901
14.219892000000002,2.3726689662671907,0.1610373266744355
14.224484,2.416982440708553,0.1602895278639753
14.229076,2.459608991337028,0.159207270902053
14.233664,2.4987497492573176,0.1579211901249953
14.238248,2.529418803374601,0.1567041674504907
14.242848,2.5528821422789627,0.1554469926746227
14.24744,2.570161385132196,0.1540873005101942
14.252032,2.580767793077719,0.1527368471593913
14.256616,2.582658127791944,0.15154650189459
14.261204,2.57837460608678,0.1506052055169141
14.265792,2.573069465219822,0.149719350506541
14.270372000000002,2.569685377962305,0.1487344186345642
14.274968,2.564380237095348,0.1478436051652624
14.279556,2.5657376915043613,0.1466359671742739
14.284144,2.560965430942615,0.1457710327434347
14.288728,2.5513294440001912,0.145145104944421
14.293316,2.54414739097242,0.1444586651230457
14.297899999999998,2.54223975991639,0.1435875225703595
14.302512,2.5358790980707493,0.1429986817911313
14.307099999999998,2.5302176426930933,0.1425268204125199
14.311692,2.525744132640005,0.1420894298800263
14.31628,2.5269557401497225,0.1415170475276661
14.320868,2.525635370479272,0.1411421125491113
14.32546,2.521905208342796,0.140937808953575
14.330051999999998,2.5233272834639155,0.1405796665880614
14.334651999999998,2.528879976680838,0.1401250696028406
14.339232,2.53807454913698,0.1396587785970445
14.43562,2.727228379411583,0.1395558375203886
14.440207999999998,2.7319699210781137,0.1393661772715879
14.444816,2.731314856058757,0.1393568897691561
14.449404,2.7289389654096223,0.1392804048515377
14.453992,2.726396748597714,0.1391151748043375
14.458588,2.721522782585298,0.1389810285583693
14.463188,2.7137841870671657,0.1388485306024008
14.46778,2.7061236348145514,0.1385867119358458
14.472368,2.7025054177604817,0.138023070686633
14.476972,2.69925375484885,0.1373979934758295
14.481560000000002,2.695347026917862,0.1367680633015882
14.486160000000002,2.691929037843456,0.136057602227138
14.490748,2.692353155987933,0.135201611117645
14.495348,2.692000024398908,0.1343636164989113
14.49994,2.691646892809883,0.1335209005107343
14.504536000000002,2.68757383871612,0.1328063413841642
14.50912,2.6872207071270946,0.1319650251556159
14.513712000000002,2.6896880635951588,0.1310352251032568
14.518312000000002,2.693709919530228,0.1300830184109426
14.522904,2.7027618280087458,0.1290274101539833
14.527508,2.7117356932217462,0.1281012609425569
14.5321,2.718055396540432,0.1273653842387426
14.536688000000002,2.728095022363855,0.1265005209230197
14.541276,2.7411214624071407,0.1256272435760657
14.545856,2.757012531956144,0.1247722097324182
14.550452,2.777034219600949,0.1238592406347427
14.555040000000002,2.803518274542064,0.1228673778447348
14.559632,2.833766393436543,0.121885207661667
14.56422,2.858950557970682,0.1212400435374476
14.568808,2.8869993520105397,0.1206151843901473
14.5734,2.9123939841560813,0.120157144899482
14.57798,2.940775430521485,0.1197032100016391
14.582567999999998,2.9696897571921013,0.1193041381020861
14.587164,2.9959499219684016,0.119062067657502
14.591752,3.0235202167834148,0.1188408179126047
14.596348,3.0544438799607283,0.1185618900952476
14.600943999999998,3.083857185119666,0.1183963399198325
14.605532,3.1099612633649314,0.1183840279735302
14.610128,3.140806883276727,0.1182443629229484
14.614719999999998,3.169853634293227,0.1181518444691982
14.619316,3.200288558613958,0.1179782748288016
14.623904,3.234932144296008,0.1176537633270866
14.6285,3.2703529797115607,0.1173363202265937
14.63308,3.306795434288907,0.1169972529849857
14.637684,3.3434822582945443,0.1166419349934864
14.642264,3.3757940947760887,0.1163700592938671
14.64686,3.401154825104741,0.1162145079037
14.651452,3.424961055966389,0.1160747776006682
14.656044,3.448356591236972,0.1158878949615285
14.660632,3.4705641811829877,0.1156685699766823
14.665232,3.4963253674709662,0.1152960748163145
14.66982,3.5208986084343774,0.1148958713727399
14.674416,3.543140100197282,0.1145148368208392
14.679004,3.571222796054029,0.1139052274348389
14.683592,3.60285908825274,0.1131659827981146
14.68818,3.633307435126882,0.1123974482043157
14.692784,3.664611075000044,0.111540974366345
14.697375999999998,3.694848954262784,0.1106266433678959
14.701968,3.7208340307155767,0.1097847481131677
14.70656,3.746408411577304,0.1089097228966989
14.711148,3.768507239362586,0.108084540110376
14.71574,3.785986710195483,0.1073567905908492
14.720328,3.801134431827873,0.1066373206415311
14.724916,3.814072588973903,0.1059173511874014
14.72952,3.823901747185923,0.1052071685215328
14.734100000000002,3.8369179475974704,0.1044098468524641
14.738708,3.854797874389694,0.103506719750124
14.7433,3.86728119449603,0.1026805847632632
14.747888,3.882829372087746,0.1017805836058105
14.752484,3.89760029994596,0.1008875885843627
14.757068,3.909672924461231,0.1000401414167528
14.761664,3.920479560386417,0.0992474699269141
14.766255999999998,3.926789024073364,0.0985134698524296
14.770855999999998,3.9279903919513433,0.0979113547862886
14.775448,3.928292325381675,0.0973323884914225
14.780044,3.92847207409786,0.0967665352792856
14.784624,3.9266085844904586,0.0962482054624923
14.789224,3.927443398226,0.0956964750530232
14.793808,3.925213354476162,0.0952110653875477
14.798404,3.9238827451739713,0.0947164182432787
14.802992,3.925905504234081,0.0942032651010361
14.807588,3.928172632722482,0.0936642940587773
14.812176,3.932893695125535,0.093120040576851
14.816772,3.9372482033861504,0.0926134311672985
14.82136,3.941113972790184,0.0921536665361781
14.825952,3.941015450261189,0.091772061174634
14.830544,3.938751504694461,0.0914483316452614
14.83514,3.942006350527766,0.0910513003967269
14.839716,3.9435845121799216,0.0906653445192606
14.844312,3.946594988584936,0.0902979541680425
14.8489,3.9511599644569535,0.0899360113437985
14.853488,3.959933601690291,0.0894843453248881
14.858088,3.9729600417335766,0.0890070378831555
14.862668,3.98688591622451,0.088520175631493
14.867260000000002,3.995948064334768,0.0881175486176739
14.871856,4.004888027730879,0.0877276832367594
14.876444,4.017425728917582,0.0873064586410593
14.88104,4.031517929571289,0.0868977066489235
14.88562,4.052394910215114,0.0863880999361404
14.890212000000002,4.074171325306587,0.0858792446403333
14.89482,4.096314294540497,0.0853452749180164
14.899408,4.118990144079618,0.0848374711592273
14.904,4.138845505561648,0.0843664838636572
14.90858,4.159722486205473,0.0838801124039574
14.91318,4.183542139620533,0.0833516105394381
14.917772,4.210959530826185,0.0827941994714139
14.922368,4.238621291460127,0.0822165277969748
14.926956,4.262440944875188,0.081692674092223
14.931556,4.283972990538369,0.0812277166320678
14.936144,4.305993775058133,0.0807274615619186
14.940736,4.324416821787306,0.0802545775958
14.945328,4.334911284650422,0.07990577375534
14.94992,4.346916105531915,0.0795009541003793
14.954524,4.3599425455752,0.0790809847196014
14.95912,4.373868420066133,0.0786518527238785
14.963712,4.390614782614157,0.078196914785267
14.968296,4.4063395260003855,0.0777665509021314
14.972884,4.42026540049132,0.0773541664342189
14.977472,4.428305929439783,0.0770236712311558
14.98206,4.435202654512308,0.0767230745350572
14.986652,4.442221564298978,0.0764167957232955
14.991244000000002,4.453082581304531,0.0760715538141134
14.995824,4.465087402186023,0.0757005231225519
15.000416,4.473127931134487,0.0753805330667862
15.005004,4.48398894814004,0.0750411790662824
15.009595999999998,4.4940727154120905,0.0747004967168633
15.014192,4.506199721007729,0.0743336545216922
15.01878,4.523312637698188,0.0739055325199275
15.023388,4.542224423283943,0.0734654070914441
15.027971999999998,4.554229244165435,0.0731074665201449
15.032576,4.570609052571021,0.0727341151439672
15.037168,4.592629837090785,0.0723090653009175
15.041756,4.611463579411024,0.0719425810839016
15.046364,4.629397887283615,0.0715837758199999
15.050964,4.650274867927438,0.0711942611275528
15.055556,4.668575729942466,0.0708142220072224
15.060136,4.683401038881047,0.0704437591563407
15.064736,4.694872979457328,0.0700714344948781
15.069316,4.708388158357195,0.069669997695173
15.07392,4.7193272186282655,0.069272141113438
15.078504,4.727323606128103,0.0689089857850046
15.083096,4.728124518046754,0.0685795913501907
15.087688,4.73109085300314,0.0682157917725144
15.092284,4.74120852209208,0.0677603385872333
15.096884,4.741310227542749,0.0673560969313532
15.101476000000002,4.741001237402352,0.066919360564519
15.10608,4.738649008938368,0.066510440439079
15.110672,4.737318399636178,0.0660949923623392
15.115264,4.739419201961804,0.0656186893046011
15.119864,4.745728665648752,0.0650792461161831
15.124452000000002,4.755713910391807,0.0644682891301755
15.129044,4.765288459543798,0.0638297846821339
15.133632,4.776006812571727,0.0631708048770743
15.138232,4.78774678476145,0.0625034010275044
15.14282,4.7976878880558775,0.0618457432244234
15.14742,4.808894979940389,0.0611636905829496
15.152,4.821245875700841,0.0604600698711738
15.156588,4.835273455642442,0.0597575518843288
15.161180000000002,4.8532653275170725,0.0590288165935305
15.165772,4.871257199391703,0.0582964470771385
15.170348,4.889126886552186,0.0575716192418292
15.174944,4.912515365112704,0.0568259860793271
15.179532000000002,4.935659474244931,0.0561085811066963
15.184132000000002,4.953817672282336,0.0554428905476847
15.188724,4.977494661719771,0.0547537390130124
15.193312,4.998639673977039,0.0541211403653247
15.197908000000002,5.020029055662597,0.053474260063153
15.2025,5.034633657358037,0.0528755078005229
15.207092,5.047850085749247,0.0523209496021301
15.21168,5.063398263340964,0.0517918365129839
15.21628,5.0698740531906825,0.0513424938065138
15.220859999999998,5.073162800840877,0.0509297718419511
15.225460000000002,5.078250417386368,0.0505181740540647
15.230048,5.082316414770065,0.0501171882570606
15.234648,5.082295935506588,0.0497495180959696
15.23924,5.077578056025208,0.0494587623060077
15.243836000000002,5.073270872134892,0.0492008104285233
15.248424,5.072683610749315,0.0489339379946402
15.25302,5.066211003821268,0.0487032398598085
