Time,Force,Position
11.929872,2.277348481655148,0.1528290046101813
11.934472,2.2604389758660246,0.1526357929181354
11.943648,2.234569027417312,0.152559758757232
11.948235999999998,2.227118942776099,0.1525244919144559
11.952828,2.228951713488284,0.1521918831588663
11.957411999999998,2.2352036131731907,0.1518095620895943
11.962011999999998,2.246774076278468,0.1513485190329436
11.966596,2.2635409180899675,0.1508362676333803
11.971176,2.2834609002841053,0.1503901533719447
11.975768,2.303547208641016,0.1500565548127203
11.980352,2.3275197656654374,0.1496560888331644
11.984939999999998,2.3610195474715487,0.148950828192078
11.989531999999995,2.398405577945171,0.1481734626559806
11.994111999999998,2.4369795537433605,0.1474458179256972
11.9987,2.4769858442944086,0.1466764433530739
12.003296,2.5252092295884334,0.1455793162624548
12.007887999999998,2.5775632329782603,0.1444060348769142
12.012491999999998,2.63290405058795,0.1432277524166356
12.01708,2.685546564854696,0.1422290975288269
12.021667999999998,2.742519925196908,0.1410261818334791
12.026256,2.7956511783202367,0.1400432781885713
12.030859999999995,2.8456734325095567,0.1390996206095479
12.035452,2.8978611097366094,0.1380320287467483
12.040052,2.944529995563629,0.1371839851616225
12.044635999999995,2.9874789588859123,0.1365062917380048
12.049232,3.030139411331276,0.1357743496917724
12.053824,3.067647626519044,0.1351776321052035
12.058419999999998,3.102824092506305,0.1346287576608223
12.063015999999998,3.136934797883145,0.1340373277910551
12.067608,3.1714120574024216,0.1334099936867816
12.072195999999998,3.2027803179876897,0.1328235290733671
12.076784,3.226953102991774,0.1324620258052159
12.081371999999998,3.2481390737759965,0.1321179122319354
12.085963999999995,3.2680149145215056,0.1317591252611336
12.090552,3.2905449171613297,0.1312378892267174
12.095143999999998,3.3086999322770607,0.1308421862547247
12.099739999999995,3.3201482106681914,0.130571687659685
12.104328,3.328731859553605,0.1303019962204377
12.113508,3.3344950203819304,0.1301184450949255
12.118104,3.3340843247908656,0.1300780218559705
12.122688,3.3340401833422373,0.1299902511971205
12.127275999999998,3.3344847807501923,0.1298414711530457
12.131871999999998,3.3343964978529352,0.1296663408964293
12.13646,3.3368401921358486,0.1293570690175991
12.141047999999998,3.338384451971114,0.12907069414874
12.145643999999995,3.3419719501299667,0.1287081959723904
12.150236,3.3438827641076694,0.1283738147574437
12.154832,3.3437503397617845,0.1281136665624279
12.159408,3.3406752426446653,0.1279496026056211
12.164008,3.3393990144228414,0.1277425499680364
12.168595999999996,3.341187643686398,0.1274261789004702
12.283411999999998,3.0280301705621446,0.1274018299122261
12.288007999999998,3.0137850662990755,0.1272390585768474
12.292596,3.007224176473772,0.1268337639382554
12.297196,3.000418917220177,0.1264601400720815
12.301787999999998,2.997333580471318,0.1259833820261885
12.306383999999998,2.9982125356554885,0.1253753315980205
12.310972,3.0020341636108943,0.1246650040808028
12.315568,3.005000498567279,0.1240705224151866
12.320148,3.010010071847252,0.1233970311345337
12.324748,3.0175957637560216,0.1226799151910142
12.329339999999998,3.0258365206841487,0.1219781983626569
12.333939999999998,3.035509592365134,0.1212785628162793
12.338524,3.0463706093706877,0.1206154004408793
12.343115999999998,3.058419571700808,0.1200013681507531
12.347711999999998,3.0711235990502845,0.1194051793421797
12.352307999999995,3.090612406389879,0.1186014265670925
12.356896,3.1145983859677133,0.1177014899594989
12.361491999999998,3.142304288050284,0.1167265770614716
12.36608,3.1715646895998595,0.1157471965431184
12.370667999999998,3.206343882549468,0.1146481069484733
12.375256,3.238835467747197,0.1136788882085342
12.379848,3.269039445193048,0.112830054065076
12.384439999999998,3.295279130705871,0.1121119679781129
12.389015999999998,3.324094934847491,0.1113706749713435
12.393611999999996,3.352011304541464,0.1106600656613373
12.398191999999998,3.374941763140614,0.1100992834771157
12.402783999999995,3.399426721206769,0.1095422692738154
12.407372,3.42991920952954,0.1088335851849943
12.411959999999995,3.4600451437098734,0.1081696683455845
12.416563999999996,3.488372208994911,0.107546588521375
12.421156,3.517843078155888,0.1068910605816414
12.425743999999998,3.553443662287626,0.1060854178745859
12.430339999999998,3.5919869191905995,0.1052180146943417
12.434928,3.629875111074216,0.1043525592367059
12.439524,3.666863868510185,0.1035086473203816
12.444115999999998,3.69976614929898,0.1027885995579525
12.448712,3.72943724643962,0.1020963355216329
12.4533,3.751790683284932,0.1015286594422472
12.457904,3.771690186215592,0.1009742758444313
12.462484,3.787092516908012,0.1004943432523953
12.467076,3.797997675362193,0.1000746661473269
12.471663999999995,3.8064488999017225,0.0996665044822856
12.476247999999998,3.819886035536073,0.0991477218284326
12.480832,3.829070368360476,0.0986702229624851
12.485423999999998,3.835678582556081,0.0982172568406791
12.490023999999998,3.846617642827152,0.0976384689520298
12.494615999999995,3.855224953897716,0.0970611524958532
12.499191999999995,3.8526724974540687,0.096668813932999
12.503775999999998,3.851630399028797,0.0962015724259123
12.508356,3.84993323558417,0.0957199053662551
12.512956,3.844760519063096,0.0952724462930583
12.517536,3.829982534494816,0.0950031515587429
12.522123999999998,3.8137722351736767,0.0947170762592186
12.526712,3.794741447795449,0.0944746592951042
12.531299999999998,3.7757106604172206,0.0942311481004812
12.535888,3.759622545810228,0.0939295740001636
12.54048,3.745088930670239,0.0936291952928767
12.545056,3.73697354137793,0.0932417355623529
12.549647999999998,3.731678640142711,0.0928094340164736
12.554243999999995,3.7283047925169326,0.0923442211698935
12.55884,3.730816290433625,0.0917665144968853
12.563436,3.739213133892788,0.0910844574486424
12.568027999999998,3.743767870133067,0.0904749977368958
12.572632,3.750776540287998,0.0898610315920419
12.577219999999995,3.760361329071728,0.0892303900190758
12.581827999999998,3.770478998160668,0.0886381974453585
12.586403999999998,3.785216024201993,0.0879985989978163
12.591003999999998,3.8084145144145856,0.0872402220589679
12.595584,3.833289688808328,0.0864917798123649
12.600179999999998,3.861640416278517,0.0857306846328279
12.604771999999995,3.894488315986945,0.0849371152489661
12.609368,3.9301567037524623,0.0840952838673448
12.613951999999998,3.966480156537336,0.0832842009428751
12.618547999999995,4.003825228484002,0.0824494165429066
12.62314,4.040393050697167,0.0816124946628256
12.627731999999998,4.075162004015037,0.0808019897756053
12.632316,4.111852010942347,0.0799807438764107
12.636912,4.146987518402653,0.079169141112362
12.641499999999995,4.18212302586296,0.0783695352518114
12.646092,4.216114729447327,0.077606316231765
12.650672,4.251005867479341,0.0768564107188653
12.655255999999998,4.281932713578328,0.0761804553751807
12.659851999999995,4.313881178839107,0.0754944092155736
12.66444,4.350937739908854,0.0747464933009163
12.669027999999996,4.39028190873048,0.0739602797511463
12.673612,4.42308566699028,0.0732342691633919
12.678188,4.450903514155257,0.0725859269302653
12.682792,4.477944111586733,0.0719464235031388
12.687379999999996,4.499710287046468,0.0713316416832543
12.691972,4.520821397486845,0.0707127892196729
12.696568,4.5409108887654295,0.0701184816467836
12.701155999999996,4.565086856691188,0.0694742658241344
12.705759999999998,4.587708325149941,0.0688260255486334
12.710352,4.613150281665784,0.0681607242357753
12.714948,4.644233214295806,0.0674631878315809
12.719524,4.676582135515912,0.0667406754343646
12.724124,4.705211134231281,0.0660496184349776
12.728707999999996,4.732574144356565,0.0653955008046429
12.733307999999996,4.7596927850535575,0.0647657453520365
12.737904,4.789876283235931,0.0641060082609192
12.742504,4.817894358380571,0.0634894523434471
12.747096,4.847955671848799,0.0628554675825538
12.751687999999998,4.878672050336385,0.0622435528476813
12.756287999999998,4.901459844957912,0.0617164125442433
12.76088,4.921060597379914,0.0612387136758106
12.765467999999998,4.946302325916093,0.0607270027085931
12.770063999999998,4.972810043042359,0.060186854184983
12.774656,4.999317760168623,0.059655954185164
12.779239999999998,5.030977714552484,0.0591324489129922
12.78382,5.060594430612758,0.0586368887826839
12.788415999999998,5.090455516101322,0.0581319211024128
12.793,5.117251744104506,0.0576655778445447
12.797583999999995,5.143026352945896,0.0572125126111232
12.802167999999998,5.168923146501434,0.0567582918558804
12.806748,5.188279529495143,0.0563372009382645
12.811328,5.206369923898769,0.0559460056712464
12.815924,5.225237568035895,0.0555621498913905
12.820511999999995,5.243450147153665,0.0551638923852127
12.8251,5.261129845966226,0.0547447783741064
12.829695999999998,5.273168568664607,0.0543511767235868
12.834284,5.282631172734191,0.0539527435033703
12.838887999999995,5.2880073001566,0.0535921343102143
12.843484,5.2891306247690615,0.0532199199193624
12.848087999999995,5.290742688238106,0.0528125785092313
12.852667999999998,5.290800252240146,0.0523894875505113
12.857263999999995,5.285461209556299,0.0519700137238255
12.861852,5.278323297977156,0.0515505436070282
12.866452,5.265300040855544,0.0511664347242735
12.871036,5.246391438191463,0.0508191481976317
12.875636,5.220820240251408,0.0504968555833081
