Time,Force,Position
20.183024,2.4739117569256024,0.1520721893719874
20.187611999999994,2.505134170611574,0.1517673317114231
20.1922,2.527396141637957,0.1516064494559699
20.196788,2.5432737886335484,0.1514834881990257
20.201384,2.5607839783616613,0.1512089109292198
20.205976,2.577883472498709,0.1508777714371395
20.210564,2.5913852288451658,0.1506858570720872
20.215156,2.6035768551529093,0.1504936270069081
20.219744,2.61445835142194,0.150294991650412
20.22434,2.626728020995201,0.1499771986247917
20.228928,2.634212007453303,0.1497671804269466
20.233524,2.642184732767989,0.149487284985389
20.238119999999995,2.6438614169491386,0.1494430039901343
20.242708,2.6479478935963123,0.1492349106674358
20.247312,2.6544441627095106,0.1488623796045045
20.2519,2.6655156473264654,0.1481938359689202
20.256504,2.677075870800003,0.14745501873956
20.261095999999995,2.692966940349006,0.1464635384895188
20.265691999999994,2.707836390736216,0.1455281455921353
20.270295999999995,2.7209069722281294,0.1446550176070976
20.274884,2.735121357595983,0.1437014841570849
20.27948,2.743450397421366,0.1430483008122926
20.284068,2.7544777405896927,0.1423050402203182
20.288664,2.7701244407104046,0.1414111721778798
20.293243999999994,2.781562479469797,0.1407407145768723
20.297847999999995,2.796720440733925,0.1399451304879737
20.302432,2.817519378112233,0.1389366502377087
20.307032,2.8377073919198117,0.1380335117796192
20.311623999999995,2.8549527329561557,0.1372497245760813
20.31622,2.8710542701165607,0.1365359232961774
20.320808,2.889731925905764,0.1357517199180432
20.325404,2.898193390077032,0.1354297418196524
20.33,2.9062883001058624,0.135160301663835
20.334599999999995,2.915693340173405,0.1349141817160229
20.403468,3.0075617123360248,0.1347426342772672
20.40806,3.0076838970501703,0.1347254537340228
20.412656,3.0082948206208986,0.1346404293587183
20.417244,3.023452781885028,0.133944624110461
20.421844,3.0361568092345053,0.1332707415171876
20.426435999999995,3.045218957344762,0.1326062071942696
20.431031999999995,3.048229433749776,0.1320870939530921
20.435607999999995,3.05095139927787,0.1315146838897357
20.440211999999995,3.057882026167284,0.1307673413526219
20.4448,3.0660345001981546,0.1298495238594543
20.4494,3.068135302523782,0.1290598349085036
20.453987999999995,3.065616747897024,0.1283970791638571
20.458588,3.058723205746172,0.127831802432467
20.463172,3.056282694384932,0.1270472455927068
20.467768,3.0507331840896827,0.1262887201773167
20.472348,3.050824649908612,0.1253506961954357
20.476935999999995,3.052470615194545,0.1244007144900899
20.481528,3.052317711585184,0.1234930584031837
20.486116,3.050488123794672,0.1226111858350586
20.490704,3.052256273794751,0.1216424299525429
20.495287999999995,3.053657869652393,0.1207330477346185
20.499868,3.0498291849869226,0.1200332844382938
20.504448,3.0444901423030752,0.1194430887690574
20.50904,3.029712157734796,0.1192356980966452
20.51362,3.021352399014196,0.1188601809896867
20.541172,2.9687674487494893,0.1186419943050027
20.545764,2.9731424362735828,0.1185540500128701
20.550352,2.982547476341127,0.1183907031325365
20.554948,2.995960949790327,0.1181993355301366
20.55954,3.011994683316953,0.1180570541911888
20.564136,3.028439112434645,0.1179659791785519
20.568715999999995,3.0437397376763973,0.1179257427150825
20.573311999999994,3.063948230747454,0.1178328882659589
20.5779,3.088165157200167,0.1177079528723012
20.5871,3.1326788596211936,0.1176888755995359
20.591684,3.1636025227985063,0.11748791237941
20.596264,3.19620287015697,0.117264999245634
20.60086,3.2324009553060247,0.1169596663546665
20.605452,3.2685990404550798,0.1166750269689274
20.610036,3.313502959203693,0.1161648828182414
20.614628,3.3590619429716635,0.1156736062562755
20.619212,3.4051096655962168,0.1151256776387402
20.6238,3.4563876687438837,0.11440643163132
20.628395999999995,3.508154410748132,0.1136270059728839
20.632984,3.560043337466527,0.1128583022674301
20.637567999999995,3.605758407765532,0.1122258126259238
20.642164,3.647997924988092,0.1116503364904187
20.646752,3.685740269972412,0.1111709082793489
20.651348,3.722539039060457,0.110630820761083
20.655936,3.7543077556050495,0.1101423661863089
20.660523999999995,3.789507883777463,0.1095364557939925
20.665132,3.8227428168918047,0.1089099633952839
20.66972,3.853890370233932,0.1082714493708485
20.674316,3.881684555213759,0.1076603822037753
20.678895999999995,3.907635729849662,0.1070045785636965
20.683484,3.926513613618529,0.1064597698719962
20.68808,3.944325736776973,0.105870878294706
20.692668,3.957352176820259,0.1052988182892557
20.697264,3.968046867663038,0.1047382034737257
20.701844,3.967948345134043,0.1043453148225058
20.706444,3.9658846275469775,0.1039172046397934
20.711023999999995,3.964065279388205,0.103465954145904
20.715627999999995,3.957748758991192,0.1030817612643316
20.720216,3.953064781326702,0.1026125971172206
20.724812,3.9434729358329066,0.1021675684835479
20.729408,3.931182786996168,0.1017570442189988
20.734004,3.922446234501392,0.101222842244215
20.738592,3.913298986415552,0.1006499301372896
20.743184,3.902352869434415,0.1000980487407754
20.747788,3.891773306595716,0.0995020997737849
20.752384,3.875308398214547,0.0990268897507271
20.756972,3.858066240099876,0.0985488717697506
20.761564,3.838658658947472,0.0981290424878118
20.766155999999995,3.8239926194615976,0.0976241661584819
20.77074,3.80806059138564,0.0971645197783545
20.775327999999995,3.796625735547921,0.096645334991957
20.779924,3.785968129443704,0.0961267743332866
20.784516,3.781484379758877,0.0955409748043282
20.789108,3.7754902720556736,0.0950271151538284
20.793704,3.773871151876564,0.094464203007244
20.798296,3.769964423945575,0.0939698714527952
20.802888,3.7641366424051457,0.0935106205416945
20.80748,3.759086110598218,0.0930517954118269
20.812068,3.752403036058769,0.0926811827005832
20.81666,3.7489511451674726,0.0923033091645841
20.821252,3.752939099285652,0.0918182757216425
20.82584,3.756193945118957,0.0914136240464456
20.830428,3.7588378673815335,0.0910688013890058
20.835016,3.766634026901706,0.0906916549986989
20.839611999999995,3.78305797675592,0.0902609039979519
20.844192,3.803446218543162,0.0897546377181233
20.848792,3.822324102312028,0.0893190158109308
20.853384,3.844144658852129,0.088830493127973
20.857983999999995,3.865843030678085,0.0883645637488075
20.862572,3.89510343222766,0.0878015734057452
20.867172,3.9225649648819383,0.087264194786076
20.871768,3.946961640050838,0.086789278155409
20.876368,3.968782196590939,0.0863370933180975
20.880952,3.994567045064069,0.0858206261288287
20.885548,4.024316185470227,0.0852485462025946
20.890152,4.058029617809413,0.0846087802748045
20.894744,4.094196984063252,0.0839719056650358
20.899336,4.130608719745381,0.083317013202761
20.903928,4.168286444017596,0.0826303249992484
20.90852,4.206086353003957,0.081940482021136
20.913104,4.23848965530443,0.0813108622052542
20.917691999999995,4.271914576766696,0.0806757335577097
20.92228,4.308648725142635,0.0799700490110325
20.926863999999995,4.341907320442128,0.0792927481522391
20.931456,4.36707100571279,0.0786865329664687
20.936048,4.395055179040542,0.0780645123153756
20.940636,4.4243053409583775,0.0774039649728422
20.945228,4.454577122038008,0.0767365709895293
20.949819999999995,4.481906230346402,0.0761115302671843
20.954408,4.500529505055238,0.0755974989705512
20.959,4.524793755878252,0.0750409027435983
20.963587999999994,4.55596497140553,0.0744039292545808
20.968176,4.591755543885193,0.0737448258313722
20.972772,4.62407056328841,0.073104379363403
20.97736,4.653442909920392,0.0725107041136905
20.981964,4.681671452676436,0.0719454342467493
20.986556,4.704869942889028,0.0713789035173201
20.991156,4.731788355606358,0.0707944736376529
20.995736,4.755886280266599,0.0702374270436682
21.000336,4.780761454660341,0.0696911723783181
21.004928,4.804492825178144,0.0691667435354303
21.009528,4.824626457905357,0.068663521572917
21.014112,4.84361628675663,0.068189205356472
21.018712,4.863872104197988,0.0676878834143683
21.023308,4.886171159962933,0.0671604476695383
21.027891999999994,4.904750293223141,0.0666648927704271
21.03248,4.925494849521081,0.0661407098650075
21.037076,4.946483775247313,0.0656070811372793
21.041675999999995,4.968083624544272,0.0650289434783017
21.046268,4.994258689344989,0.0643672518864392
21.05086,5.01503714745982,0.0637363204959487
21.055443999999994,5.029153010298678,0.0631582361980426
21.060032,5.037627897023357,0.0626196213392354
21.064612,5.04712440290983,0.0620708368498503
21.069208,5.051102117396271,0.06154212782155
21.073804,5.059166308529885,0.060974825055889
21.078396,5.073648725511179,0.0603842317926529
21.082984,5.0837561549683805,0.0598022384307593
21.087576,5.092186900244433,0.0592129610717536
21.092164,5.096487027424681,0.0586080159329776
21.096756,5.103974196804457,0.0579636790388978
21.10134,5.109662497288936,0.0573193567822083
21.105928,5.112774679144618,0.0566717128383925
21.110516,5.113843622676713,0.0560459774366758
21.115112,5.115034750922954,0.055412926759719
21.119699999999995,5.1152042600074,0.0547895013590971
21.124296,5.108711173815875,0.0541983193423287
21.128888,5.099153230138969,0.0536372708451614
21.133484,5.09192703566257,0.0530991895908809
21.138064,5.082046679291855,0.0526218234494359
21.142664,5.071144703759346,0.0521524984223048
21.147244,5.061142162674486,0.0516796657882947
21.151844,5.048319133532537,0.051213193884922
21.15644,5.037172788571738,0.0507548068618785
21.16104,5.034610092496352,0.0502565426676667
21.165624,5.0282052892020825,0.0497807955208822
21.170216,5.0178361939747855,0.0493329513363719
21.174816,5.005834556014966,0.0489325568110205
21.179407999999995,4.998207905579241,0.0485381635294519
21.183996,4.994711873239316,0.0481669975378148
21.188592,4.989705482881019,0.0478379884863442
21.19318,4.987275211151518,0.0475153650465774
