Time,Force,Position
19.109484,2.901775806802512,0.1496041265792689
19.11408,2.961899124605687,0.1495670256635742
19.11868,3.018658834414824,0.1492881725534306
19.12326,3.061672418449213,0.1492445184943884
19.127856,3.0999342211853325,0.1490792682816716
19.132444,3.1365532415571917,0.1487333676822822
19.13704,3.168053926488344,0.1483256372391694
19.141632,3.1984005679118184,0.1476882493474408
19.146224,3.222485070018648,0.1470675918584307
19.150816,3.2421063017041263,0.1464135651714378
19.1554,3.261350739615429,0.1455421253595271
19.15998,3.280018155772894,0.1445849569285419
19.164576,3.297663952768564,0.1436685064509168
19.169168,3.3129440987468386,0.142988626364221
19.17376,3.3359967420601357,0.1422257585165098
19.178356,3.363390471080636,0.1415436808535088
19.182944,3.39847865417064,0.1408826002358635
19.18754,3.441094965167376,0.1401673152072048
19.192124,3.4849433629373068,0.1395609185609482
19.196712,3.5345210197186727,0.1389532849964017
19.201312,3.586474567149173,0.1384233746385089
19.205892,3.647100046362343,0.1377851102813425
19.21048,3.706503678434056,0.1373180335019069
19.215072,3.769182635602552,0.1368721095132263
19.219672,3.8329273533814696,0.1364951030911389
19.224272,3.897737831770809,0.1361749342584475
19.228852,3.964757874646509,0.1358618302512031
19.233448,4.031166993951481,0.1356377607446349
19.238024,4.1018289160664,0.1353610790823855
19.242624,4.169425980695939,0.1351864852504277
19.247208,4.238699729506628,0.135015107905817
19.251808,4.307562782726252,0.1348298196286692
19.256392,4.377403313659041,0.1345375996791361
19.260988,4.447077518429056,0.134193790340066
19.265584,4.511966040083913,0.1339105647072941
19.27018,4.575544431700058,0.133618890165246
19.274784,4.635969682933563,0.133302016387202
19.279376,4.691320740174993,0.1329947242732119
19.283968,4.749814698167319,0.1325401286782087
19.28856,4.8036010163100045,0.1320625906211091
19.293148,4.853989824641761,0.1315741273755855
19.297736,4.900692612285671,0.1310436223867665
19.302324,4.946940562889887,0.1304332233111185
19.30692,4.993999665044496,0.1296981280857493
19.311512,5.036761822940528,0.1289667292015126
19.316104,5.073794721825126,0.128229799500773
19.320696,5.103832373108203,0.1275318253212023
19.325276,5.128918015113347,0.1268234173794609
19.329868,5.145576094764113,0.1261561774993947
19.33446,5.1611242723558295,0.1253965041496706
19.33904,5.164935660679496,0.124760914930897
19.343636,5.161507431973352,0.1241794343429905
19.348228,5.159545419836956,0.1234795575221763
19.352832,5.151609779260832,0.1227844318036179
19.357424,5.140520998302073,0.1220409437781646
19.362024,5.122436969741794,0.1213216626236033
19.36662,5.0965024005809765,0.1206992498538197
19.371212,5.068891147239008,0.1200893688865754
19.375808,5.034084418315856,0.1195846693769367
19.380388,4.997234451069119,0.119123437350508
19.384988,4.955765126869995,0.118739249492348
19.38958,4.909676445718487,0.1184266629283592
19.39418,4.859867842062241,0.1181722660503922
19.398772,4.804173892863526,0.1180359060729279
19.403372,4.745781640321868,0.117937679793554
19.407952,4.692130929446739,0.1177363443955569
19.412548,4.644898444419291,0.1174222360505138
19.417124,4.6017965774876455,0.1170667933309474
19.42172,4.55759504812869,0.1168065839018474
19.426308,4.5171575827231,0.1165355431419579
19.430904,4.485225722937404,0.1161749264013342
19.435492,4.456036307943281,0.115835496603382
19.440088,4.421538569160527,0.1156960801048522
19.444676,4.393381012959936,0.1155229421873933
19.449264,4.370830531056634,0.1153833447389522
19.453856,4.357196350364293,0.1151873288698718
19.458444,4.352600655597058,0.1149246642865505
19.463036,4.354711697554424,0.114604076671424
19.467624,4.364306725969892,0.114224840869128
19.47222,4.381874479700046,0.113749289290991
19.476808,4.407170589316593,0.1131927165427274
19.481396,4.438929066229447,0.1126038250069653
19.485992,4.475351041543315,0.1120064053221762
19.49058,4.515659265524694,0.1113923495197249
19.495172,4.562552041516529,0.1107345645379935
19.49976,4.6082229703669055,0.1101992691868777
19.504344,4.652383541198907,0.109745654483885
19.50894,4.696954807621975,0.1093340634537848
19.513532,4.749743168788018,0.1088074722339781
19.518128,4.799466672468679,0.1083548659980372
19.522708,4.849067991435195,0.1079217842803287
19.527304,4.903410852068243,0.1074178311522829
19.531884,4.962617439081964,0.1068247355440685
19.536484,5.018759168610307,0.106302002664343
19.541064,5.068971411147552,0.1058256862233226
19.54566,5.116607535055999,0.1053811009728374
19.550256,5.161134660030436,0.1049473216165892
19.554852,5.19654525581425,0.1046300429098326
19.55944,5.226026364606967,0.1043619349590296
19.564032,5.251909735609091,0.1041455244052978
19.56862,5.275583542124855,0.1039262920299108
19.573212,5.296803414725967,0.103721589879643
19.5778,5.31377048451713,0.1035466214123944
19.582388,5.331715032021459,0.1032987401124549
19.586976,5.34540677671584,0.1030821434743892
19.591568,5.359831629695095,0.1028126646051121
19.59616,5.370780929597904,0.1025717631251553
19.60074,5.377721796119057,0.1023416684645282
19.605332,5.378488806220821,0.1021683427164128
19.609916,5.379622370465021,0.1019677027851265
19.614504,5.379978684975719,0.1017681724028318
19.6191,5.376082196676469,0.1015962559026691
19.623688,5.369731774462568,0.1014333338490715
19.628292,5.367057133304774,0.1011738762519016
19.632884,5.367569534346508,0.1008518266800437
19.637472,5.368448489530678,0.1005045184513009
19.642076,5.370226879162495,0.1001497423559794
19.646668,5.380711102393873,0.099674746963015
19.65126,5.391073140911105,0.0992056686899695
19.655844,5.396693637761805,0.0987964008052831
19.66044,5.400270896288919,0.0984224387956765
19.66502,5.400372601739587,0.0980722442039738
19.66962,5.405704587713369,0.0976285748888539
19.674212,5.408748965935272,0.0972377417829589
19.678808,5.40999447526188,0.0968608872300168
19.6834,5.408541681245543,0.0965096633434362
19.687996,5.407988321676854,0.0961486913332396
19.692584,5.409111646289316,0.0957795276246795
19.697176,5.416242501158393,0.0953202357621744
19.701776,5.424394975189263,0.0948462187570813
19.706368,5.429071896143688,0.0943937830149347
19.71096,5.434526066831615,0.093942434362116
19.715544,5.441901291128983,0.0934695387009503
19.720132,5.44596728851268,0.093066870803124
19.724732,5.4504439814874415,0.0926928198717651
19.729316,5.454920674462204,0.0923210378106744
19.733912,5.45951955215111,0.0919427819624588
19.738508,5.459376888173489,0.0916192935137792
19.743088,5.462709777272312,0.0912765641810533
19.74768,5.467841535266429,0.0909173331186792
19.75226,5.476937585193575,0.0905069411892099
19.756848,5.491552426520754,0.0900479728780545
19.761444,5.501958606486614,0.0896621775272434
19.766028,5.516451263099648,0.0892194236303511
19.770624,5.537728699702798,0.0887004929834456
19.775216,5.559661201325307,0.0881924438766808
19.779804,5.586457429328492,0.087633044131315
19.7844,5.613253657331676,0.0870757055079572
19.788992,5.6339201703641,0.0866102193637861
19.793596,5.651644010625287,0.0861801506683101
19.798176,5.676152630876593,0.0856791119783282
19.802776,5.702582304737339,0.0851625164988172
19.807368,5.727457479131082,0.0846472577822876
19.811964,5.7516775885054665,0.0841223058717216
19.816556,5.776386436736437,0.0835690698341468
19.821144,5.801095284967405,0.0830207931294954
19.825736,5.824904698750728,0.0824817381012818
19.830328,5.847814678086401,0.0819466625052785
19.83492,5.8715799504210935,0.0813632847312818
19.839512,5.9005755032789,0.0807130576965169
19.844112,5.925973318346116,0.0800894861893298
19.848704,5.945852342013298,0.0795055003926363
19.853296,5.966752984842273,0.0789089430919135
19.85788,5.984466585471722,0.0783631738233806
19.862468,5.999237513329938,0.0778538943854878
19.867056,6.013353376168794,0.0773341593970382
19.871648,6.023749316502916,0.076845008278209
19.87624,6.037210114322417,0.0763245940465262
19.880824,6.054757388789093,0.0757584182594746
19.885416,6.077168389636444,0.0751516231194116
19.890008,6.094349109960682,0.0746151221261643
19.894596,6.111652014999067,0.0740770497205327
19.899184,6.12756674673322,0.0735731881868996
19.90378,6.145280347362669,0.0730635004986965
19.908368,6.162871763277972,0.072564967003079
19.91296,6.17841994086969,0.0720894644078404
19.917552,6.1938459337472604,0.0716225987064381
19.922144,6.216833956348451,0.0711113627788922
19.926736,6.237412186483618,0.0706475692585238
19.93132,6.252105071076317,0.0702357054499203
19.935912,6.268230270421872,0.0698399795899745
19.940492,6.289874261167459,0.0694197138450433
19.945092,6.312539871074843,0.0689916446107803
19.94968,6.335694219838807,0.068537436125679
19.95428,6.358848568602771,0.0680867921193192
19.958868,6.385722839871471,0.0676216491149674
19.96346,6.412474926426029,0.0671653687038484
19.968052,6.437183774656997,0.0667342433196689
19.972644,6.46177043817382,0.0663151471649151
19.977236,6.486357101690643,0.0659027501578498
19.981828,6.513353557673491,0.0654534920154714
19.98642,6.538428960046897,0.0650195487358038
19.991016,6.566569219905682,0.0645610777822171
19.995604,6.595608914212116,0.0641047577432567
20.000192,6.625670227680343,0.0636444556945299
20.00478,6.659162952776389,0.0631423272782043
20.009376,6.693799481748376,0.0626283940925683
20.01396,6.7218956001585335,0.0621480802752213
20.01854,6.751257707158777,0.0616497902096983
20.023132,6.782785237196753,0.0611296861723175
20.02772,6.813779886929518,0.0605947549772998
20.0323,6.844119471642927,0.0600557258887158
20.036912,6.87572504494642,0.0595018880863428
20.0415,6.9059424449456825,0.0589763856903416
20.046108,6.933461541602002,0.0584567154885283
20.050696,6.955461846858289,0.0579540465599555
20.055284,6.977706521542868,0.0574405647843518
20.059868,7.000073380941592,0.056924309808877
20.06446,7.017943068102076,0.0564151494599961
20.069056,7.0292723447007335,0.0559273158039963
20.073644,7.041501055747039,0.055442255371034
20.078244,7.052708147631553,0.0549647130961002
20.08282,7.062238555334915,0.054485807201359
20.08742,7.067393975514182,0.0540056790145116
20.092012,7.069606722922217,0.0535416240695519
20.096612,7.066711374521282,0.0531120666525211
20.101196,7.064837645282143,0.0526778852063473
20.105788,7.061165047147707,0.0522430677962459
20.110384,7.054549776242036,0.0518218341511558
20.11498,7.047445766479783,0.0514249098044574
20.119576,7.039442322269881,0.0510279832714376
20.124176,7.024654098069862,0.0506564948291828
20.128764,7.005657212508523,0.0503160923930647
20.13336,6.989847369146712,0.0499505632340319
20.13794,6.974814775518401,0.0495890627283894
20.142536,6.960315062195302,0.0492430135228754
20.14712,6.944793729710409,0.0489022924001722
20.151704,6.922365432521252,0.0485906432018804
20.1563,6.90263543867504,0.0482766234696428
20.160884,6.887402617067065,0.0479605345894488
20.16548,6.865018461326537,0.0476862664235796
20.170068,6.840713251976567,0.0474163001565758
20.174644,6.810933392675193,0.0471938521176179
20.179248,6.782463663412533,0.0469942524757263
20.183828,6.75207288054043,0.0467990409329056
20.188436,6.721437728240036,0.0466143349701104
20.193028,6.682873992073585,0.0464647433249452
20.294068,5.481816831401634,0.0464211475999127
