Time,Force,Position
22.351048,2.498668735370001,0.1451320149101422
22.355636,2.638713168456344,0.1448064665964794
22.360232,2.773883635530271,0.1442559075724959
22.36482,2.9009930943922577,0.1439412953814605
22.369412,3.023062261079055,0.1434359632233383
22.374,3.14074620061002,0.1427123908667229
22.378596,3.248814632462039,0.1421301969974938
22.38318,3.3504545988346397,0.141495454721911
22.387768,3.443867230832524,0.1407876609757252
22.392364,3.525210421236812,0.1402836735325536
22.396952,3.595383604495148,0.1398940195404208
22.401544,3.6573294533787695,0.1394784587277532
22.406132,3.708393805993362,0.1392084992835079
22.41072,3.750008977091782,0.1390545334844996
22.415336,3.7834409552641137,0.1389543445339021
22.419924,3.818050639129276,0.1386330473785596
22.42452,3.853182963667908,0.1381074716744924
22.429108,3.880420606157374,0.1376814015155141
22.433696,3.8989863168641694,0.1373598649987205
22.4383,3.915831201941187,0.1369956987870992
22.442896,3.926990969455399,0.1367059656865859
22.447492,3.938639475826192,0.1363618206280057
22.452088,3.9511874166446335,0.1360013794325391
22.456688,3.961814303853634,0.1356965721807474
22.46128,3.970397952739048,0.1354647947838345
22.46588,3.97399569052964,0.1353850075910389
22.470468,3.9769383633008735,0.1352982616659039
22.475068,3.978082167176813,0.135252023538469
22.479652,3.984866947166931,0.1350626759496527
22.484252,3.990507923281109,0.1349185657183404
22.488836,3.9978255835764376,0.1347486530679395
22.493432,4.005920493605268,0.1345734200371607
22.498024,4.013726892757179,0.1343508099726509
22.502612,4.025741953270409,0.1339832604483282
22.507216,4.037101948764285,0.1336076007961517
22.511816,4.0426987834298345,0.133393393613122
22.516408,4.04061140365762,0.1333854720886582
22.521,4.043754304408519,0.1332082038176527
22.525588,4.048940443483003,0.1329689376196296
22.530176,4.049385040890959,0.1328462916976046
22.53476,4.053916114946087,0.1325965974633339
22.539352,4.057669939267714,0.1323530040994013
22.543936,4.058192579941187,0.132145583614107
22.54852,4.061369382508974,0.1318133409116152
22.553104,4.062991685609757,0.1314927060879393
22.557684,4.068045400338357,0.1310379861023783
22.562264,4.07412073422875,0.1305517374917923
22.566856,4.079418818385643,0.1300706019114056
22.57144,4.079442480570792,0.1296886477903729
22.576036,4.08097650077432,0.1292244653514192
22.580628,4.080056587063194,0.1287878238620967
22.58522,4.076682739437417,0.1283786893868715
22.589812,4.0726538267922825,0.1279596326457794
22.594404,4.067969849127793,0.1275349542201892
22.598992,4.064429675339241,0.1270665791149414
22.603572,4.062522044283211,0.1265037724398779
22.608172,4.058815544331886,0.1259696493333646
22.612756,4.049878763857447,0.1256029941076295
22.617348,4.039143114487714,0.1252703901412989
22.621928,4.034414995374594,0.1247680028657277
22.62652,4.027765822652034,0.1243128910558666
22.631108,4.022671149396479,0.123848691579154
22.6357,4.019008790893781,0.123386724044643
22.64028,4.009338902134468,0.1230900671973591
22.644872,4.001345697556306,0.1227710944885469
22.64946,3.99286375412156,0.1225024057531641
22.65406,3.988101733191552,0.1221556401493168
22.658648,3.984894211728548,0.1218011914560562
22.66324,3.9838962547519055,0.1214472748818439
22.667832,3.984330612528121,0.1211004807634916
22.672412,3.987218904218989,0.1207298888920044
22.677004,3.992683314538655,0.1203232944375356
22.681604,4.003955027135273,0.1198604544072791
22.686196,4.016536869770603,0.1194233689393564
22.690792,4.029773777425292,0.1189988296924154
22.69538,4.042277576795105,0.1186491260679263
22.699976,4.061976851746102,0.1181788079959107
22.704564,4.083474995592394,0.1176766836503203
22.709152,4.105261650315606,0.1172176682186169
22.713748,4.127336815915736,0.1168151144815087
22.71834,4.154319849345173,0.11637898864423
22.722944,4.179914709470378,0.1160052584409718
22.72754,4.211028360995615,0.1155448954544566
22.732132,4.252280160873272,0.1149134693826648
22.73672,4.2956193405231415,0.1143099686119595
22.74132,4.346398365182487,0.1135984941302569
22.745908,4.393745978214014,0.113009225027704
22.750508,4.442770275426691,0.1124138569969428
22.755104,4.493471256820519,0.1118099019366205
22.759696,4.543028434338408,0.1112485931942415
22.76428,4.5950395457709465,0.1106809088316101
22.768876,4.6483607872422015,0.1101388197248856
22.773464,4.698983725370511,0.1096500102524843
22.778056,4.744987306546435,0.1092328622561756
22.782648,4.793444821637013,0.1088110095109069
22.78724,4.84357902090874,0.1083765348344166
22.791824,4.891137101551668,0.1079775774294868
22.796412,4.937917932461096,0.1075805543472774
22.801,4.98813017499834,0.1070934448304
22.805592,5.038831156392168,0.1065804472000198
22.810184,5.085401519690192,0.1061011808484113
22.814772,5.136424913777828,0.1055179986607632
22.819368,5.183073320341372,0.1049953682135675
22.823948,5.22228188189544,0.1045859352218066
22.828544,5.256704760334348,0.1041909141959482
22.833136,5.281888924868489,0.103921233695125
22.837724,5.306007328792207,0.1036145644506722
22.842332,5.3290599721055045,0.1032769323867854
22.84692,5.350147420360731,0.1029158527484403
22.851512,5.372623041920188,0.1025127255593478
22.856104,5.390557349792779,0.1021038925420594
22.8607,5.407792451197384,0.1016367154283035
22.865304,5.419875315344394,0.1012036500241224
22.869892,5.436289025566869,0.1006821084230742
22.874496,5.448816487121833,0.1001639138992603
22.879084,5.458601503885227,0.0996186199796139
22.88368,5.46695420589576,0.0990650827372264
22.888268,5.476040016191168,0.0984596402289743
22.892868,5.483571327019572,0.0978598539316486
22.897456,5.486605465609735,0.0973031442770684
22.90206,5.488085104732894,0.0967437539654507
22.906648,5.483923767741875,0.0962520169930744
22.911248,5.479229550445645,0.0957430293375652
22.915832,5.4758013217395,0.0951995849353409
22.920424,5.475437950518736,0.0946067653400514
22.925016,5.480182675106941,0.0939344896365593
22.929612,5.484927399695144,0.0932612258271743
22.9342,5.485341278207884,0.0926685718820653
22.9388,5.483589733682889,0.0921156216634959
22.943388,5.478118266653158,0.0916013076622149
22.947984,5.47587798327158,0.091084048208622
22.952568,5.471227907423979,0.090624698255236
22.95716,5.470053384652823,0.0901424983054512
22.961756,5.4683901230250855,0.0896982266366662
22.966348,5.468281360864352,0.0892576416590907
22.97094,5.471281597637626,0.0888243925269291
22.975528,5.477635202773199,0.0883835829403828
22.980128,5.485954002966846,0.087977077685821
22.984716,5.4954607484850575,0.0876034875745587
22.989304,5.5062776240419815,0.0872495145160746
22.993896,5.525311594341883,0.0868362638212083
22.998484,5.546799498556436,0.0864207138890824
23.00308,5.567432109771969,0.0860642586912456
23.007668,5.588597601292714,0.0857283279108523
23.012256,5.610951038138026,0.0854261832061198
23.01686,5.628973628907873,0.0851992238818124
23.021448,5.651126837773522,0.0849701191742973
23.026052,5.678021588305702,0.0846952263782571
23.030644,5.7085140766284725,0.0843980392922824
23.03524,5.747223659694219,0.084048171264531
23.03982,5.78773211165526,0.083695110540054
23.04442,5.833881539730482,0.0832999300308587
23.049,5.883873075024585,0.0828746516659539
23.053596,5.931166306975745,0.0824678028300111
23.05818,5.979358973374554,0.082061641077864
23.062776,6.029594878096948,0.081638931443411
23.067368,6.078809163657551,0.0812360716551335
23.071964,6.127490568912942,0.0808224395912658
23.076552,6.171919171358386,0.0804200334303312
23.081144,6.220556435165149,0.0799672139307715
23.085728,6.259588430924705,0.0796032380568351
23.090312,6.298087546379051,0.0792241412142174
23.0949,6.335398716508829,0.0788161537586987
23.0995,6.374220244656983,0.0783722765959686
23.104088,6.411853827480569,0.0779070811595647
23.10868,6.45214157219847,0.0773851701940001
23.113276,6.488543068248861,0.0768541312460962
23.117864,6.5274765414794205,0.0762822642461186
23.122448,6.567920372728358,0.0756801799501094
23.127036,6.596549371443726,0.0751390373781057
23.131616,6.619126698453852,0.0746135672835489
23.136212,6.63463073459694,0.0741143454118971
23.1408,6.644860348768287,0.073632757194402
23.145404,6.655456517082071,0.0731300568268916
23.15,6.661677697871761,0.072637987228357
23.154588,6.662868826118002,0.072148190731155
23.159192,6.662872009039676,0.0716329329822949
23.16378,6.659399638884903,0.071124199157788
23.168376,6.655394388424919,0.0705951576028313
23.172956,6.643294227936105,0.0700933065161351
23.177556,6.6340925987698975,0.0695212544303475
23.18214,6.621415416527245,0.0689513026963665
23.186744,6.612702526217619,0.0683491381847416
23.191328,6.598470844507962,0.0677692063510235
23.19592,6.5794976211317735,0.0672140495380045
23.200512,6.557459540270205,0.0666857372874942
23.205108,6.535299274694491,0.0661617614617103
23.209716,6.5064764138428055,0.065674437842843
23.214308,6.471890392162794,0.0652196444043418
23.2189,6.443844781044609,0.0647307784221026
23.223496,6.418497473269371,0.0642317303860183
23.228088,6.393927415227632,0.063733008693221
23.23268,6.370256791633541,0.0632289262171985
23.237272,6.347607787201244,0.0627138878258176
23.241856,6.326757651664241,0.062191255423155
23.246444,6.306440396432452,0.0616840666323415
23.25104,6.283835533448783,0.0612058559370955
23.255632,6.263151724074556,0.0607145226826497
23.260224,6.24851958640557,0.0602241045930644
23.26482,6.2410829243177695,0.0597182308359253
23.269408,6.23471202284039,0.0592500492873945
23.273992,6.234637162496545,0.0587705546615123
23.27858,6.233418498276762,0.0583088801120191
23.283168,6.240172559371663,0.0578426617327452
23.28776,6.25040217354301,0.0573758594586999
23.292348,6.263207906343155,0.0569121316153153
23.296936,6.275647085000863,0.0564683661987471
23.301524,6.291561816735017,0.05602666621428
23.306116,6.310052667097969,0.0555874580340409
23.310712,6.329565136622712,0.0551449120324376
23.315292,6.350754290328608,0.0547103030614912
23.319888,6.377584420148681,0.0542604079741143
23.324468,6.40674629916926,0.0538300971777509
23.329076,6.437462677656846,0.0534155726023421
23.333664,6.471776793935021,0.0530014910411797
23.338264,6.505724356070759,0.0526071374135736
23.342852,6.543514025425381,0.0521993787408105
23.347444,6.581836575085214,0.0518143432158448
23.35204,6.614518148630869,0.0514487813914444
23.356632,6.643357614957639,0.0511016178675059
23.361232,6.674240319607997,0.0507447607722082
23.365832,6.7033241553630605,0.0503935777353676
23.370424,6.730120383366245,0.0500698113281408
23.375016,6.7495989510741,0.0497571817996562
23.379604,6.769077518781955,0.0494455133376426
23.384192,6.788678271203956,0.0491296221728158
23.38878,6.809422827501897,0.0488015528495592
23.393372,6.827102526314457,0.0484930618724648
23.397968,6.840940117908135,0.0481964633961917
23.40256,6.848647994531053,0.0479381489112974
23.407148,6.849693275877996,0.0476985169063748
23.411728,6.8408889197494425,0.0475029383473039
23.416308,6.827709576096795,0.0473006119829569
23.420904,6.806846018006381,0.0471222297505305
23.425484,6.7776431804588455,0.046954609419073
