Time,Force,Position
26.018388,2.859936135626221,0.1694354672329882
26.022984,3.040927252238215,0.1677915484901611
26.027568,3.2141797733320767,0.1663150657461578
26.032164,3.379160818602595,0.1648257904700404
26.03676,3.527408923878503,0.1640636110657142
26.041356,3.6641543696829126,0.1632980998176963
26.045952,3.79119602491112,0.1625120713894793
26.050548,3.906246281811247,0.1619338847497308
26.055136000000005,4.007628456202144,0.1615359641711769
26.059728,4.1007391547696965,0.161093139375172
26.06432,4.189542669446936,0.1604607227104391
26.068908,4.266843524652677,0.159883901591173
26.073496,4.329943417043977,0.1594158805207153
26.078092,4.392045352458633,0.1586601738889417
26.082684,4.445098562316445,0.1578592602431086
26.087272,4.490779730798561,0.1569923229802388
26.091872,4.522836958220075,0.1562952046587321
26.09646,4.547776753325924,0.1557187691825565
26.101056,4.571284233678914,0.1551569435977756
26.105644,4.594258833726692,0.1545974397762652
26.110232000000003,4.615923303735758,0.1540397266737187
26.114836000000004,4.637954327887261,0.153454323302025
26.119424,4.663294578952435,0.1527680148314076
26.124016000000005,4.691166807197781,0.1519859619628971
26.128612000000004,4.720427208747356,0.1511364109525078
26.1332,4.7555729558394,0.1501360904979028
26.137796,4.791495952664948,0.1491324014242852
26.142384,4.825375711166907,0.1481873754578045
26.14698,4.860932153850019,0.1472144399593672
26.151568000000005,4.89620008565621,0.1462168932576759
26.156168,4.925049791614719,0.1453709505563252
26.160748,4.951978443963787,0.1445755346854457
26.165348,4.9808281499222975,0.1437348160728504
26.169940000000004,4.9973742844906575,0.1431973028496135
26.174532,5.018906330153839,0.1425384974424601
26.179128,5.0385173222075785,0.1419258541212774
26.18372,5.058783379280675,0.1413119602913011
26.188328,5.081092674677359,0.140650458975024
26.192924,5.104301404521691,0.1399790346496028
26.197512000000003,5.127265764937731,0.1393430032243477
26.202104,5.149863571211334,0.1387427476085521
26.206684000000003,5.17156194303729,0.1381652465006091
26.211276,5.187497154034921,0.1377224354701837
26.215864000000003,5.20012313811888,0.1373825009365596
26.220464,5.212382568060402,0.1370734463267242
26.225048,5.22247657496419,0.1368316970846202
26.229644,5.232692766582126,0.1365816133640581
26.234236000000003,5.2432755123425,0.1362997387043915
26.238816,5.255246431407103,0.1359659160068363
26.243404,5.268527480510418,0.1356469372615257
26.247992000000004,5.285650636832616,0.1352501864811389
26.252572,5.308947649574203,0.1347681709549109
26.257172000000004,5.330079239278058,0.134344840427337
26.261756,5.354686382058359,0.1338671186011373
26.266348,5.371609310400895,0.1335485982258326
26.270940000000003,5.393395965124107,0.1331336023345971
26.275528,5.420290715656286,0.1326049504168119
26.280124,5.444364978131376,0.1321341612533919
26.284716000000003,5.465618752549378,0.1317163811358415
26.289320000000004,5.482375354729139,0.1313694368109242
26.2939,5.499498511051337,0.1309963843906579
26.298500000000004,5.515966602354179,0.1306204792606279
26.303088,5.532556878371167,0.1302334174888908
26.307692000000003,5.549269339102301,0.1298364987234426
26.31228,5.56610398454758,0.1294297139019464
26.316880000000005,5.5792187074881205,0.1290871229508353
26.321464,5.593355049590455,0.1287252707468029
26.32606,5.612110748645176,0.1282917143527869
26.330656000000005,5.630622078271607,0.127882866218022
26.335248,5.643614616498004,0.1275608206303147
26.339848000000003,5.6566071547244,0.1272431523424207
26.344448,5.665469074854993,0.1269667281526918
26.349044,5.678173102204471,0.1266242474099704
26.35364,5.694963606201122,0.1262011747724957
26.358220000000003,5.715718402130801,0.1257005575863638
26.362808,5.735573763612833,0.1252228159188682
26.367396,5.750321029285897,0.1248520775499904
26.371988,5.768910402177844,0.1244225876744273
26.376584,5.788643578945729,0.123963883927577
26.381176000000004,5.810952874342413,0.123478568173837
26.385768,5.833139985024952,0.1230055786232044
26.390348000000003,5.855737791298555,0.1225578479975189
26.39494,5.882055520076896,0.1220599648005865
26.399532,5.910538671892967,0.1215179689849775
26.40412,5.9402878122991245,0.1209421178362241
26.408716,5.972857440762372,0.120323421954617
26.413304000000004,5.999541723683149,0.1198031461865638
26.417892,6.021728834365685,0.1193436256660258
26.422484000000004,6.041217641705279,0.1189187478148013
26.427084,6.067735598463282,0.1183696458777809
26.431676000000003,6.092332501611844,0.1178545102510507
26.436260000000004,6.114886166436819,0.1173793507318894
26.440852,6.138828004566027,0.1168707104020097
26.445436,6.157006681866908,0.1164518771631088
26.450036000000004,6.178005847224878,0.1160010232702258
26.454624000000003,6.19504072064982,0.1156172975110148
26.459224,6.215262636274289,0.1151729957706816
26.463808,6.227678152746846,0.11484821441496
26.468400000000003,6.242914157276493,0.1144895046814227
26.47298,6.25761728150093,0.1141178732683347
26.477576,6.2706437215442135,0.113758130353993
26.482172,6.285058334891731,0.1133596751175452
26.486768,6.301271817134542,0.1129500811191272
26.491356000000003,6.319406352986794,0.1125215827243806
26.495940000000004,6.340239192181992,0.112072813722321
26.500528000000003,6.361194216091334,0.1116191974114567
26.50512,6.392121062190321,0.1110216795977681
26.509712,6.4266456460799,0.1103943258679088
26.514296,6.46501233718836,0.1097226408455466
26.518892,6.4983931172019975,0.1091302457157886
26.52348,6.532795516377431,0.108524802606128
26.528072,6.5709178380576,0.1078831473030663
26.532652,6.604831498376449,0.1073186845594412
26.537240000000004,6.642709450628328,0.10670148223582
26.541856000000003,6.67878853398491,0.1061106926126492
26.546444,6.717932474826872,0.1054774509976306
26.55104,6.757076415668835,0.1048525496184256
26.555628,6.804271125091001,0.1041177139008025
26.560216000000004,6.850566400065517,0.1034015655370527
26.564812000000003,6.898538359221185,0.1026837299349074
26.569404,6.948309187272147,0.1019537131627565
26.574,6.995259527266022,0.1012573066200114
26.578588000000003,7.035791641412215,0.1006240168427737
26.583188,7.069783344996582,0.1000584027576009
26.587768000000004,7.102220549113944,0.0995024780444367
26.592368,7.135801557107245,0.0989316337822626
26.596952,7.165540457881664,0.0984127450796662
26.601552,7.191681620865492,0.0979227550991867
26.606136,7.212181807735142,0.0974855935532336
26.610732,7.234603048214232,0.09702990010084
26.615328,7.255225419798028,0.0965878970233783
26.61992,7.271350619143583,0.0961787321334511
26.624512000000003,7.283223015679192,0.09578452785549
26.629104,7.293418728033648,0.095398381853489
26.633692000000003,7.3046360595499005,0.0950035557647115
26.638284,7.314176706885,0.094616312941896
26.642876,7.322940104486602,0.0942310496626165
26.64746,7.324019287650433,0.0939187653745293
26.652048,7.323421786633117,0.0936124857063006
26.656624,7.320125982272858,0.0933235441528558
26.66122,7.317851797074391,0.0930237248108728
26.665800000000004,7.318398099933013,0.0927016144748285
26.67038,7.320088206667575,0.0923601777696556
26.674976,7.328196539249816,0.091975247722337
26.679568000000003,7.332751275490096,0.0916522870931672
26.684164000000003,7.335262773406788,0.0913540849253745
26.688744,7.336874836875832,0.0910627636242807
26.693332,7.341429573116112,0.0907441806682792
26.697936,7.353912893222448,0.0903491508005522
26.702524000000004,7.368561636366517,0.0899289179368672
26.707116,7.387296856157759,0.0894671256078198
26.711708,7.4069315103966495,0.0889993742690141
26.716308,7.435927063254458,0.088466486769418
26.720896000000003,7.465455496417474,0.0879499024515338
26.725492000000003,7.486400280695078,0.0874999701387024
26.73008,7.507100695544389,0.0870639270297841
26.734680000000004,7.527434556251264,0.0866489209355931
26.739272,7.557495869719491,0.0861544825671107
26.743868,7.589233867368869,0.0856609588566915
26.74846,7.6248139722371295,0.0851410236055676
26.753056,7.66153788098133,0.0846116332353326
26.757644,7.698383974439674,0.0840821081802698
26.76224,7.739194359831048,0.0835229771605604
26.766828000000004,7.776284822717686,0.0829915380154789
26.771424000000003,7.81627381692693,0.0824005030790247
26.776016,7.857406615012112,0.081796905838806
26.780608,7.89649617477371,0.0812154358005029
26.785196,7.932765246478216,0.0806550395817979
26.789788,7.963926222373756,0.0801498072657218
26.794392,7.991122906336266,0.0796802468840307
26.798984000000004,8.014233113651603,0.0792515735618605
26.803580000000004,8.038364940128732,0.0788141548433288
26.808168,8.055056921596387,0.0784192338522379
26.812768,8.072237641920626,0.0780036333714185
26.817356000000004,8.097224761396776,0.077530743703395
26.821948,8.12323350003472,0.0770506437265226
26.826536000000004,8.1470326741863,0.0765587353762559
26.831124000000003,8.163025449185973,0.0761259945565981
26.83572,8.177097170576202,0.0757072790754807
26.840308,8.186549535014048,0.0753115612346522
26.844900000000003,8.193181411394804,0.0749331485797356
26.849492,8.199935472489706,0.0745518852981263
26.854084,8.204768479975165,0.0741847506362611
26.858688,8.211111845479,0.0737886671639495
26.863280000000003,8.215045418516812,0.0734262592903646
26.867884000000004,8.21910117626877,0.0730599550049538
26.872476,8.222501869001372,0.0726846941011132
26.877076,8.229866853667001,0.0722843577115896
26.881664,8.239397261370366,0.0718644344761838
26.886264000000004,8.251992526559107,0.0714222483426824
26.890844,8.26740827980494,0.0709685431536263
26.895448,8.28793212885974,0.0704808348305835
26.900032000000003,8.315895822924013,0.0699666310994226
26.90462,8.343859516988285,0.0694561613197558
26.909208,8.372722645500208,0.0689490190916777
26.913804,8.400808524278627,0.0684411678971015
26.918392000000004,8.433147205866995,0.0679357619852752
26.922988000000004,8.467284756350658,0.0674260374845668
26.92758,8.501666676262612,0.0669076233906787
26.932168000000004,8.539646333965159,0.0663828158699686
26.936756000000003,8.576726557220058,0.065861788433698
26.941356,8.605878196608899,0.0653862797561881
26.945944000000004,8.629921740188774,0.0649459510347971
26.950536,8.651311121874333,0.0645471313004509
26.955132,8.675643176331125,0.0641340118454352
26.959720000000004,8.698709242197832,0.06374007891253
26.96432,8.725250861140987,0.0633455663315132
26.968904,8.75040430677991,0.0629772026089611
26.973496000000004,8.77147127577166,0.0626370860405487
26.97808,8.78743014895444,0.0623310699946274
26.982672,8.803511206851368,0.0620223483132769
26.987264000000003,8.814361984225183,0.0617543534717158
26.991860000000003,8.816384743285292,0.0615303841815738
26.996448,8.81419884098408,0.0613369977788381
27.001036,8.8087037117692,0.0611734218918795
27.005628,8.803863647573673,0.0610184981551556
27.010236,8.796203095321058,0.0608729920701225
27.014832,8.792629019715617,0.0607030181867124
27.019428,8.789710009129534,0.0605417615927062
27.024016000000003,8.784869944934007,0.0603882028819276
27.028616,8.783383249100783,0.0602398339040771
27.033196000000004,8.791501821314762,0.0600549507506509
27.037796,8.808204042414157,0.059840547506792
27.042388000000003,8.827971120998933,0.0596087095408242
27.046984,8.847371645441271,0.0593930703749336
27.051576000000004,8.86869322349305,0.0591715745590182
27.056172000000004,8.891935855154271,0.0589456780750077
27.06076,8.911580749024901,0.0587245167103152
27.065352000000004,8.935312119542704,0.0584811127597814
27.069956000000005,8.966849889212419,0.0582074729184208
27.074552000000004,8.997610409148633,0.0579327573107656
27.07914,9.026327690761256,0.0576691341893964
27.083732000000005,9.061951937078144,0.0573757208624828
27.088324,9.102317725061564,0.0570683935579087
27.092908,9.14215063273977,0.0567481725090162
27.097488,9.18120629068448,0.0564257099712747
27.102084,9.222549556381065,0.0560854152524643
27.106676,9.256741487945094,0.0557853044973523
27.111264,9.291177788937418,0.0554777796876901
27.115864,9.325858459358033,0.0551622177098283
27.120444,9.357063576702195,0.0548466470048613
27.125036,9.38646982515107,0.0545359814202057
27.129632,9.40831404387632,0.0542458322519709
27.13422,9.429381012868069,0.0539536178561029
27.138824,9.449260036535252,0.0536413534732197
27.143412,9.467462376021285,0.053327211240051
27.148000000000003,9.477081066621905,0.0530360786306479
27.152596000000003,9.487721376384314,0.0527394762673477
27.157188,9.496196263108994,0.0524585825219488
27.161784000000004,9.49915235843364,0.0521864740460231
27.166372000000003,9.49982084600641,0.051933393390149
27.170964,9.504820179654644,0.0516521824745717
27.175556,9.506221775512287,0.0513733055725546
27.180156000000004,9.504147818293484,0.0510914081010807
27.18474,9.501951676360534,0.0508135692874506
27.189348000000003,9.494891808046908,0.0505492845563849
27.19394,9.47581687922005,0.0503312687627293
27.198536000000004,9.45915174285922,0.0500891132531392
27.203128,9.43672344567006,0.0498607845771966
27.207724,9.409431422100228,0.0496456783407257
27.21232,9.380096160206808,0.0494388496393858
27.216908000000004,9.344464857179856,0.0492315710600919
27.221512000000004,9.308300673847688,0.049008484941262
27.226104,9.26355284163011,0.0488028107284425
27.230692000000005,9.212797479155917,0.0486182671332709
27.235288000000004,9.156156771139251,0.0484507769719158
27.239876,9.10041549757024,0.0482817384145188
27.244464,9.040709932068191,0.0481253165712772
