Time,Force,Position
23.880124,3.2084011006535365,0.1631228438819484
23.884724,3.4251457050066327,0.1615902523740711
23.889316,3.634718495963697,0.1598026327983402
23.893912,3.8332773663058473,0.1582057798382439
23.898516,4.019922881585432,0.1567414982780654
23.903108,4.187625892384047,0.1557143627009194
23.907704,4.340595060063011,0.1548102649200033
23.912292,4.479607634355824,0.1539850349377579
23.916892,4.610060221948373,0.1530425186487627
23.921468,4.727455650602421,0.1521928770905477
23.926072,4.831383224726902,0.1513410714866623
23.930656,4.917756467674643,0.150630084510397
23.935248,4.991727616703236,0.1499739599057173
23.939832,5.053785410669267,0.1492808319490002
23.944424,5.104052034286879,0.1485437981417488
23.949012,5.134598903690018,0.1480022998940075
23.953608,5.1542981786410165,0.1474586756069239
23.958196,5.166669553664946,0.1469162788567312
23.962792,5.167181954706678,0.1465716501463204
23.96738,5.162708444653589,0.1463562252815565
23.971968,5.160278172924085,0.1460856792880013
23.999492,5.085376870552618,0.146040597275632
24.004084,5.079559328643926,0.1459392371845504
24.00868,5.074885590611173,0.145799398701544
24.013268,5.06714699509304,0.1457422599001721
24.017876,5.062517398508913,0.1456583653795311
24.022464,5.065327646934263,0.1454177540659769
24.027052,5.063762907835518,0.1452511553421645
24.031648,5.065918091241511,0.1450078732990203
24.036236,5.069261219972073,0.144783302182715
24.040832,5.080166378426252,0.1443948962060659
24.045412,5.090949352166286,0.1440177978936597
24.050008,5.094048111468555,0.1438158036896548
24.054596,5.099478619971329,0.1435962768075366
24.059196,5.11234897348358,0.1432282729055658
24.06378,5.123708968977453,0.1429311302976462
24.068368,5.142386624766656,0.1424991134278231
24.07296,5.165683637508243,0.1419797022444886
24.077556,5.196298310545161,0.141330624977532
24.082152,5.234230643877408,0.1405494773273603
24.086748,5.271019173333713,0.139808174861229
24.091348,5.307030453056518,0.1390646691271241
24.095944,5.338300191112791,0.1384314204368129
24.100536,5.371124428636066,0.1378021897037771
24.105128,5.406891338930578,0.137106038153709
24.109708,5.441880999491589,0.1364222869530229
24.114296,5.474949606443157,0.1357934463584973
24.118888,5.514069885099967,0.1350858941587329
24.12348,5.549348056537897,0.134462360452952
24.128072,5.585237151546555,0.133795855232292
24.132652,5.617161954622187,0.1332234669359102
24.137248,5.652806680202552,0.1325957724692242
24.141828,5.6952361857730365,0.1318384789446298
24.14642,5.736233376590665,0.1310858083452151
24.151016,5.771589591294112,0.1304419018378486
24.155604,5.805146937102266,0.1298232564060751
24.1602,5.836372533709912,0.1292317337037305
24.164796,5.868864118907641,0.1286150888070263
24.169384,5.898368889885509,0.1280194219439928
24.173984,5.923498673339282,0.1274829706057852
24.178568,5.9524705640119375,0.1268882971129233
24.183172,5.989004484408213,0.1261822059245624
24.187752,6.026804393394572,0.1254426483954672
24.192352,6.060107130142695,0.124767186192662
24.19694,6.094431486052608,0.1240786450908339
24.201528,6.126956973067226,0.1234138609613582
24.206116,6.1575614064724045,0.1227846052636411
24.210712,6.183668667639343,0.122214881547612
24.215296,6.213373666596873,0.1216049630872696
24.219888,6.2456547841832,0.1209806481700428
24.224472,6.279079705645467,0.120331847265961
24.229068,6.308906889317143,0.1197332010173703
24.233656,6.335136335198225,0.1191839519943019
24.238236,6.363653388831188,0.1185884862593382
24.242816,6.396256919111324,0.1179256767213099
24.247408,6.430492992123983,0.1172058356069017
24.251992,6.460764773203612,0.1165523529478362
24.256576,6.485151208740774,0.11599394499278
24.261168,6.505451167630761,0.1155081735450298
24.265748,6.526117680663184,0.1150005744767412
24.27034,6.54420807506681,0.1145202367072203
24.274932,6.555880243622753,0.1141181613110014
24.279516,6.566408608302758,0.1137420872672616
24.284116,6.578980211306351,0.1133333530770381
24.288704,6.588853510967,0.1129532398499938
24.293288,6.602568917846533,0.112524396191318
24.297884,6.618327563049651,0.1120653045446385
24.30246,6.635474381557002,0.1115674174112035
24.307052,6.647224593378462,0.1111227155938143
24.31164,6.657420305732918,0.1106860011761016
24.316236,6.669659256410961,0.110221743221046
24.320816,6.683819260698446,0.109736186049626
24.32542,6.698878699433577,0.1092447031560725
24.33,6.712427780150335,0.1088019540064697
24.334592,6.723933622543504,0.1083937663802736
24.339184,6.735850160527737,0.1080083802774242
24.343776,6.749687752121412,0.1075994327544441
24.348368,6.766590201200469,0.1071453488562697
24.352968,6.786435323050759,0.106653664573088
24.35756,6.807590574939763,0.1061782126340683
24.362152,6.827846392381118,0.1057131040226815
24.366736,6.8527215667748616,0.1052071713952002
24.37132,6.878740545044542,0.1046818742358846
24.375908,6.903737904152428,0.1041738290194104
24.380492,6.933354620212702,0.1036267088499186
24.385072,6.961827532397034,0.1031073430627453
24.389652,6.988379390971926,0.1026128580885274
24.39424,7.018406802623263,0.1021034898756985
24.398836,7.05407519038878,0.1015403791178639
24.40342,7.084513297631184,0.1010529792915365
24.408012,7.112785981835855,0.1006051589880331
24.412604,7.1409364813263805,0.1001691664580352
24.417192,7.172562533893351,0.0997203317190214
24.421784,7.205865270641471,0.0992690100204185
24.426372,7.24006744183724,0.0988154034637078
24.430976,7.275946297214158,0.0983596093351076
24.435552,7.3156672598099615,0.0978717903493216
24.440152,7.35604328742512,0.0973954027538359
24.44474,7.3941317072884,0.0969581195626446
24.449336,7.4307878123988225,0.0965163373946829
24.453924,7.4710416552998336,0.0960565258506444
24.458524,7.507331206267819,0.0956439851405671
24.463108,7.546319060578747,0.0952203998787153
24.4677,7.588005218232618,0.0947838458581592
24.472296,7.624172584486456,0.0943907268929702
24.476888,7.6618503087586705,0.0939671635070864
24.481476,7.700427467478534,0.0935404551265761
24.486072,7.735284703693659,0.0931460908604806
24.490648,7.770141939908783,0.0927579020253207
24.495244,7.812150510256464,0.0922926503884157
24.49982,7.853626200298932,0.0918170915694442
24.504412,7.891381967836664,0.0913691460093914
24.509008,7.922841694240864,0.0909599739152073
24.513596,7.9502929872634045,0.0905533951833233
24.518188,7.975945411390649,0.0901589720879423
24.522776,7.998733206012177,0.0897508078418985
24.527364,8.017556708700676,0.0893829315116612
24.531956,8.033804092760377,0.0890243616349575
24.53654,8.055526126771483,0.0885981943153705
24.541136,8.080068648839678,0.0881558977093777
24.545724,8.0971713258984,0.0877624148345609
24.550312,8.116928164851435,0.0873217397770336
24.554904,8.132187831566233,0.0869059716355427
24.559504,8.144993564366377,0.086494258535966
24.564096,8.162663023547198,0.0860457610074086
24.568692,8.173547702737903,0.0856504201778903
24.573284,8.182877882461602,0.0852527723259482
24.577876,8.194373485223032,0.0848317709114651
24.582476,8.202393534908019,0.0844231986115359
24.58706,8.207837465964205,0.0840243839605377
24.591648,8.212259777858602,0.0836352266159308
24.596232,8.218969697504875,0.0832156541207293
24.600824,8.224002932969995,0.0827957332970571
24.605408,8.232756090939857,0.0823559240448328
24.61,8.239055314995063,0.0819153615870028
24.61458,8.24600960406963,0.0814828964080564
24.619176,8.248588905620101,0.081061229462724
24.62376,8.25459961879839,0.0805961630200332
24.628344,8.255624420881857,0.0801739516744133
24.632932,8.25329585460302,0.0797561629604995
24.63752,8.256197568847302,0.0792868116149598
24.642116,8.255134991158553,0.0788485669986831
24.646692,8.255094032631598,0.0784013819052139
24.651276,8.255297443532934,0.0779438164034059
24.65586,8.250881497481886,0.0775088814681981
24.660436,8.249530408916218,0.0770457690519404
24.665048,8.249200939512342,0.0765740396255132
24.669632,8.24605098205138,0.0761181496233246
24.674224,8.245965882075796,0.0756378601326099
24.67882,8.244081913204916,0.0751642597957166
24.68342,8.243219563495831,0.0746822277115028
24.688012,8.244278267396188,0.0741909269589557
24.692604,8.251100132124868,0.073666440292658
24.697196,8.254979324082313,0.0731624318820291
24.701776,8.261679004096848,0.0726442269636267
24.706376,8.270299737720824,0.0721176635863986
24.710964,8.287626304944359,0.0715417601407886
24.715564,8.301643645254222,0.0710028843115642
24.720156,8.315783170278229,0.0704586009536489
24.724752,8.334175498112184,0.0699165408844749
24.729336,8.353877955984855,0.0693953894524794
24.73392,8.374357663591026,0.068876791155549
24.738512,8.3922612525684,0.0683596605897788
24.743112,8.407877233793895,0.0678683700593163
24.747704,8.426069333648188,0.06737647105119
24.752304,8.446593182702987,0.066895848383249
24.756892,8.467772096777143,0.0664257803505751
24.761484,8.491649314194245,0.0659517775821713
24.766064,8.514138358307115,0.0655043267379968
24.770656,8.536793728582756,0.0650867846415994
24.775248,8.560104163877757,0.0646793908516049
24.77984,8.57908375309729,0.0643115760186326
24.784436,8.598840592050326,0.0639510761984039
24.789012,8.623338972669893,0.0635744414553441
24.793604,8.649269668042319,0.0632119580628013
24.798188,8.674056559538807,0.0628640686775002
24.802768,8.698599081607002,0.0625316432170081
24.807356,8.724041038122847,0.0621984601153981
24.811948,8.75308073242928,0.0618617911292255
24.81654,8.776479450621535,0.0615454748859034
24.821144,8.794359377413757,0.061243204289696
24.825732,8.815959226710719,0.0609323564909045
24.830336,8.845531801322364,0.0606173629034998
24.834924,8.879968102314686,0.0602832953238987
24.839528,8.913627153573506,0.0599475982251459
24.844104,8.945609520651175,0.0596113271226087
24.848696,8.978613506890635,0.059271754028805
24.85328,9.00879700507301,0.0589422316721517
24.85788,9.037958884093593,0.0586199679823374
24.862472,9.070552174741987,0.0582682043859407
24.867064,9.10465582340876,0.057894827540241
24.871656,9.14398975259865,0.0574899663721563
24.876248,9.18205769319845,0.0571041370700593
24.88084,9.213585223236423,0.0567362438117577
24.885436,9.24854416490222,0.0563428112067178
24.890012,9.282848041548656,0.0559431334535961
24.894604,9.31420924542386,0.0555587124915795
24.899192,9.350434175679736,0.0551609248954699
24.903788,9.383960802592672,0.0547681363464346
24.908376,9.419652852543338,0.054361164042056
24.912964,9.458287575265242,0.0539433867131894
24.917556,9.495123429091848,0.0535303548083497
24.922132,9.522842753727833,0.0531295617338361
24.926724,9.544798917535491,0.052746482405968
24.931316,9.564711843019564,0.0523734868108894
24.935892,9.584624768503634,0.0520013464273318
24.9405,9.599796152321176,0.0516407138905789
24.945092,9.611369798348123,0.0512802369609375
24.949692,9.620367325746276,0.0509158118609055
24.954288,9.62155845399252,0.0505764892464575
24.958876,9.6148209983727,0.0502656775925993
24.963468,9.602198197210411,0.0499744652236632
24.96806,9.581480486019297,0.0496838923453155
24.972664,9.560518405399888,0.0494004920325591
24.977244,9.529706687304982,0.0491499939681386
24.98184,9.497506795905844,0.0489168261150306
24.98642,9.456190375316082,0.0486870705088849
24.99102,9.401548764174375,0.0484842110440999
24.995612,9.340244557756698,0.0482930915878465
25.000208,9.273055005796556,0.0481179541900865
25.004788,9.201001727455733,0.0479544332026643
25.00938,9.121264234677144,0.0478073025245539
25.01398,9.038339699699028,0.0476766756688266
25.018572,8.953371926397327,0.0475536543870148
25.023152,8.86852633780977,0.0474231081623368
