Time,Force,Position
17.937435999999998,3.453557605682145,0.1608773677688598
17.94202,3.5446692073747395,0.1607591321058238
17.94662,3.62697645293878,0.1604997093756287
17.951211999999998,3.702522580697853,0.1600421687120831
17.955804,3.7672211140047858,0.1595574970094241
17.960396,3.823403802060083,0.1590373688684313
17.964992,3.872991698473188,0.1583965107058512
17.969587999999998,3.909810946824709,0.1578613487095539
17.974187999999998,3.933861547114649,0.1574188575543963
17.978783999999997,3.949806997744019,0.1569786152057333
17.98338,3.9569141904279457,0.1566307372670199
17.987968,3.9626671116245302,0.1562122981253178
17.992556,3.962001806973436,0.1559791231655539
17.997135999999998,3.970453031512964,0.1554916378817029
18.001728,3.979803690500141,0.154979289006565
18.00632,3.987355480592022,0.1545129959462483
18.010908,3.998505008474495,0.1539534527917253
18.015504,4.011209035823971,0.1533719855004657
18.020092,4.020726020973922,0.1529227826756357
18.024688,4.030120821409727,0.1524876723031832
18.029276,4.034407526036564,0.1522388542784902
18.033864,4.037306057359171,0.1520706715873651
18.038464,4.043557957044078,0.1518384802920564
18.043052,4.04907674844411,0.1516885389573574
18.04764,4.060891580977678,0.151381298699939
18.052228,4.077325770463631,0.1509571779286484
18.056816,4.096458263292527,0.1504726719179684
18.061412,4.116900886160136,0.1499964101440951
18.065992,4.139308704085815,0.14953467735354
18.070596,4.163393206192644,0.1490459245419448
18.075184,4.189931642214125,0.1485282541832904
18.079784,4.213938101055437,0.1481365158862063
18.084376,4.243585536010927,0.1475960976082371
18.088976,4.267714179566384,0.1472028583421835
18.093556,4.297239429807727,0.1467026905312489
18.098152,4.331794732592521,0.1461233642015506
18.102732,4.366882915682527,0.1455763657660606
18.107328,4.404669402115474,0.1449802344829434
18.111924,4.445931441624869,0.1443247196547225
18.116524,4.490302480068272,0.1436475201035296
18.121112,4.54096955964521,0.1428339806902287
18.1257,4.595889442032096,0.1419724105059006
18.130288,4.650320585562399,0.1411739377005523
18.134876,4.70900453190265,0.1403235124098853
18.139464,4.768754238853324,0.1395364543851777
18.144056,4.82225204611909,0.1389385114356247
18.148652,4.877059983423568,0.1383686764629082
18.15324,4.9343218546427,0.1377765716350192
18.157828,4.995303648366567,0.1371246461234699
18.162408,5.058739376005088,0.1364613278666006
18.167,5.123318907519548,0.1357866955720721
18.171584,5.19174054625289,0.1350389939621042
18.176176,5.259917815557942,0.1343348561652233
18.180764,5.335945625463532,0.1335347464626698
18.18536,5.407642589293658,0.1328738493953945
18.189956,5.478562303390283,0.132234165586108
18.194552,5.547150268286399,0.1316181291238649
18.199144,5.613162114553719,0.1310439840608972
18.20374,5.677619461354034,0.1304886349606853
18.208328,5.739622874239697,0.1299602272989721
18.212928,5.803791710163094,0.1293996052404477
18.217504,5.861664504952954,0.1289368916292002
18.222104,5.920925473047046,0.1284353928808366
18.226696,5.978343430797214,0.1279263491524325
18.231296,6.031875139879871,0.127443431711333
18.23588,6.0919031180757255,0.1268140466840932
18.240476,6.14972153178522,0.1261970532188728
18.245068,6.206229815456001,0.1255779784513165
18.24966,6.260528534640423,0.1249774321766201
18.25426,6.308897766833745,0.1244345579010962
18.258852,6.353913630664768,0.1239310682153202
18.26344,6.397086484151868,0.12341571220094
18.268036,6.434207665933722,0.1229599919679032
18.272612,6.464377741562685,0.1225817435757559
18.277208,6.493604241295371,0.1221694188658587
18.281788,6.523441664598783,0.1217252251677023
18.286376,6.554545076492285,0.1212518967088585
18.290968,6.587036661690014,0.1207415957689033
18.295556,6.614498194344294,0.1202666984729974
18.30014,6.643059389425884,0.1197260246644887
18.304728,6.66364785919279,0.1192713592109299
18.309316,6.685091621958715,0.1187616226475514
18.31392,6.702526951342984,0.1182742994089222
18.318508,6.714443489327219,0.1178541413618308
18.323116,6.725294266701034,0.1174085440170668
18.3277,6.730870622103106,0.1170162020382851
18.332296,6.732682913551813,0.1166252969297543
18.336888,6.7315083907806565,0.1162341373844893
18.34148,6.72416001159011,0.1158998124454184
18.346084,6.718199805703794,0.1155247574389809
18.350672,6.70774242757924,0.1151948262138119
18.35528,6.691399703912215,0.1149499392545316
18.359864,6.681308879930098,0.1145958414546393
18.364464,6.668886306747474,0.1142453187534001
18.369044,6.655153603526139,0.1138813701355255
18.373632,6.637578793085918,0.1135688108022709
18.37822,6.616284060140961,0.1132990192049432
18.382812,6.590492154957763,0.1130726516956876
18.387392,6.572506648926478,0.1127356877705595
18.391984,6.550967546553229,0.1124765448712136
18.396576,6.53416998584651,0.1121574992574866
18.401172,6.520070728482736,0.111811627880789
18.40576,6.505849286404816,0.1114720026980825
18.410352,6.495592136259923,0.1110746259415812
18.414932,6.484968431972594,0.1106985258777113
18.419524,6.478841899923505,0.1102817247161775
18.424112,6.477745420417864,0.1098381107556546
18.4287,6.481023928436321,0.1093627318053695
18.433296,6.486756370369428,0.1088748502153441
18.437872,6.493388246750184,0.1083793954569787
18.442468,6.505661099245118,0.1078202319018235
18.447052,6.524596547016023,0.1071827846146579
18.45164,6.542143821482698,0.1065912397936528
18.456236,6.562389399292316,0.1059750141182479
18.46082,6.591384952150119,0.1053069134402503
18.465408,6.622301558617368,0.1046185645805587
18.470008,6.65423978424641,0.1039138179737269
18.4746,6.689531378237751,0.1031925837123508
18.479204,6.722290995048922,0.1025416381140758
18.483784,6.761957576564355,0.1018098047902588
18.488384,6.798681485308555,0.1011185952726415
18.492972,6.833772851320234,0.100483032536855
18.497572,6.875404627893738,0.0997946321639421
18.50216,6.918590903934247,0.0991161796088785
18.506756,6.967051601946498,0.0984124813464892
18.51134,7.008727519968629,0.0977865472449507
18.515932,7.050281253276616,0.0971771284339375
18.520512,7.087870694651574,0.0966183602675359
18.525108,7.130323862407209,0.0960134116297881
18.529708,7.173964975487411,0.09543352006539
18.5343,7.216340099977529,0.0948856834967231
18.538888,7.255405997553974,0.0943937950117444
18.543476,7.2902632337691,0.0939595893406032
18.548064,7.32667496945123,0.0935300117704974
18.552652,7.350783133743209,0.093212868790648
18.557252,7.374646928606897,0.0929110699038126
18.561844,7.402885710994679,0.0925904391103672
18.56644,7.431368862810752,0.0922592765026113
18.571028,7.456376461550378,0.0919448744918723
18.57562,7.472556041976301,0.0917205189811095
18.580208,7.493354979354608,0.0914646782548575
18.5848,7.515542090037146,0.0911797403910631
18.589388,7.5291455518342705,0.0909706516660164
18.593976,7.538906906412513,0.0907963452627587
18.598572,7.544293273466661,0.0906432260048924
18.60316,7.55748603967272,0.0904193680718461
18.607748,7.568224871964127,0.0901999073074428
18.612352,7.579208073683826,0.089967855456353
18.616948,7.589414025670022,0.0897380011497566
18.621544,7.601496889817032,0.0894571346588465
18.626124,7.614068492820625,0.0891536716795794
18.630724,7.627495388823236,0.0888085934981896
18.635304,7.647296369224901,0.0883896119457463
18.639904,7.667586088483149,0.0879503833725627
18.644496,7.69388333799801,0.0874522957256611
18.649096,7.717971023026513,0.0869445033785822
18.653692,7.740626393302156,0.0864337083361351
18.658288,7.76352613300609,0.085914496863912
18.662884,7.792189033538349,0.0853555950884521
18.66748,7.828780517936665,0.0847290073144195
18.672068,7.860997014810887,0.0841224302928204
18.67666,7.891536827503959,0.0835221178488896
18.681248,7.924119878520618,0.0828999169392343
18.685844,7.958091102841507,0.0822514331496052
18.690432,7.991040708000603,0.0816136437956941
18.695028,8.013729980093137,0.0810381693066628
18.69962,8.031433341090846,0.0805029885881644
18.704208,8.050036136536207,0.0799645075315866
18.708796,8.06389739031503,0.079459285088743
18.713388,8.072772732999038,0.078998400228297
18.717984,8.07948265264531,0.0785632060359827
18.722572,8.085826018149147,0.0781463969158825
18.727172,8.087183472558161,0.0777725544936516
18.73176,8.085598254195942,0.0774214818816926
18.736356,8.081969797510133,0.0770889050173723
18.740948,8.083371393367775,0.0767541889753999
18.745536,8.082607566187685,0.0764442095853693
18.750132,8.080455565703364,0.0761606276216542
18.75472,8.075238707733662,0.0759050170096393
18.759308,8.067079176992724,0.0756710256938368
18.7639,8.06341681849003,0.0754225976507652
18.768492,8.061431144168482,0.0751743970851542
18.773088,8.064842076532823,0.0749101523168123
18.777676,8.069807508364166,0.0746522346730525
18.782268,8.07591674407145,0.0743808038373123
18.786856,8.093185747292944,0.074060752150404
18.791452,8.120959453009295,0.0736849425996793
18.79604,8.152575265944527,0.0732916032811628
18.800628,8.18586776306091,0.0728986221500708
18.805224,8.225456301310826,0.0724906900492713
18.809816,8.270563630960776,0.0720659066465498
18.814412,8.319390883115464,0.0716306024490557
18.819,8.373326231079119,0.0711618729327262
18.823604,8.431103686261658,0.0706775858265358
18.828204,8.49488867170081,0.0701597075384424
18.832796,8.555564658205952,0.0696366495967459
18.837388,8.61865043717712,0.0690886998499635
18.841976,8.685289812490254,0.0685045807627348
18.846564,8.749841808031169,0.0679046590473591
18.851152,8.814105292695164,0.067287115216177
18.855748,8.87423815926336,0.0666716023389364
18.86034,8.93228364605934,0.0660420674011233
18.864932,8.986442884187808,0.0654050113947485
18.869516,9.037248753953978,0.0647682085163182
18.8741,9.088298993148438,0.0641251928773216
18.87868,9.133175375923509,0.0634964995282767
18.883264,9.171100652545688,0.0628772314892021
18.887848,9.20555037609142,0.0622648999605809
18.892436,9.24343151126497,0.0616240524645675
18.897032,9.275505344161568,0.0609784594681148
18.901628,9.303692928390657,0.0603217072189723
18.906232,9.329426578705093,0.0596648970660566
18.910824,9.350296502638852,0.0590323078419626
18.91542,9.366547069620228,0.0584122252143541
18.92,9.378178279649214,0.0578070740353313
18.9246,9.386744632192825,0.0572181965621506
18.929196,9.392123942536903,0.056652320477736
18.933796,9.396237264290903,0.0561050485751259
18.938384,9.399861847188316,0.0555748820675248
18.942984,9.403119875943297,0.0550595246772927
18.94758,9.401802689194517,0.0545812840810982
18.952168,9.398852959713215,0.0541304116169169
18.956764,9.39132801472816,0.0537175355116284
18.96136,9.38523538449596,0.0533164939396562
18.965964,9.377754580959532,0.0529341893086281
18.97056,9.368641234690582,0.0525789904140902
18.975148,9.357895345689109,0.0522502735970543
18.97974,9.34780452170699,0.0519304497532044
18.984332,9.33056236359232,0.0516455108250857
18.988924,9.312587097192775,0.0513866552299235
18.99352,9.291058234451263,0.0511598734190997
18.998104,9.265198525634291,0.0509612068141106
19.002692,9.235496709598438,0.0507713729562264
19.007288,9.204528904972497,0.0505942476546546
