Time,Force,Position
18.196344,4.364914182923425,0.1593541922595422
18.200944,4.443691494330651,0.1588612497437724
18.205532,4.5067133434564335,0.1584788269317143
18.210128,4.561297390596098,0.1579796594389678
18.21472,4.603479343816619,0.1575123811007998
18.219304,4.6295834220618834,0.1572568845460177
18.223896,4.644228982284279,0.1570730424137374
18.228488,4.650647208131959,0.1569034101438178
18.233072,4.654811728044649,0.1566905761611034
18.237668,4.659464986813923,0.1564310567442331
18.242244,4.6574556503072255,0.1563608836646177
18.24684,4.657367367409969,0.1562364312636546
18.251416,4.659322322836299,0.1560480787375897
18.256008,4.653182368233798,0.1560447024347541
18.278936,4.621172465182583,0.1560291810241572
18.283528,4.618508063656529,0.155955641031097
18.288116,4.616498727149832,0.1558850238982714
18.292716,4.618331497862018,0.1557106476598578
18.297312,4.623762006364793,0.1554546557170614
18.3019,4.63033631874351,0.1551580988983627
18.306504,4.645005541151056,0.1546900824900571
18.311092,4.6662151741204285,0.1540624742801079
18.315688,4.689223675985097,0.1533955529098173
18.320272,4.71378667731677,0.1527167670963545
18.324864,4.738349678648441,0.1520469807423923
18.329448,4.76303486469426,0.1513755397947345
18.334056,4.794016091873613,0.1505810663941837
18.33864,4.82348696103459,0.1498691063826145
18.34324,4.848626984120101,0.1493011606822278
18.347828,4.875854386977829,0.1487262534254469
18.35242,4.905535723750208,0.1481260698755312
18.357016,4.945843947731587,0.1472665621032298
18.361612,4.985907802284676,0.1464429411446533
18.3662,5.031857002380233,0.1454744416115837
18.370792,5.077439648333354,0.1445526966741909
18.375376,5.125842782343565,0.1435878376561805
18.379964,5.175023166087278,0.142634146191195
18.384548,5.223959180402699,0.1417229452676887
18.389148,5.273672444451621,0.1408160996316303
18.393736,5.321342470176959,0.1399707117710489
18.398328,5.360551031731029,0.1393118786992054
18.40292,5.39742784408459,0.1386835363573148
18.407496,5.440190001980624,0.1379457746207407
18.412088,5.483196529304949,0.137198105798641
18.416676,5.527224675791066,0.1364389667635192
18.421252,5.568432334220096,0.1357363368826094
18.425864,5.60502063569674,0.1351261725711733
18.430448,5.642874925763469,0.134478608038777
18.435052,5.685837311639165,0.1337192203738296
18.439644,5.733252728304472,0.1328489521258556
18.444244,5.780013079950423,0.1319883605779478
18.448836,5.818189782710959,0.1312984830659243
18.453428,5.856610854899787,0.1305997833240279
18.458024,5.892211439031529,0.1299603834250106
18.462608,5.926501893124555,0.1293156988509708
18.467208,5.9577274897322,0.1287440600641149
18.471792,5.986621337139337,0.1281893951197665
18.476392,6.012161816184177,0.1276699821371437
18.48098,6.035003991886072,0.1271882333356402
18.48558,6.062954263396934,0.1266122349606756
18.490164,6.0934365120879646,0.125958899567773
18.49476,6.122897141617203,0.1253303966999794
18.499352,6.141075818918084,0.1248811646279635
18.503944,6.15859943119961,0.1244309041614837
18.508548,6.170848621509392,0.1240416937402887
18.513144,6.186162669304557,0.1235947857074194
18.517732,6.200166587061008,0.1231361592598218
18.522328,6.2145370589598965,0.1226576080750317
18.526908,6.224532543334691,0.1222299036300243
18.531496,6.231829724366542,0.1218399493504177
18.53608,6.234629733160153,0.1215032367157501
18.540676,6.241638403315084,0.1210834907688364
18.545264,6.247092574003011,0.1206708937939869
18.549844,6.251769494957434,0.1202617150821486
18.554424,6.256324231197713,0.1198613367649253
18.559012,6.25956883739928,0.1194494561111143
18.5636,6.2626912588867,0.1190462615301549
18.568192,6.270433037326504,0.1185871460308677
18.57278,6.27956298907054,0.1180858537089837
18.577368,6.284728648881545,0.1176540832194012
18.58196,6.288628320102466,0.1172558568164813
18.586556,6.29162855687574,0.1168672272428656
18.591152,6.301413573639133,0.116377163349727
18.59574,6.30850028705958,0.11591669413718
18.60034,6.319306922984766,0.1154088199561124
18.60492,6.329091939748157,0.1149222222799829
18.60952,6.343251944035641,0.1143985954734865
18.6141,6.352548221942449,0.1139460259083169
18.6187,6.362743934296905,0.1134845411908034
18.62328,6.372573092508924,0.1130491731777303
18.627876,6.385999988511535,0.1125761546676103
18.632464,6.396484211742911,0.1121485361213524
18.63706,6.40353702334647,0.1117935922649611
18.641656,6.41058983495003,0.111439267865505
18.646252,6.419441515448885,0.1110687141870511
18.65084,6.428171011233595,0.1107055520180201
18.655432,6.435878887856511,0.1103590748090613
18.660024,6.437046353917601,0.1100917622691722
18.664612,6.440667753893342,0.1098151594621515
18.6692,6.441346481097849,0.1095800252679727
18.673796,6.4439462619117975,0.1093198992460598
18.678388,6.4492443460686895,0.1090345465577076
18.682976,6.452377007187849,0.1087907379627594
18.687568,6.457841417507516,0.1085441717275491
18.692156,6.462939273684744,0.1083216225241957
18.696752,6.468037129861973,0.1081002281476822
18.701348,6.470070128553821,0.1079275813162641
18.705932,6.476600299483908,0.1077135794125352
18.710528,6.484684969880999,0.1074995074266653
18.715116,6.491992390544589,0.1072868313446629
18.719704,6.502120299265267,0.1070454549141611
18.7243,6.516867564938331,0.1067597704030771
18.728888,6.537744545582156,0.1063834716286674
18.733492,6.560542579835424,0.1059873993202418
18.738084,6.578721257136306,0.1056373431583275
18.74268,6.602418725837221,0.105238645212525
18.747256,6.629836117042872,0.1048052595400287
18.751856,6.661995049915054,0.104320482723132
18.756436,6.690556244996645,0.1038691044588349
18.761036,6.720261243954175,0.103393782080093
18.76562,6.751887296521145,0.1029024648738114
18.770216,6.783513349088116,0.1024167885817605
18.774808,6.817060455264528,0.1019129167002891
18.7794,6.850196865849875,0.1013904854744893
18.784,6.882023146396509,0.1008555124961967
18.788592,6.912172742761993,0.1003295472504424
18.79318,6.94563156604115,0.0997527669531592
18.797776,6.979456943462743,0.0991615613096447
18.802352,7.013893244455064,0.0985431732717293
18.806932,7.052293837380414,0.0978857559093612
18.811528,7.087218877229317,0.0972551556006403
18.81612,7.11686949510648,0.0966606126512857
18.820716,7.146764482411934,0.0960625186743252
18.825296,7.173838981660299,0.095491952625983
18.829888,7.206676641736987,0.0948674989038029
18.834468,7.23411769512779,0.0942846572543128
18.839056,7.261025868213381,0.0936949901511934
18.84366,7.282170880470648,0.0931581699024644
18.848252,7.30625856549915,0.0925939994290443
18.85284,7.335332161622475,0.0919814763855568
18.857432,7.35990858550756,0.0913992648652202
18.862012,7.381131641030344,0.0908275267391466
18.866604,7.400800197086123,0.0902569209569385
18.871192,7.421368187589552,0.0896840710797271
18.875788,7.444512296721776,0.0891049312167834
18.880368,7.466634786692209,0.0885361842064796
18.884964,7.482871931120171,0.0880250451949582
18.889552,7.4973102066528385,0.0875270914654821
18.894152,7.509338689719481,0.0870732213020386
18.898736,7.514582392796006,0.0866797886893335
18.903332,7.519703911158385,0.0862933768059505
18.907928,7.525480494540121,0.0859139241132073
18.91252,7.528969470169978,0.0855714454918177
18.917112,7.536300553018719,0.0851997716561588
18.921704,7.541832766972163,0.0848398791019424
18.926292,7.546343361763815,0.0844897052251865
18.93088,7.546645295194147,0.0841882848434692
18.935456,7.5566746813858305,0.0838079720657485
18.940056,7.564783013968073,0.0834442575911284
18.944648,7.567661066027202,0.0831398772997128
18.949236,7.575036290324569,0.0828157594331526
18.953828,7.586664317431887,0.0824844762117385
18.958416,7.601645712901503,0.0821518910383743
18.963008,7.620102661447564,0.0818136689689437
18.967596,7.638559609993626,0.0814785245587651
18.972176,7.661513730777928,0.0811258104810671
18.976772,7.691907696571704,0.0807335262601044
18.981364,7.724633411565986,0.0803509018847024
18.98596,7.758380745722063,0.0799603112395743
18.990544,7.796869621544668,0.0795405758109677
18.995144,7.835891377672485,0.0791363482912387
18.999736,7.879410306038543,0.0787176331664445
19.004328,7.922029799956952,0.0783046332555499
19.008924,7.963872044141857,0.077895907044445
19.013504,8.00636935334612,0.0774992484218655
19.018104,8.055407073112208,0.0770722058290629
19.022684,8.108653454239619,0.0766058361301007
19.02728,8.155237240091056,0.0761861019882151
19.031872,8.203742079551933,0.0757585319108692
19.036464,8.257477199535924,0.0752866918113822
19.041048,8.30965782005291,0.0748161043987393
19.045644,8.359506691369392,0.0743428502531951
19.05024,8.404447694856566,0.073869459551973
19.05484,8.443992091657856,0.0734175614899606
19.059432,8.48312579286808,0.0729519129156387
19.064024,8.521970983201387,0.0724681768495014
19.068612,8.554886686543592,0.0719910349633065
19.073204,8.585959379541872,0.071488721272821
19.077784,8.616743561663235,0.0709656014942583
19.082376,8.645973244317595,0.0704401185737163
19.086964,8.675280970237472,0.069878001335295
19.09154,8.70172406665163,0.0692990176176604
19.096132,8.726857033027079,0.0687043457459046
19.10072,8.750191130507229,0.0681175988751823
19.105316,8.769516794605721,0.0675218052140524
19.109912,8.783568036732472,0.066937313578982
19.1145,8.797863648287517,0.066347215256249
19.119112,8.812403629270854,0.0657470688452665
19.1237,8.827310164396625,0.0651363067219852
19.128288,8.837597342570012,0.0645429697444544
19.132872,8.845963467133958,0.0639592036078821
19.137464,8.85522902614555,0.0633757007519658
19.142056,8.864128031014706,0.0628058074781415
19.146636,8.870573101969212,0.0622286867194683
19.151236,8.871665707686457,0.0616930011793333
19.155824,8.87137014009947,0.0611809913542545
19.160424,8.873528506427137,0.0606748004060024
19.165012,8.872133276412843,0.0602064591828563
19.169616,8.872048176437259,0.0597566731854706
19.174208,8.871718707033384,0.0593171862316612
19.1788,8.87077831405878,0.0589027860966231
19.183396,8.87000424724695,0.0585173818258252
19.187992,8.87348298324507,0.0581370215281087
19.192588,8.88055945703378,0.0577547085544441
19.19718,8.891888733632438,0.0573774933637535
19.201768,8.90591631357404,0.0569989127556921
19.20636,8.916512481887823,0.0566531548810462
19.210948,8.93046201856391,0.0563149535108691
19.215536,8.940980143612176,0.0560090095472865
19.22012,8.950354464784503,0.0557131861375713
19.224704,8.95972878595683,0.0554174718365111
19.2293,8.9718014104721,0.055122030236366
19.233888,8.987471772777964,0.0548244849715461
19.23848,9.007517122607918,0.0545286030666859
19.243068,9.03381437212278,0.0541964486091084
19.247664,9.055858818827698,0.0538581996679274
19.252256,9.075082777475522,0.0535270808476706
19.25684,9.09647215916108,0.0531800988955662
19.261452,9.113486553322549,0.0528316392689141
19.26604,9.12882426330286,0.0524796299914708
19.270648,9.143262538835526,0.0521284644020756
19.275228,9.152304207682308,0.0517788532399845
19.279812,9.154028216233758,0.0514369557003215
19.28442,9.143570838109204,0.0511171296312434
19.289012,9.126450864708676,0.050812755252623
19.293608,9.09984780797509,0.0505282173377339
19.298184,9.070913002040998,0.0502281584101254
