Time,Force,Position
18.537484,3.014834172860531,0.1609215836884836
18.542076,3.191083747805994,0.1606182647391019
18.54665599999999,3.3578739016035466,0.160158740012362
18.551248,3.52047905622493,0.1592961054315549
18.55584,3.671992246965881,0.1584989421802882
18.560436000000003,3.808815736035808,0.1579587478433083
18.565016,3.938878107300768,0.1572188972175545
18.569607999999995,4.055883319627227,0.1565709000988023
18.5742,4.1593426341586,0.1560617668768471
18.578788,4.252731603971334,0.155564045330965
18.583384,4.33155305682719,0.1552353254034345
18.587972,4.401936707696929,0.1547639408625301
18.59256,4.4613505794003805,0.154330533657895
18.59715599999999,4.510161226079984,0.1538685662387718
18.601744000000004,4.552088570240473,0.1532807071361851
18.606348000000004,4.582435211663948,0.1527818369370844
18.610939999999992,4.60112310708489,0.1524274897298025
18.615536,4.6163693512462745,0.1520160682390579
18.62012,4.629528215635444,0.1516193991631662
18.624711999999995,4.642975590901534,0.1512668733643963
18.629292,4.65899908479642,0.150872135168169
18.633896,4.68168517396728,0.150313401259947
18.638488,4.707235892643856,0.1497546519922983
18.643088,4.728455765244969,0.1493408214811397
18.64768399999999,4.752251756474878,0.1488818115330299
18.652276,4.78042273522888,0.1483399079444283
18.65686399999999,4.806183921516859,0.1478946093694574
18.661452000000004,4.832888683701114,0.1474894903863358
18.666048,4.862824629533524,0.1470462941527447
18.670644000000003,4.893782194527727,0.1465802735869195
18.67523599999999,4.925394824541287,0.1461200331735445
18.679832,4.959461388469498,0.1456351206534865
18.68442,4.9946717562736485,0.1451230164382632
18.689016,5.033479861868392,0.1445514367109269
18.69360799999999,5.068568044958397,0.1440654385599257
18.6982,5.107498335267286,0.143504668523724
18.702784,5.148838418042199,0.1428542114314021
18.707367999999995,5.185314774436437,0.1423216946264933
18.711952000000004,5.218193393040082,0.141864306053448
18.71654,5.249106816585658,0.1413996664822657
18.721132000000004,5.278343555950084,0.1409649575798898
18.725728,5.3038603728097735,0.1406140874938671
18.730315999999995,5.328189244344896,0.1402517332072924
18.734912,5.357992765831423,0.1397369586608766
18.739508,5.387263407012739,0.139212236362725
18.744095999999992,5.415101733441194,0.1386943358967166
18.74868399999999,5.445594221763965,0.1380819734677672
18.753276,5.475798199209818,0.1374355388296627
18.757872,5.505591481064603,0.1367745682263418
18.762452000000003,5.535140393491099,0.1361402758444461
18.76704399999999,5.563134806450591,0.1355158792136135
18.771632000000004,5.5904741543907255,0.134896681580358
18.776239999999994,5.6149930142737725,0.1343359236547353
18.780824000000003,5.63579195165208,0.1338463648446033
18.785428000000003,5.656713073744535,0.1333453000114256
18.790016,5.6722375891511,0.1329330276267749
18.794608000000004,5.686085420376516,0.1325396400433895
18.799199999999992,5.702220859353811,0.1320798906567425
18.803796,5.716679614149955,0.1316363622066259
18.808384,5.730893999517808,0.1312127822131587
18.812971999999995,5.739589593485628,0.1308774800122575
18.81756,5.745709068824652,0.1305736502246493
18.822156,5.747087002497142,0.1303572552971258
18.826748,5.7406585370177226,0.1302977818422309
18.840512,5.710946481350126,0.1302518120739621
18.872636,5.624685183484788,0.1302428881021558
18.877227999999995,5.612449415728416,0.1302335630210576
18.881824,5.601890332153191,0.1302071911743599
18.886416000000004,5.593907367206767,0.1301511481930582
18.891007999999992,5.589766509479224,0.1300264729184745
18.895588,5.590489378132357,0.1298134383156414
18.900188,5.592233865947284,0.1295798055413888
18.904768,5.603339252381126,0.1291979624727646
18.909368,5.620207799643293,0.128720197290011
18.913952,5.640019019676696,0.1281856302862969
18.918552,5.6664928349860695,0.1275380744894792
18.923135999999992,5.691822846419504,0.1269211702568862
18.927727999999995,5.720872780357677,0.1262494876012619
18.93232,5.752987571781231,0.1255170840025895
18.93690399999999,5.779872082681671,0.1249061901971791
18.941504,5.809821451067491,0.1242399415086425
18.946096000000004,5.846311230015138,0.1234875486333396
18.950684000000003,5.882678824248641,0.1227531631906297
18.955268,5.925342459615678,0.1219430241604368
18.959848,5.965674345782207,0.1211397483388938
18.96442799999999,6.004862428072799,0.1203645054796267
18.969012,6.046993183134624,0.1195513393514171
18.973592000000004,6.087980134320511,0.1187682336586449
18.978172,6.129211454934689,0.1179788246507315
18.982756,6.164313060578106,0.1173093967705084
18.987344,6.197127058469645,0.116703043070281
18.99195199999999,6.227897818037596,0.116135330666553
18.996536,6.252005982329575,0.1156700323223905
19.001124,6.272927104422029,0.1152744965679336
19.005720000000004,6.2947476609621305,0.1148713072709181
19.010304,6.315546598340438,0.1144916490493897
19.014908,6.339166023775833,0.1140766986302376
19.019488000000003,6.363440514230587,0.1136743552085334
19.024088,6.388736623847133,0.1132613494645043
19.028668000000003,6.417752655968416,0.1128056585821913
19.033268,6.441005527261377,0.1124302154562836
19.037848000000004,6.459394672173661,0.1121305063647528
19.042448,6.475085513743,0.1118587684408225
19.047040000000003,6.488322421397688,0.11160189829666
19.05163199999999,6.50899917406185,0.1112646154427896
19.056224,6.533640218659039,0.11087306621292
19.060816,6.554439156037348,0.1105347328700614
19.065412,6.576748451434032,0.1101524727743352
19.07000399999999,6.596892323792982,0.1098114615948802
19.074592000000003,6.621367042227399,0.1093937162236441
19.079176,6.645186695642459,0.1089709210543906
19.083763999999995,6.673092825704693,0.1084893674409776
19.08836399999999,6.706884301309398,0.1079338251760404
19.092944,6.741164515770685,0.1073532086181916
19.097532,6.778265218289061,0.1067501234300201
19.102116,6.814055790768724,0.1061390704420268
19.106704,6.84804749435309,0.1055475970496444
19.111296000000003,6.87970744873695,0.1049629692008013
19.115876,6.907647480616073,0.1044193361423776
19.12046399999999,6.932234144132896,0.1038943135226761
19.125056,6.962051088172831,0.1032918477576122
19.129643999999992,6.987493044688674,0.1027166744146466
19.13423199999999,7.015999858689898,0.1021015428949262
19.138828,7.043729422957619,0.1014903972497098
19.143428,7.063119707768218,0.1009616536488648
19.148019999999995,7.077235570607077,0.1004693611391395
19.152596,7.087753695655342,0.1000021630795078
19.157195999999992,7.097250201541817,0.0995507794927804
19.16178399999999,7.110300303770253,0.0990341274253039
19.166384,7.119508298779806,0.0985592216154501
19.170972,7.130881716827092,0.0980532419227376
19.175571999999995,7.1366141587602,0.0976010960768385
19.180156000000004,7.138748862902715,0.0971778880199687
19.184752,7.13896251343579,0.0967746314230194
19.189344,7.132635753407039,0.0964291168968785
19.19393999999999,7.126964058397645,0.0960912910975781
19.198536,7.123457786425982,0.0957221843074348
19.203136,7.122527633083117,0.095343492573526
19.207728,7.123762902777987,0.0949336415338293
19.21232,7.126919226082295,0.094506181696713
19.216908,7.12574470331114,0.0941417809306036
19.22149199999999,7.130333341368309,0.0937229036943101
19.226071999999995,7.131979306654242,0.0933352829575864
19.230664,7.130438229740649,0.0929897273099554
19.235260000000004,7.133516509779442,0.0926094021953454
19.239848,7.14174702707583,0.092209485194883
19.24443999999999,7.15664013964819,0.0917513016212442
19.249028000000003,7.171533252220551,0.0912944003341436
19.25361999999999,7.182994953165093,0.090896420304311
19.258208000000003,7.20021981493796,0.0904496768738389
19.262796,7.216178688120743,0.0900310572591813
19.267403999999992,7.237778537417703,0.0895700537063602
19.271988,7.2599112670198735,0.0891252634233586
19.276576,7.284742299964988,0.08866771695946
19.28117199999999,7.314314874576633,0.0881727819823086
19.285768,7.341722026150545,0.0877080131040728
19.29036,7.367741004420227,0.0872776779462353
19.294955999999992,7.388896256309233,0.0868921380210258
19.299547999999994,7.41058438850345,0.0865242503712484
19.304128,7.433049770431168,0.0861614080796881
19.30872399999999,7.462422117063151,0.0857383311712908
19.313308,7.49244952871449,0.085329001561232
19.317896,7.527218482032358,0.0848892580765889
19.322488,7.569793834502139,0.0843872984148598
19.32708,7.613390806133712,0.0838820940178481
19.33167199999999,7.657232147193578,0.083372361664661
19.336268,7.702095107415237,0.0828621448062083
19.340864000000003,7.745814263760956,0.0823686781496435
19.34546,7.789777789534966,0.0818649915206603
19.350048,7.82977702337595,0.0814005418661641
19.354632,7.869898441931078,0.0809335427584176
19.35922,7.908098806876764,0.080485294344861
19.363812000000003,7.943723053193652,0.0800427258949234
19.3684,7.977792800043538,0.0795998193473132
19.372992000000004,8.012229101035858,0.079145128108852
19.37758399999999,8.053039486427233,0.0786292202541525
19.382172000000004,8.096504033712922,0.0780731882150728
19.386763999999992,8.144421611788221,0.077466900597956
19.39135199999999,8.188863636787076,0.0768703599908937
19.395948,8.231506792890636,0.0762844033484214
19.400544000000004,8.268631157594163,0.0757296355301265
19.405132,8.302279969221242,0.0751855084569573
19.409724000000004,8.333352662219525,0.0746511920298962
19.414312,8.359028748531921,0.0741398119268819
19.4189,8.379186043444285,0.0736525840271565
19.423496,8.395745600566057,0.073179226417368
19.428092,8.408829604611382,0.0727153546222531
19.43268799999999,8.426244454732174,0.0722112817273308
19.437272,8.447745781500137,0.0716800475876958
19.441872,8.468714227962893,0.0711362646317164
19.446459999999995,8.48927197883458,0.0705765337995359
19.45105999999999,8.51097353358221,0.0700075439084859
19.455639999999995,8.538682618586453,0.0694017702532221
19.46023999999999,8.565247899714757,0.0688100585751116
19.464832,8.589892127233622,0.06823203483338
19.469428,8.60762939004822,0.0676991567885974
19.474016,8.618992568463769,0.0672212377339156
19.47861199999999,8.625369835784493,0.0667746780231085
19.483208,8.636488644771749,0.0663094200044723
19.487808,8.646830204025502,0.0658413834734267
19.4924,8.658193382441048,0.0653670075858858
19.496992,8.669312191428306,0.0649026099899414
19.50158,8.674545654873091,0.0644683908614383
19.506176000000004,8.68121143307074,0.0640465751843224
19.510764,8.691719318487266,0.0636074353932294
19.51536,8.702227203903794,0.0631683331438818
19.519952,8.713145784911386,0.0627494022585314
19.524539999999995,8.720877323719455,0.0623581032089323
19.529132,8.721579713109112,0.0620090912140507
19.533719999999995,8.72677927473701,0.0616542909654282
19.538316,8.729446859184737,0.061332325558181
19.5429,8.730848455042379,0.0610281377232819
19.547488,8.728285758966992,0.0607458996909102
19.552084,8.729198615968052,0.0604641096507482
19.556672,8.730766537988469,0.06019153755065
19.561280000000004,8.735154948065974,0.0599104466517215
19.565868,8.746450322847743,0.0595971172494661
19.570456,8.761221250705956,0.0592838455507503
19.575051999999992,8.772272256059432,0.0589817548809551
19.579652000000003,8.78499994559406,0.0586830742983873
19.584247999999995,8.797361080986251,0.0583997552239149
19.588828,8.816629181082703,0.0580877569728325
19.593428,8.84562473394051,0.0577383412530083
19.598016,8.872166352883665,0.0573829678012144
19.60261599999999,8.899363036846177,0.0570389515142384
19.607195999999995,8.933100131370512,0.0566832651468221
19.61179599999999,8.967325964751433,0.056311197334717
19.61638,9.001551798132352,0.055940502506782
19.620968,9.039864108160446,0.0555484372691723
19.625568,9.072413257360214,0.0551774211001155
19.630164,9.109948317654805,0.0547858654477433
19.634752,9.141309521530008,0.0543934406908139
19.639344,9.170627487081624,0.0540122064867126
19.643932,9.197613703432731,0.0536213090493735
19.64852,9.22292323560269,0.0532282030380256
19.653108,9.242347422230178,0.0528562891259958
19.657704000000003,9.254331763848192,0.0524989844000687
19.662292,9.26680484432279,0.0521246194909187
19.666888,9.278134120921449,0.0517595878483844
19.671484,9.287664528624813,0.0513960144726233
19.676068,9.295518252147025,0.0510283050038466
19.680652,9.291723469298445,0.05069796505153
19.68524,9.280000102583804,0.0503986941762973
19.689836,9.267910181726728,0.0501120976123983
19.69442,9.249279850307827,0.0498356916301896
19.699008,9.217202143622837,0.0495943330020842
19.703596,9.177850918091142,0.0493902278330184
19.708192000000004,9.133758150892922,0.0491948140981541
19.71278,9.08263623427629,0.0490272345790763
19.71737199999999,9.02869382960257,0.0488630373446779
19.721951999999995,8.967966644938734,0.0487170699473127
