Time,Force,Position
20.179776,2.2946869041921945,0.164544908603379
20.18436,2.421585895442779,0.1621218418881595
20.188952,2.5392800746054824,0.1605157281194727
20.193548,2.651445222736415,0.1589304053430348
20.198144,2.760535273750228,0.1571014564004665
20.202736,2.8660173473417103,0.1551393016671917
20.207324,2.9602072290730974,0.1535790664833141
20.21192,3.046824841449126,0.1521874313104868
20.216496,3.121905892536767,0.1511784054571608
20.221096,3.1928902273454955,0.1501031986014595
20.225672,3.2519714467234,0.1493565410174593
20.230264,3.302336592870007,0.1487136590482755
20.234848,3.3429640466235218,0.1482335623382702
20.239428,3.376141415735824,0.1477529470054607
20.24402,3.396716462949318,0.1474105084726794
20.248612,3.412417544150397,0.1469851469254569
20.253188,3.4163376946347976,0.1467467182779729
20.257784,3.419436453937068,0.1464290138709161
20.262372,3.4189374754487463,0.1462185696500069
20.266948,3.416106747759918,0.1460399124265319
20.271544,3.413520389499381,0.1458276594655957
20.276136,3.405415239838812,0.1457955717245241
20.280732,3.398820448196618,0.1456532654584344
20.28532,3.390182418230838,0.145596463072502
20.289916,3.3826881921409964,0.1454789412761471
20.294496,3.37339509715586,0.145411222490151
20.2991,3.365001436618372,0.1453189119561574
20.30368,3.3539094727379397,0.1453050231761383
20.308272,3.3446163777528017,0.1452377851657192
20.312868,3.33352441387237,0.1452201739399074
20.31746,3.3262745572108203,0.1450676974825869
20.32206,3.3207013847304205,0.1448794584190516
20.326652,3.3150060275358757,0.1447069141664981
20.331244,3.3098435506465407,0.1445558489406904
20.33584,3.306768453529421,0.1444073122585516
20.340416,3.3059029208986623,0.1442478849669932
20.345012,3.307002583325973,0.1441073416536843
20.3496,3.314276102172674,0.1438129702681468
20.354192,3.3256802391151767,0.1434439723906013
20.358788,3.339416125258186,0.1430508732680416
20.363376,3.360347486982377,0.1424773419839308
20.367964,3.387574889840105,0.1417299803833501
20.372552,3.413047565251164,0.141122745416994
20.377144,3.4437946626339646,0.1404016754920509
20.381732,3.4741752058743285,0.1397419227397236
20.38632,3.507786932762847,0.1390519239440198
20.390936,3.543075343832515,0.1383298642301695
20.395516,3.581717123264483,0.137546611091275
20.40012,3.619215098820512,0.1368197209238442
20.404708,3.6581453891294,0.1360983990964138
20.409296,3.6969534947241423,0.1354096992476509
20.413892,3.7376826539283248,0.1346811909919929
20.418492,3.775346955647128,0.1340436784955253
20.423084,3.8130112573659303,0.1334136626998617
20.427664,3.85079774379888,0.1327751308230849
20.432256,3.8840870579935887,0.1322501278561629
20.43684,3.9172100460255246,0.1316619952307137
20.441448,3.9441591776380704,0.1312157415206657
20.446032,3.969798179211904,0.1307648858530539
20.450632,3.996048104356465,0.1302588646050967
20.45522,4.0161241730816375,0.1298888415172559
20.459804,4.031947438996863,0.1295888689433904
20.464408,4.046049879282308,0.1292381128409419
20.469,4.05410064786251,0.1289965103954761
20.4736,4.058920232794559,0.1287904072944454
20.4782,4.056788711573715,0.1287071151405467
20.482788,4.0582107866948345,0.1284793628276425
20.487392,4.057301112615448,0.1282674069555604
20.49198,4.05700236210679,0.1279912059146055
20.496568,4.0558822204160005,0.1276493990545815
20.501156,4.052552514238852,0.1273096848995693
20.505752,4.043171136356459,0.1270646502034485
20.510344,4.039508777853761,0.1266055380041739
20.514936,4.035557908474145,0.1261011590487955
20.51952,4.029153105179876,0.1256214025090011
20.524108,4.024380844618128,0.1250477855390903
20.5287,4.019075703751171,0.1244520677430859
20.533288,4.017079789797885,0.123742536424069
20.537876,4.012629941929947,0.1230565531341709
20.542488,4.005237421290775,0.1224458686366741
20.547076,3.997189835632245,0.1218227315855008
20.551684,3.990530423277946,0.1211292786804984
20.556272,3.9828493917618535,0.1204584167810554
20.560868,3.979499206321226,0.119646902319231
20.565464,3.976271205594745,0.1188164904476516
20.570052,3.976108062353644,0.1178900150396738
20.574648,3.967239085512984,0.1171738352449231
20.579244,3.962212215891207,0.1163708572458165
20.583836,3.956041542393491,0.1156080088242025
20.588416,3.946561641982103,0.114952020105921
20.593012,3.9358157529806297,0.1143464538831598
20.5976,3.9275237978938087,0.1137135041628514
20.602204,3.917599300074466,0.1131758564730877
20.606796,3.9070638786843954,0.1127014504210728
20.611392,3.9011478142467095,0.1121386644728112
20.615976,3.894743010952441,0.111626508597199
20.620572,3.890425587430387,0.111134154269708
20.62516,3.8794897100809895,0.1108543639361351
20.629752,3.870641212503807,0.1105927867752479
20.634344,3.863469399107775,0.1103138594843525
20.638936,3.8594065846457513,0.1100267164189611
20.643524,3.859107834137093,0.1097448931961597
20.648116,3.863839136171885,0.1094157799793034
20.652708,3.862973603541126,0.109270154630913
20.657304,3.865994319577879,0.1091173524517838
20.661896,3.875966141767522,0.10888507815546
20.666488,3.8946879390053537,0.1085425227796122
20.671084,3.9102226940436577,0.1082949646406193
20.675672,3.9298880671777647,0.1080223072765483
20.680264,3.9576483503407034,0.1076393300227812
20.684852,3.988884186580086,0.1072178866275894
20.689444,4.0262938792388585,0.106730480851578
20.69404,4.063581387183486,0.1062604473151266
20.698628,4.101768329575761,0.1057800883598937
20.703232,4.137789848930304,0.1053710599831286
20.70782,4.171645945247113,0.1050165973313256
20.712408,4.20472479183042,0.1046687613973215
20.716996,4.2486748950510185,0.104097284920334
20.721588,4.291847748538117,0.1035274242078398
20.726192,4.332977363701627,0.1030049567480014
20.730788,4.37230810996984,0.1025109289923418
20.735384,4.408529857304045,0.1020288518666512
20.739964,4.443974354904747,0.1015577766981998
20.744564,4.484404763600272,0.1009823592400505
20.749156,4.521848358075935,0.1004020164508242
20.753748,4.54915380419918,0.0999746021164866
20.758332,4.570651948045472,0.0995853024979817
20.762928,4.59227227660591,0.0991856857287909
20.767524,4.608862552622898,0.0988205902821872
20.77212,4.615436865001614,0.0985838763142406
20.776716,4.619435058751532,0.0983685356967705
20.781308,4.617625950224497,0.098184670276245
20.785908,4.61426234223046,0.0979996725309209
20.790504,4.6093442347694165,0.0978133926825838
20.795092,4.604015431717307,0.0975946459564726
20.79968,4.60313965945481,0.0972624350351976
20.804264,4.601731006887102,0.0969093134199055
20.808864,4.590961455700477,0.0966838045953277
20.813456,4.580802828084583,0.0964052707225116
20.818032,4.572032373772918,0.0960750298546321
20.822628,4.5626068544418965,0.0957325292412288
20.827208,4.5531813351108745,0.0953892881619072
20.831788,4.541301881865202,0.0950524691081301
20.836384,4.526724125276584,0.0947421317980365
20.840972,4.514844672030913,0.0944044040723448
20.845564,4.505008457108826,0.0940250959266309
20.850156,4.495949491920241,0.0936450169484651
20.85476,4.4843144081028585,0.093279235088789
20.859352,4.474844747323209,0.0928620886727684
20.86394,4.471138247371883,0.0923567544944902
20.868536,4.467798301562995,0.0918180410051476
20.873128,4.46523560548761,0.0912805889920299
20.877724,4.45997460606928,0.0907648009104312
20.882308,4.454835791365096,0.0902365193234197
20.886908,4.450474226394415,0.0897113942813914
20.891488,4.443825053671855,0.0892473375829362
20.896092,4.433988838749768,0.0888481535347992
20.900676,4.4317146535513015,0.0883506032555537
20.905268,4.431894402267487,0.0878534779704804
20.90986,4.433995204593114,0.0873334074719066
20.914452,4.436995441366388,0.0868052932120768
20.919044,4.441672362320814,0.0862755997090764
20.92364,4.449047586618181,0.0857263036786641
20.928228,4.456300626201404,0.0851857861354222
20.932824,4.4617547968893305,0.0846639015244545
20.937412,4.469785086206057,0.0841303544988565
20.942008,4.477693190808635,0.0836056234329817
20.946592,4.490753532668811,0.0830591164725448
20.951188,4.503080766244112,0.0825755063226389
20.95578,4.512343142334032,0.0821435567548741
20.960368,4.52393726762446,0.0817240480653857
20.964964,4.534265404324801,0.0813419128586857
20.96954,4.552688451053975,0.0809014694646586
20.974132,4.57074494364071,0.080490756284761
20.978724,4.584714959580272,0.0801465009717604
20.983312,4.598029910500476,0.0797893010129204
20.98792,4.617230206963152,0.0793535899192382
20.992508,4.631444592331004,0.0789958023795999
20.997096,4.640795251318182,0.0787016949050169
21.001692,4.649901540877067,0.0784318501367311
21.00628,4.661950503207187,0.0781282685251238
21.010872,4.67027954303257,0.0778587281303357
21.015452,4.67758696369616,0.0776075981946659
21.020044,4.688980861006924,0.0772984425193422
21.024624,4.700374758317687,0.076991160459336
21.029224,4.710214156161447,0.0766765336225933
21.033812,4.721441727309437,0.0763193971244345
21.038412,4.727883615342268,0.0759466776589209
21.043004,4.733914807784035,0.0755404823228467
21.047596,4.743255227139472,0.0750718450331481
21.052184,4.751041147027906,0.0745971982837648
21.056776,4.758294186611129,0.0740967085890426
21.061368,4.762316042546197,0.0735945694357911
21.06596,4.768625506233145,0.0730466868566529
21.070548,4.781064684890852,0.0724167237670466
21.075136,4.79350386354856,0.0717865844552687
21.079724,4.801323685253883,0.0711912833777576
21.08432,4.810776049691727,0.0705366480825717
21.088908,4.821860956862095,0.0698200794744499
21.093504,4.826649822898927,0.0691293926044378
21.0981,4.823876659212138,0.0684973596976535
21.102684,4.8233911032772285,0.0678183451209097
21.10728,4.81865274453237,0.0671367215344326
21.11186,4.809050659406836,0.0665032001278237
21.116436,4.798426955119509,0.0658813108251736
21.121036,4.787026001098679,0.0652498409450756
21.125616,4.778445535134939,0.0646021339427647
21.13022,4.7715417533523485,0.063952778664525
21.134816,4.764637971569758,0.0633012287267565
21.139404,4.754791517015932,0.0626759463169209
21.143996,4.741347324671516,0.0620571196560727
21.148588,4.728025317041246,0.0614237191257939
21.15318,4.708940148582651,0.060828812117378
21.157772,4.688056111228761,0.0602369441989006
21.162368,4.66243053220834,0.0596739707155631
21.16696,4.633862280416683,0.059130121485434
21.171556,4.603128605587294,0.0586122766375806
21.176148,4.568963519130088,0.0581523723257823
21.180748,4.532388640206857,0.0577372466916818
21.18534,4.4967131957312745,0.0573113130979223
21.189936,4.466923096798162,0.0568277492098846
21.194528,4.436766443722611,0.0563697567393281
21.199124,4.40804210539992,0.0559301509307431
21.203712,4.380217201524877,0.0554843641621567
21.208312,4.34855019043095,0.0550593602467359
