Time,Force,Position
27.557656,2.498477636700563,0.1600592633683305
27.562256,2.646348948202294,0.1592935026342403
27.566836,2.789146065711948,0.1585711041043574
27.571432,2.92723554337196,0.1579446525292067
27.57604,3.061228304753059,0.1572431362119649
27.580632,3.180453321197617,0.1569146277764634
27.585228,3.297747044400994,0.1563403844004856
27.589824,3.4053030752112807,0.1559288158826456
27.594412,3.5060640863997103,0.1555542204139879
27.598996,3.5978205134799226,0.1552395616860013
27.603588,3.685680452260885,0.154720384452009
27.608164,3.7671899688279455,0.1539962829957775
27.61276,3.8385069559622216,0.1532692455039294
27.617344,3.902041206129738,0.1524142664367095
27.621932,3.95869215377814,0.1514415719334391
27.626508,4.004705974585804,0.150632237969343
27.631104,4.044335471362675,0.1498803198347627
27.635688,4.072594733013935,0.149340720396078
27.640276,4.098722473444352,0.1487272487098607
27.644868,4.118998770149186,0.1481693038736699
27.649448,4.129948070051996,0.1477241864824715
27.65404,4.131326003724488,0.1474135852256789
27.658632,4.132204958908658,0.1469279118165405
27.663224,4.128131904814896,0.1464497361443463
27.66782,4.1210278950526416,0.1459217995857535
27.672396,4.117066786041287,0.1451985251933021
27.676996,4.10725423330435,0.1445026349638498
27.681584,4.100828950746604,0.1435944780280671
27.686188,4.088674409177424,0.1426915659320677
27.69078,4.075165596120901,0.1417057743630146
27.695376,4.054417166034568,0.1408072524165753
27.69996,4.035545648109047,0.1397793276219574
27.704552,4.018428857630195,0.13863269071398
27.70916,3.999513198256047,0.1375160353783283
27.713756,3.9757338125012223,0.136527891804738
27.718356,3.9486010583840976,0.1355802344688063
27.722952,3.916971132028734,0.1347223456711358
27.727544,3.88701788985452,0.1338269508838843
27.732136,3.856820278252015,0.1329492003425046
27.736724,3.8242128741834858,0.1321707669556707
27.741312,3.796635522658407,0.1313025485143535
27.7459,3.775109842838571,0.1303093426092071
27.750492,3.749786197248481,0.1294964197782405
27.755088,3.725283942840521,0.1287504870481652
27.75968,3.7005814604528986,0.1281048102104224
27.764276,3.6777219884092,0.1274907285983536
27.768856,3.657238407014635,0.1269312263351183
27.773448,3.6346335440309674,0.1265258572942653
27.778036,3.61865737450638,0.1261086740886167
27.782628,3.6064894103837855,0.1257538873233835
27.787224,3.601849574167924,0.1253751002899407
27.791812,3.598319640011111,0.1251179983861809
27.7964,3.59782066152279,0.12493261403149
27.800992,3.604194745921842,0.1247236091638369
27.805584,3.613721970703532,0.1245694387599152
27.810184,3.6338421808773327,0.124307037369927
27.814768,3.665576995605037,0.1239149821794056
27.81936,3.7061059268295575,0.1234622836328033
27.82394,3.753630105655597,0.1229862108409896
27.828536,3.806350663187861,0.1225057159603145
27.833128,3.863490349692847,0.1220501145386094
27.837724,3.923128111561113,0.1216566959687356
27.84232,3.992048728782777,0.1211547749214443
27.846908,4.069308625461563,0.1205061758360811
27.851488,4.1485337171984185,0.1198819907169679
27.85608,4.230623438440991,0.1192923543194602
27.86068,4.316843777779367,0.1186785714546765
27.865272,4.405395866318248,0.118063502710972
27.86986,4.491005282085895,0.1175187487798839
27.874448,4.572894775348804,0.1170521424512862
27.879036,4.6541292035923565,0.1165957681246501
27.883636,4.734708566816553,0.1161353321891587
27.888224,4.814388495593101,0.1156998709380944
27.892816,4.893535544064441,0.1152698469074473
27.897412,4.976358373591887,0.1147204774845717
27.902,5.054151150575883,0.1142344089104154
27.906584,5.123071767797549,0.1138795975754114
27.911172,5.185652202437049,0.1135659732955865
27.915764,5.242669704227888,0.1132851709513616
27.92036,5.298987999550744,0.1129460360627649
27.92494,5.344346755339052,0.1126978686319596
27.929548,5.38630800131643,0.112424122412445
27.93414,5.418575696349346,0.1122047911913298
27.938728,5.4414383513147175,0.1120770055572618
27.943316,5.462291669773392,0.1118715622678464
27.947908,5.477293544506486,0.1116525016874983
27.952504,5.482479683580971,0.1114874578201177
27.957084,5.480670575053936,0.1113344358247272
27.961684,5.479550433363148,0.111070504496463
27.966272,5.473233912966135,0.1107951604294251
27.970872,5.457878906644016,0.1105717961380545
27.97546,5.437982586635028,0.1103462658141526
27.98006,5.408148346253288,0.1101864092790104
27.984644,5.367476751051145,0.1101021707656629
27.98924,5.322796722467344,0.110025864311808
27.993832,5.272920315177321,0.1099373260011911
27.998428,5.218624778914576,0.1098409100306742
28.003016,5.160442993984319,0.1097468632300927
28.007608,5.094655037881814,0.1097199391168626
28.0122,5.024858648397653,0.1096976942697047
28.016788,4.961191973884253,0.1095430330037466
28.021376,4.895315734884491,0.1093721835922885
28.025964,4.831360549494171,0.1091633991713849
28.030556,4.766261560227914,0.1089870749377089
28.035156,4.697975528762128,0.1088800605025565
28.03974,4.629445127868052,0.1087851572380948
28.044328,4.566433518374009,0.1086052812957859
28.04892,4.506775277242266,0.1083964553127859
28.0535,4.442664005320912,0.1083020227676219
28.05808,4.384970959247238,0.1081064802530465
28.062688,4.335250638488248,0.1078116226639145
28.067276,4.289905305253353,0.1074627473750478
28.071888,4.257274238999673,0.1069378114511645
28.076464,4.233148778365889,0.1063366596134906
28.081056,4.206369155837789,0.1058306346914688
28.085656,4.1895274536824445,0.1052622030312087
28.090248,4.180047553271057,0.104653078397324
28.094852,4.173065728222948,0.1040918727387364
28.099432,4.179086681032976,0.1034001818285866
28.104028,4.189648947529871,0.1027207564141196
28.108616,4.2000109860471015,0.102133805223189
28.113216,4.216468837718205,0.1015630722148134
28.117796,4.239633426113908,0.1009598697303964
28.122396,4.26872750150071,0.1003129557577585
28.126988,4.307226616955055,0.0995998019952411
28.131584,4.34936761164862,0.0989127918999452
28.13618,4.394128866419611,0.0982818487738373
28.140776,4.444575238753408,0.0976447807955805
28.145384,4.505570455030687,0.096915665159825
28.14998,4.56984099640475,0.0962638038933926
28.154568,4.637098351998676,0.0956502558369997
28.159164,4.708364140974258,0.0950544521094429
28.163752,4.776731398627233,0.0945873803709297
28.168348,4.848329839928363,0.0941330433350034
28.172936,4.927245941524823,0.0936021784433702
28.177524,5.003996620083547,0.0931380814645139
28.182112,5.086266090042305,0.0926379088937296
28.186708,5.176874839458186,0.0920586319489899
28.1913,5.266584154426418,0.0915160919618286
28.19588,5.355027480804566,0.0910143973165722
28.20048,5.444492426344506,0.0904975514540637
28.205068,5.532647241845735,0.0899765278254649
28.209664,5.618881003737523,0.0894998607742668
28.214256,5.70817962311469,0.0889948033638797
28.218844,5.7959237430248525,0.0885083336368079
28.22344,5.885300405667538,0.087977951251599
28.228032,5.974266372719158,0.0874310506137992
28.23262,6.061144959998563,0.0868797185267232
28.237216,6.143237864162808,0.0863452971858259
28.241804,6.219767835478394,0.0858105490319127
28.246408,6.291267754250528,0.0852969637338019
28.251,6.3555721974414805,0.0848337036281342
28.2556,6.420976303059744,0.0843108476577739
28.26018,6.481472540848702,0.0837998803884761
28.264772,6.538737594989506,0.0832974037290199
28.269364,6.594159638786385,0.0827672025842134
28.273964,6.63993227308743,0.0822857953808463
28.27856,6.678998170663876,0.0818245163857679
28.283152,6.7158545037539605,0.0813583856608575
28.287736,6.750867826500121,0.080858405130744
28.292332,6.786736442245301,0.0803158325989613
28.296936,6.818230070466389,0.0797917357037058
28.301528,6.843016961962875,0.0792765683836917
28.306116,6.861874366468263,0.0787770629463695
28.310704,6.871082361477816,0.0783100193987564
28.315296,6.873217065620333,0.0778700020287852
28.31988,6.869666652200042,0.077424195718351
28.324472,6.861863435969804,0.0769853439214253
28.329064,6.848663613053679,0.076568456336019
28.333664,6.833009856222902,0.0761467062253938
28.33826,6.813880546315679,0.0757310672892635
28.342852,6.798182648036273,0.075262116619589
28.347444,6.776066523909187,0.0748245202317147
28.35204,6.751496465867449,0.0743816066914827
28.356632,6.723450854749264,0.0739440433642993
28.361216,6.693484190021639,0.0735183727179047
28.365808,6.6673596325128965,0.0730627644481558
28.370396,6.642378878880093,0.0725889956048158
28.375008,6.612656583580758,0.0721430898877031
28.379596,6.582812103567278,0.0717014734243157
28.384204,6.552845438839653,0.0712659492144339
28.388796,6.520957720502587,0.0708394392054894
28.393396,6.490624501632523,0.0704162938157114
28.397988,6.457226425277079,0.0700187783723296
28.40258,6.431923258950467,0.069591548419682
28.407184,6.408296776805006,0.0691610765495826
28.411764,6.388556543327054,0.0687476312919187
28.416368,6.373191297373197,0.068326130861964
28.420956,6.363877723124583,0.0678977026772465
28.425556,6.365723916390181,0.0674189617779039
28.430144,6.375787204398752,0.0669113724268581
28.434744,6.385606122979034,0.0664205951106112
28.439328,6.406462624359381,0.0658923974954137
28.443928,6.432471362997325,0.0653657878267908
28.448512,6.466697196378244,0.0648177985381604
28.453108,6.502599713940313,0.0642750042885282
28.457704,6.538135677359946,0.0637566316713905
28.4623,6.57420452108479,0.0632619945958898
28.466896,6.61566997149552,0.0627580471830806
28.471496,6.659833725249194,0.0622519904551995
28.476084,6.701954240679281,0.0617681327058901
28.48068,6.755234523623579,0.0612500446584838
28.485272,6.817098455453292,0.0606998108417875
28.489856,6.8891005356354205,0.0601249152535777
28.494448,6.961713539388278,0.0595324158225947
28.49904,7.039723149827022,0.0589369610990779
28.503624,7.121819236912939,0.0583210906808922
28.508212,7.198152163170535,0.0577364597637571
28.5128,7.274973828284714,0.0571387727032305
28.517388,7.344888528694627,0.0565942533865531
28.521984,7.412227110475743,0.0560585921340045
28.52658,7.483285614761596,0.0555229932941327
28.531168,7.543062166819093,0.055030335591156
28.53576,7.602061469143087,0.0545399313079227
28.540352,7.655297610638756,0.0540790687215914
28.544956,7.707512132972633,0.0536276042210113
28.549544,7.759848840020656,0.0531739804556306
28.554132,7.8085878092780865,0.0527258990944988
28.55874,7.854628475192574,0.0522840353497188
28.563332,7.900014076087705,0.0518365538643064
28.567924,7.942579188925746,0.0513966159178736
28.572504,7.974883968697224,0.050983923646535
28.5771,7.996684045973848,0.0506067943301567
28.58168,8.009367594059846,0.0502419967122413
28.586284,8.015677057746792,0.0499234371982779
28.590876,8.015568295586059,0.0496129648951169
28.595464,8.006998069254058,0.0493212327391005
28.600056,7.997650593188555,0.0490219001491991
28.604652,7.978575664361698,0.048755184958213
28.609256,7.952183075239513,0.04849286433787
28.613852,7.91426416446068,0.0482618049359813
28.61844,7.860976824806316,0.0480744726711452
28.623036,7.805524062114221,0.0479016303144679
28.627624,7.740466031374916,0.0477553695384987
