Time,Force,Position
21.814472,2.984643481035512,0.1459049566946834
21.819064,3.1668020637085963,0.145533277479777
21.82366,3.334926009730012,0.1453846483251263
21.828248,3.495589631478476,0.1447645112064302
21.83284,3.6417637795355806,0.1442727386158795
21.837436,3.776513311386704,0.1436291142489273
21.842024,3.895218870079463,0.1429779362651775
21.84662,4.00111163926201,0.1422855624164026
21.851208,4.0932921844867,0.1415882773667981
21.8558,4.165097910477559,0.1410819512270941
21.860388,4.217306066968089,0.1407477716981477
21.864976,4.255679814786615,0.1403910089398848
21.869568,4.279319719485489,0.1400288340662178
21.874148,4.290146834674153,0.1396072642247212
21.87874,4.285917694049356,0.139289354126519
21.883336,4.272884197296005,0.1388501324843331
21.887924,4.253500278328751,0.1382557081501307
21.89252,4.224500851682551,0.1377014690881383
21.897108,4.190260904881501,0.1370967681635761
21.901708,4.148004091317135,0.1365838094249778
21.906288,4.101083779351759,0.1361031832357252
21.910888,4.052320457042458,0.1355890210633282
21.91548,4.007887980808622,0.1349048003280636
21.920076,3.959002473785175,0.1343750462558016
21.924672,3.907584989581559,0.1339546810822296
21.929268,3.854412777931275,0.1336355556097608
21.933848,3.8077029335772994,0.1332270541929577
21.938444,3.7602599809384505,0.132893949419303
21.94304,3.712861169748229,0.13263136190171
21.94764,3.673967964177904,0.132220418109783
21.952232,3.6407598761703848,0.131734812251681
21.95682,3.610049863526146,0.1312869207603485
21.961408,3.5815935568168973,0.1309093550943682
21.965996,3.5519154029661912,0.130670552357049
21.970576,3.5269007475164984,0.1303882768734326
21.975172,3.5032403635541463,0.130198125338346
21.979764,3.483632554422079,0.130034676579532
21.984352,3.4704871125863206,0.1297897171264508
21.988952,3.458695942237904,0.1296400494425319
21.993536,3.4515682702904997,0.1294527617798005
21.998116,3.446039239258728,0.1293336393595605
22.007296,3.442108849142589,0.1292821305400638
22.011904,3.447793966705396,0.1292124288622659
22.016484,3.459164201831009,0.1290724295195393
22.021072,3.4732768817481943,0.1289495727904321
22.025668,3.487800257256444,0.1288709002101538
22.03026,3.506209881432205,0.1287617789533099
22.034856,3.5268290700943266,0.1286465703002217
22.039436,3.54798113906166,0.1285623765383938
22.04404,3.5706877074959964,0.1284699552700752
22.048632,3.595848209844986,0.1283497848876863
22.053232,3.626527503594008,0.1281032670088687
22.05782,3.660804535133621,0.1277763511410053
22.06242,3.691117274740206,0.1275657980853516
22.067012,3.726049371299177,0.1272519401319266
22.071604,3.7559955567633247,0.1270847689396415
22.076184,3.78377631918974,0.1270032618977961
22.08078,3.816787362139269,0.1267554739036278
22.085376,3.854662131469473,0.126393789592886
22.089976,3.892903454942114,0.1259877168353922
22.094568,3.9315113325571938,0.1255483965094651
22.09916,3.970607949028856,0.1250559723507957
22.103748,4.001609655471686,0.1247289626755128
22.108332,4.031056862447512,0.1244170481635898
22.11292,4.061114992994068,0.1240414738169211
22.117516,4.088597004911825,0.1237098371358023
22.122108,4.116567755686164,0.1233331442443247
22.126696,4.14772554866003,0.1228643560694827
22.131292,4.173364550233863,0.1225050876176576
22.135868,4.19834848678834,0.1221428379842013
22.140464,4.219979054980516,0.1218230521171086
22.145056,4.239522243400479,0.1215025904651581
22.149636,4.257266562925144,0.1212149415456435
22.154244,4.276276871039895,0.1208691343125414
22.158828,4.292178180220636,0.1205471987896375
22.163412,4.314453573800431,0.1200385131518787
22.168008,4.3351744679132205,0.1195353991172658
22.172596,4.350665081502897,0.1191879341665707
22.177192,4.357572046207161,0.1190252992197396
22.18178,4.369220552577954,0.118770159538679
22.186376,4.379314559481744,0.118523368657665
22.190968,4.390430185547327,0.1182538225665684
22.19556,4.407308972441235,0.1178654331269296
22.200148,4.424309944049287,0.1174688851115378
22.204748,4.441188730943194,0.1170868228722622
22.209332,4.457945333122956,0.1167155173293765
22.213928,4.472780881693276,0.1163860650564445
22.21852,4.480054400539976,0.1162000849334969
22.223112,4.493990514662649,0.1158846024385674
22.2277,4.510502747414118,0.1155454007428967
22.232296,4.531756521832119,0.1151221505420531
22.236884,4.5521550032511,0.1147815287025765
22.241472,4.576639961317256,0.1143524571649491
22.24606,4.607543145231091,0.1138324891773231
22.25066,4.636158721393049,0.1133820849274238
22.255248,4.661831624783772,0.1130004476987935
22.259844,4.689181212355644,0.1126041959847837
22.264436,4.715098485174658,0.1121958882009009
22.269024,4.747678353269644,0.1116697037102195
22.273608,4.773229071946222,0.1112966796537348
22.278196,4.800089920661511,0.1109438782167777
22.282788,4.826828584662655,0.110607467115295
22.287376,4.854222313683157,0.1102900328255882
22.291964,4.882271107723014,0.1099850786591706
22.296552,4.911219336210518,0.1096723801789623
22.301148,4.943110237469258,0.1093095403173139
22.305736,4.980519930128031,0.1088794742268666
22.31034,5.024592218062776,0.1083389425659958
22.314932,5.065721833226286,0.1078607569706527
22.319528,5.105052579494499,0.1074143320919633
22.324116,5.139397414667893,0.1070641800637102
22.328716,5.173209369536073,0.1066974827849337
22.333296,5.201913228595287,0.1064348006136531
22.337896,5.227019349863909,0.1062212720903402
22.342484,5.255845393637268,0.105959851171008
22.347088,5.285326502429983,0.1057100881840211
22.351672,5.3206929567651695,0.1053751248196782
22.356268,5.360800952766885,0.104976753920235
22.360848,5.399110079873306,0.1046067011037777
22.365444,5.442771672216985,0.1041274736077274
22.370032,5.489742491474337,0.1035877339124732
22.374628,5.538878733769421,0.1030161211446587
22.379216,5.583517803826267,0.1024938889098966
22.383804,5.628645612739695,0.1019447093463464
22.388392,5.674017791081414,0.1013861802121861
22.392984,5.717835469956128,0.1008367991319498
22.397576,5.755601477125599,0.1003382461833818
22.40216,5.792712419275713,0.099840089644875
22.406752,5.828513231387113,0.0993258124546995
22.411344,5.864025532621595,0.0987849605828938
22.415936,5.904890299093336,0.098153921087901
22.420528,5.944444935526364,0.0975082158288113
22.425116,5.989474221910797,0.0967667496398844
22.429712,6.032293943808869,0.0960215379299677
22.4343,6.072249036201223,0.0952649755569021
22.438892,6.10933949908786,0.0944919635370681
22.443488,6.137679986926311,0.0937849743601604
22.448076,6.1639330949925455,0.0930678399631566
22.452676,6.186955019410626,0.0923565506100288
22.457268,6.205846325732904,0.0916600613731532
22.461872,6.216887091454642,0.0910103019176427
22.466452,6.221876185471136,0.0903923963459562
22.471052,6.22579951887721,0.0897378354811658
22.47564,6.224570615025686,0.0891044487360138
22.48024,6.219333277792508,0.0884706446191885
22.484828,6.20959876832109,0.0878649031808787
22.489428,6.1993313785444615,0.0872394492328381
22.494024,6.186854424281471,0.0866014818628208
22.49862,6.173844589713271,0.0859433632608256
22.503208,6.1562153981926855,0.0853187017222579
22.507804,6.130491296643268,0.0847426598835137
22.512408,6.104112130074495,0.0841526618954651
22.517,6.06747263043916,0.0836418490954272
22.521592,6.028912077194383,0.0831444939120553
22.52618,5.989085535359519,0.0826709946651399
22.530768,5.951180047134098,0.0821738944999068
22.535356,5.913929623928033,0.0816819421162389
22.539944,5.87721208102718,0.0812044105723882
22.544544,5.838695669231029,0.0807313461800447
22.549128,5.801733756901884,0.0802591222307067
22.55372,5.76530472487795,0.0797998971768181
22.558316,5.727609704263931,0.0793638596742455
22.562896,5.689425944793328,0.0789542538251398
22.567488,5.657416041742115,0.0785143658480307
22.572076,5.629536756786706,0.0780710520795088
22.576664,5.606154644069536,0.0776009975568392
22.581272,5.58485991112458,0.0771547253434639
22.585852,5.564997492932482,0.076721038938558
22.59044,5.548366258388539,0.0762918761410993
22.595036,5.536887261102192,0.0758505636483953
22.599624,5.533136619702237,0.0753934181604313
22.604228,5.5324949772362935,0.074951379122856
22.60882,5.542646548142122,0.0744587553487934
22.613416,5.561015213790929,0.0739268783472123
22.618004,5.583881051677974,0.0733783716785208
22.622604,5.6060137812801445,0.0728790155601871
22.627192,5.62970101034932,0.0723872930703976
22.631792,5.652899500561913,0.0719300622952096
22.636372,5.681250228032102,0.0714667262224657
22.640972,5.710133835807501,0.0710261963179108
22.645568,5.74825615748767,0.0705410882722775
22.65016,5.792552335587228,0.0700396088678725
22.654744,5.84710884675335,0.0694872031876715
22.659332,5.901543173205326,0.0689548663093642
22.663932,5.957776368552599,0.068427396205168
22.668524,6.015930617509312,0.0678962318622754
22.673116,6.076250289503758,0.0673454065872065
22.6777,6.136980657089268,0.066827406243865
22.682292,6.198488274408282,0.066323040362158
22.68688,6.258319207546146,0.0658230724862249
22.691468,6.315574022055211,0.0653327269706308
22.696064,6.372951021278422,0.0648427678281593
22.700656,6.4294285860539855,0.0643677829427813
22.705248,6.477078132515844,0.0639606072917017
22.70984,6.520108322025318,0.0635752612818865
22.714432,6.567224988181966,0.0631587835100441
22.719012,6.619327565433435,0.0627117678278226
22.723608,6.67101944709384,0.06224323222974
22.728188,6.723732947916038,0.0617730687840103
22.732776,6.777590252614175,0.0612925359471327
22.737372,6.827072569788218,0.0608273679824165
22.74196,6.876022006657052,0.0603511389081848
22.746564,6.915488360192823,0.0599248853205444
22.751156,6.951234791223857,0.0595148840752157
22.755752,6.982606234730797,0.0591108334816648
22.760332,7.01115719018065,0.0587216134073706
22.764932,7.035866038411618,0.0583533961281145
22.769524,7.056322083832639,0.0579795797312161
22.774124,7.076123064234304,0.0575988028738943
22.778712,7.095924044635968,0.0572194673098433
22.783308,7.1130267216946885,0.0568446210006514
22.7879,7.1253878570868805,0.0564881772252031
22.792488,7.132474570507329,0.0561342834933864
22.79708,7.1419710763938,0.0557461091004468
22.801676,7.155187504785011,0.0553484232663648
22.806264,7.163784576223836,0.0549645445333058
22.810856,7.163675814063101,0.0546204490749486
22.815448,7.162423248026428,0.0542892434460897
22.820032,7.159493997808606,0.0539556351146951
22.82462,7.155909682571426,0.0536123379479945
22.829216,7.14913832513472,0.0532954905769938
22.833804,7.138524860479132,0.0529930477568816
22.838404,7.130076818861276,0.0526706545892926
22.842996,7.124571450014656,0.0523350589134046
22.847584,7.117022842844447,0.0520107693070406
22.852188,7.109474235674241,0.0516864362917693
22.856776,7.097184086837503,0.0513734951405128
22.861368,7.088613860505501,0.0510518456825076
22.865956,7.076445896382907,0.0507315122559029
22.870548,7.065177366707963,0.0504109827995033
22.87514,7.0535422828905805,0.0501066300006497
22.879728,7.044727687130287,0.049794171864782
22.884332,7.03542435251341,0.0495040744968355
22.888928,7.027553332649395,0.0492314035692758
22.893516,7.014940771118846,0.0489712033383627
22.898108,7.002206024874153,0.0487160297430717
22.9027,6.991514516953047,0.0484464098961572
22.907304,6.979801389870147,0.0481817749644315
22.911884,6.96322453640657,0.0479343788882552
22.916484,6.941539587134027,0.047716067046946
22.921072,6.91715633451854,0.0474960214158205
22.925672,6.894571950798349,0.0472747350995008
22.93026,6.868678340164487,0.0470826882666542
22.934848,6.833057276769272,0.0469251904650511
22.939432,6.800789581736357,0.0467794566608414
22.944024,6.76545702921806,0.0466506807311486
22.948624,6.737686506423384,0.0465025754588182
22.953216,6.705052257248031,0.0463711708546775
22.957812,6.671929269216095,0.0462631039190508
22.962408,6.63177713176575,0.0461909893646168
22.966996,6.591624994315406,0.0461184296718555
22.97158,6.54955180325562,0.0460504563329409
