Time,Force,Position
21.966292,2.37771996738271,0.1609387760180951
21.970888,2.5021208832700137,0.1589506971618421
21.975476,2.616006857030724,0.157356793139923
21.980076,2.7241194303313714,0.1558758989986573
21.984656,2.818119323714834,0.1550214638654525
21.98926,2.9092884894094686,0.1539597950903661
21.993848,2.9913308862817405,0.1530836392072421
21.998448,3.0668226329604464,0.1522037978051752
22.003036,3.135763729445588,0.151339197058437
22.007628,3.1944342532324272,0.1506114082081984
22.012224,3.246431942111556,0.1498668305998961
22.016812,3.292612089081993,0.1489215315900189
22.021408,3.3363280625060403,0.1477729358311327
22.026004,3.3677302249081977,0.1468476918378874
22.030592,3.388905956060681,0.1461340260749995
22.03518,3.407217057707447,0.1454283990156963
22.039768,3.420375922096617,0.1448847170729927
22.044348,3.4312471787339085,0.1444778769803057
22.048948,3.4395864581910307,0.1442243260185577
22.053544,3.450624040991096,0.1439012470665972
22.05814,3.4602734504869312,0.1436624191296291
22.062724,3.469556305840329,0.1434667684028951
22.06732,3.483702887574403,0.143100184134171
22.071908,3.496827850146684,0.1427785415933405
22.0765,3.517392657728439,0.142240461165597
22.081096,3.532849369501226,0.1418983814840258
22.085684,3.5456519193796985,0.1417082930074116
22.09028,3.5587429801350896,0.141571504211095
22.094868,3.5713453020338988,0.1414977451069144
22.099468,3.586157188419068,0.1414113018084425
22.104064,3.602645758985388,0.1412957212332399
22.108652,3.625963250990453,0.1410447556137247
22.113256,3.645971516081847,0.1409421428279614
22.117844,3.671254203144982,0.1407200963607058
22.122448,3.697724835532685,0.1405214195510021
22.127032,3.730613693768067,0.1401605084482707
22.131632,3.765834301203956,0.1397915923797625
22.13622,3.798645116173821,0.1395389300424473
22.14082,3.8306006381446673,0.1393787908338906
22.145404,3.863089040420724,0.1392495054718993
22.150004,3.9046939718874047,0.1389164790415711
22.154596,3.9515733253258274,0.1384791772425106
22.159192,3.9992299284977513,0.1380563015923247
22.163784,4.052160953641417,0.1375512856290744
22.16838,4.101904936585557,0.1371794096390369
22.172968,4.160354753129255,0.1365905978777307
22.177568,4.224812099929569,0.1358350762912458
22.18216,4.290535435319968,0.135035501113809
22.186752,4.356503140138658,0.1342206996373598
22.191332,4.422959583813931,0.1333665852029867
22.195916,4.486962093574551,0.1325509049787749
22.200508,4.547611234972871,0.1318094411360031
22.2051,4.606950246332479,0.1310516416300481
22.209696,4.66203645488214,0.1303631305713032
22.214284,4.716423456963813,0.1296057040333015
22.218872,4.765780406502039,0.1289347339598235
22.22346,4.808674988743956,0.1283312264887212
22.228052,4.851525429537244,0.1276636511635372
22.232648,4.89584208690028,0.1268637050329658
22.237236,4.933696376967007,0.1261249740426512
22.241844,4.960102388642603,0.1255811787251018
22.246436,4.981967086631333,0.1250608105888067
22.251024,5.001744404847847,0.1245413779548485
22.255616,5.0104399988156665,0.1241625324253535
22.260208,5.011651606325385,0.1238606445811832
22.2648,5.0039910540727695,0.1236969478523088
22.269396,4.993588057028582,0.1235155398584944
22.273992,4.978521561583384,0.1233544870732863
22.278572,4.95879156773717,0.1232135527342046
22.283172,4.936729824690451,0.1230813839719294
22.28776,4.917077874109755,0.1228665685952227
22.292364,4.891618621252108,0.1227051978214215
22.296952,4.867425356984546,0.1224964812311391
22.301552,4.843598646859422,0.1222553597985967
22.306148,4.820915740610235,0.1219759665093468
22.310744,4.795778900446396,0.1217139374250195
22.315328,4.76859882195897,0.1215007758935208
22.31992,4.7399864287186855,0.1212800281102361
22.32452,4.710230231602463,0.1210890225621055
22.32912,4.685870641172126,0.120814292761975
22.333712,4.666496961836611,0.1204271635994409
22.3383,4.644835674749217,0.1201080452781791
22.342888,4.620109530176443,0.1198597014764068
22.347476,4.600535622861266,0.1195499301555545
22.352064,4.58930099500321,0.1190922540950269
22.35666,4.5797430513263055,0.1186150784515092
22.361252,4.566264957164999,0.1182879812527737
22.365848,4.554874242775908,0.117972320233358
22.370444,4.549168645949624,0.1176135829064988
22.375024,4.541419810799753,0.1173025990102244
22.37962,4.528562879840914,0.1171154910705649
22.384208,4.522412685606676,0.1168606254434548
22.388796,4.51757262141115,0.1166227888107701
22.3934,4.518006979187366,0.1163167587622265
22.397988,4.512966687012177,0.1161640231526111
22.402592,4.514510946847442,0.1159595349071352
22.40718,4.523006312835599,0.1156688220656915
22.411768,4.53334468916768,0.1154146235020507
22.416364,4.544093761090825,0.1151922285200062
22.420956,4.554354094157389,0.1150166309344465
22.42556,4.5640035036532245,0.1148973417656896
22.43014,4.580193323710885,0.1146686060690022
22.43474,4.600758131292641,0.1143884692958382
22.43932,4.623121807769691,0.1140864806062053
22.44392,4.641931887904779,0.1138995350430479
22.448504,4.6612748483450765,0.1137305617497969
22.453108,4.683927035699046,0.1134696947662119
22.4577,4.70927752639596,0.1131749149459088
22.462296,4.7348723865211655,0.1128677964922175
22.46688,4.768684341389347,0.1124485929286532
22.471472,4.809813956552857,0.1119280343634965
22.47606,4.852209560306452,0.1113819539838992
22.480656,4.894849533488338,0.110825643033208
22.485248,4.929150227213101,0.1103944929282071
22.489832,4.97227893925157,0.1098040606641159
22.494412,5.010499783460734,0.1092502428504191
22.499008,5.051130420135923,0.1086434179675196
22.5036,5.09711352204837,0.1079334216225487
22.508192,5.144484797265049,0.1071834378626085
22.512788,5.190545942443014,0.1064223685372904
22.517376,5.235952022601622,0.1056567105144784
22.521976,5.27800473439793,0.1049263206041491
22.526556,5.318747316155526,0.1041897829506953
22.531148,5.360878071217351,0.103422334859438
22.535736,5.406029542315929,0.1025529323828982
22.540324,5.456777848080058,0.1015727923060177
22.544912,5.5057272849488905,0.1006149838718167
22.5495,5.5487472348266245,0.0996936751980157
22.554088,5.587392197180265,0.098814263255751
22.558684,5.617164999771574,0.0980202537149768
22.56328,5.640108880924138,0.0972738578410064
22.567876,5.658677774552606,0.0965679671890116
22.572456,5.672871680656981,0.0958946310192534
22.577056,5.691152063408531,0.0951500514480069
22.581648,5.7051796433501325,0.0944385381825148
22.586252,5.714465681625202,0.0937762207734605
22.590844,5.714757375423795,0.0931942871717622
22.595436,5.70773140892706,0.0926861838355064
22.600032,5.698129323801526,0.0921924517400758
22.60462,5.6849295008854,0.0917253122797126
22.609208,5.672873481845214,0.0912338026450308
22.613804,5.658896409195587,0.0907634156523578
22.618408,5.63903399100349,0.0903679967205687
22.622996,5.61340841198307,0.0900394736576162
22.627584,5.580753683544239,0.089808833848892
22.632172,5.540414740667643,0.0896628729891873
22.636752,5.500320167219339,0.0894967503138264
22.641344,5.468687057942302,0.0892395685983591
22.645928,5.442694924779444,0.0889232186631048
22.65052,5.424919886359562,0.0885391206890292
22.655112,5.411519835463773,0.0881302472773993
22.659704,5.396731611263754,0.0877592635257823
22.664296,5.384519505692532,0.0873758379836761
22.668888,5.376682387645405,0.0869720369609523
22.673484,5.370277584351136,0.0865820648261755
22.67808,5.376831417466375,0.0860865637196595
22.68266,5.391113606468006,0.085563407359953
22.687272,5.406950294936642,0.0850450897586575
22.691864,5.42524091731993,0.0845291183937548
22.696456,5.452403699465551,0.0839690299586224
22.701052,5.482020415525824,0.083417455946918
22.705632,5.5167893688436935,0.0828540295106969
22.710224,5.562063024656417,0.0821957624232233
22.714812,5.612611102440884,0.0815156642852541
22.719408,5.676117816634855,0.0807476946225487
22.723996,5.744654583372279,0.079974979822976
22.728588,5.817444152919649,0.0792041572076435
22.733176,5.885902876391555,0.0785184186934302
22.737776,5.949009134626199,0.0779197614731075
22.742372,6.008028916213671,0.0773828882453231
22.746964,6.067703762820499,0.0768663670537771
22.751544,6.134163389417444,0.0762950892000908
22.75614,6.206263992128569,0.0756959986778119
22.760736,6.275544106782603,0.0751315706472758
22.765332,6.3447020367224924,0.0745823943860699
22.76992,6.410140044157645,0.0740768840287386
22.774508,6.4759446057352354,0.0735629947270641
22.779096,6.54408091651333,0.0730632013994236
22.783692,6.610296173681986,0.0725824142084834
22.78828,6.673935312221843,0.0721183655609095
22.792856,6.736675016314052,0.0716673927422125
22.797452,6.800802893710491,0.071198781715899
22.80204,6.862110283049842,0.0707606866503306
22.806632,6.926604714588718,0.0702991596172498
22.81122,6.9837814858322655,0.0698798892666048
22.815808,7.041569180646542,0.0694364414802474
22.8204,7.098701810441461,0.0689920438609833
22.824988,7.161309090187785,0.068495364195701
22.829576,7.228491585437866,0.0679434265161417
22.834172,7.298206057868118,0.067357383592933
22.83876,7.366732584973802,0.0667542034902277
22.843352,7.433826797326627,0.0661523214219489
22.84794,7.495402218279419,0.065579246163709
22.852544,7.554645890031704,0.0649996093183779
22.857132,7.612823801173568,0.0643949122690243
22.861732,7.66687109421963,0.0637899013922775
22.866308,7.715521780579804,0.0632017789919936
22.870916,7.762573826024346,0.0625728382916834
22.875504,7.810236795039617,0.0619183578635348
22.880104,7.853769145959084,0.0612600726699684
22.884688,7.892271444335102,0.0605973240364633
22.88928,7.92459988629173,0.0599463016930083
22.893872,7.952308971295975,0.0593113197116201
22.898468,7.967059419890712,0.0587130931077605
22.903056,7.979233749856651,0.0581139072442883
22.907656,7.984867669260764,0.0575355122574546
22.912236,7.987148220302575,0.0569533730976571
22.916824,7.974959776916504,0.0564314633332172
22.921412,7.957130357416256,0.0559268460004891
22.926008,7.933782146515973,0.0554329854136372
22.9306,7.906469643682664,0.0549574352339434
22.935192,7.866487015316766,0.0545333324025087
22.939788,7.824050453036216,0.0540973248873456
22.944368,7.778793402698577,0.0536646590346221
22.94896,7.7285504412661155,0.0532529625352958
22.953548,7.670501080681745,0.052868304119432
