Time,Force,Position
30.238904,2.408765443289043,0.156745448203389
30.243492,2.561133927029013,0.1559975624693491
30.248092,2.7053192178428973,0.1552538766211174
30.252672,2.8469622918448723,0.1543397934841129
30.257268,2.986962583482587,0.1531942153233705
30.261855999999995,3.1178802477465672,0.1524900566355589
30.266456,3.2477660532170147,0.1515596671571247
30.27104,3.3706124696373143,0.1507059842959291
30.275636,3.486830192598531,0.1499787901614494
30.280244,3.5948647226336607,0.1494116566813617
30.284836,3.705342946951705,0.1484968782980756
30.289424,3.815933116352155,0.1472799695603578
30.294024,3.909467933064185,0.1465270897387037
30.298616,3.997229349316153,0.1457961612893775
30.303208,4.0723104004037936,0.1453029764742278
30.307796,4.144971419393673,0.1447164744171133
30.312383999999994,4.212680429105618,0.1441733733903699
30.316972,4.276214679273133,0.1436569917370627
30.321568,4.338927538258519,0.1431041612046729
30.326164,4.403761678833009,0.1424358464235222
30.330752,4.461889082682898,0.1418885668606035
30.335344,4.522626506978475,0.1411681778215544
30.339924,4.588550070348537,0.1402274478044173
30.34452,4.6531193622312585,0.1392451808288745
30.349104,4.712370090693611,0.1383051016413072
30.353691999999995,4.765525006002089,0.1374018185425014
30.358296,4.811440304280758,0.1365981277450794
30.362888,4.853547397157434,0.1357508646256859
30.367476,4.892212838774552,0.1348309383310975
30.37206,4.929357682741555,0.1338033916290359
30.376648,4.960118202677768,0.1327962769223922
30.381243999999995,4.983106225278959,0.1318479690650708
30.385824,5.004329280801743,0.1307926943850011
30.390424,5.015203720360708,0.1298240604550613
30.395012,5.021126150641741,0.1288366248988692
30.399612,5.017477214692455,0.1279261834837961
30.4042,5.0068330311416505,0.1270531888401198
30.408804,4.986495296646382,0.1262597862723473
30.413388,4.956708380634942,0.1255241390316508
30.41798,4.916861359536601,0.1248991039933232
30.42256,4.873861198055624,0.1242194153588517
30.427156,4.819168388755226,0.1237338952307422
30.431743999999995,4.756092158549076,0.1233292056766921
30.43634,4.685942637475891,0.1230229653540475
30.440928,4.61395010605878,0.1226718330023724
30.445516,4.544367367107695,0.1222179302810686
30.450104,4.471431259794308,0.1217945780001508
30.454699999999995,4.396696283585626,0.1213906989815102
30.459292,4.318241384872206,0.1210487658411337
30.463871999999995,4.233901140616316,0.1208319286738827
30.468467999999994,4.145352234999108,0.120723154588534
30.473056,4.056681144667754,0.1206184808387442
30.477652,3.969197999660968,0.1205242216815924
30.48224,3.883680049712251,0.1204622615209497
30.486816,3.7994722298022463,0.1204207586242685
30.491423999999995,3.718006854683813,0.1204091845916298
30.496012,3.64132716268054,0.120345177480465
30.500604,3.569966034097636,0.1202772154506427
30.505199999999995,3.5052335989738137,0.1202118046158883
30.509788,3.446719161718009,0.1201080048270898
30.514384,3.394178352901932,0.1199861498691482
30.51896,3.3536187027821955,0.1196825812197634
30.523556,3.3208315499974805,0.119331635065491
30.52814,3.2969606984237267,0.1188953046483071
30.53274,3.2766536828236745,0.118562811083472
30.537327999999995,3.25643495012088,0.1183920782445005
30.541932,3.243988714753105,0.1181856727882988
30.546524,3.2413582150439404,0.1178828224039039
30.55112,3.2490763312985957,0.1175135801169773
30.555704,3.2633009562981874,0.1171679469083345
30.560296,3.28223322114742,0.1168774488126219
30.564888,3.3089379833316745,0.116558772758352
30.56948,3.3407169395080074,0.1162665787584715
30.574068,3.3824338160570955,0.1158739218211226
30.578664,3.4347436779982945,0.1153984528200748
30.583244,3.498013079474041,0.1148079457706366
30.587827999999995,3.5654572404942177,0.1142759860236954
30.592416,3.642961506601295,0.1136527959943799
30.597012,3.722430967766442,0.1130621621828791
30.601603999999995,3.806441742618456,0.1124915466619591
30.606192,3.890130104776661,0.1120370385552481
30.610783999999995,3.9737404236693488,0.1116920110866171
30.615364,4.057394884010665,0.1114363772230268
30.619955999999995,4.138639551885957,0.1112815175831818
30.624552,4.225647380589573,0.1110125727352488
30.62914,4.320217239016809,0.1106039732563735
30.633736,4.413643293568105,0.1102388914435005
30.638324,4.5028606867580825,0.1100046485584925
30.642916,4.58758090770982,0.1098447154434417
30.647507999999995,4.674833105841727,0.1095959464953467
30.6521,4.763840031420302,0.1092505021764312
30.656696,4.850270838370079,0.1089444259080582
30.661283999999995,4.932204473081616,0.1086946615860465
30.665884,5.007064816926118,0.1085392842022805
30.684252,5.245368312049217,0.1084705208206864
30.688844,5.299609467231597,0.1083691377796318
30.693439999999995,5.347510439831812,0.1082858181753247
30.698024,5.396100379268273,0.1080916018440099
30.70262,5.441414993607952,0.1078573411581785
30.707215999999995,5.486519140336229,0.1075325815369912
30.711816,5.531046265310668,0.1071400287775923
30.716408,5.569766088008153,0.1067882134085085
30.720996,5.597159817028654,0.1065347934815382
30.725584,5.623077089847668,0.1062233837393462
30.730176,5.647640091179341,0.1058451498287434
30.734764,5.668561213271795,0.1054499668388913
30.73936,5.682775598639647,0.1050956181587546
30.743944,5.6968236578447256,0.1047033567725217
30.74852,5.704653719181788,0.10431197245624
30.753104,5.713949997088597,0.1038168641522711
30.757692,5.724223752708572,0.1032528814733134
30.76228,5.732121617679411,0.1026364823259989
30.766887999999994,5.734334365087445,0.1020384700960795
30.771476,5.7353591671709125,0.1014130543986696
30.776084,5.731109547282638,0.1008302341613125
30.780668,5.715577975166005,0.1003863333865581
30.78526,5.699513522744163,0.0999227574079171
30.789856,5.683571255036467,0.0994512324701952
30.794452,5.666973922309413,0.098969124437133
30.799048,5.642692375144595,0.0985849363425551
30.803639999999994,5.615590339922687,0.0982314702970084
30.808236,5.589632108576718,0.0978509951106047
30.812816,5.57148027638266,0.0973613520451817
30.817415999999994,5.5541056939221045,0.0968714387713439
30.821996,5.533544069262023,0.096436431668173
30.826584,5.51940067044962,0.0959383041305395
30.831176,5.50885500942781,0.0954078944062903
30.835772,5.496143925368267,0.094918847553536
30.84036,5.488340709138029,0.0944159877032116
30.844956,5.480581634356421,0.0939655513809369
30.849543999999995,5.474254874327668,0.0935270087484856
30.85414,5.473613231861726,0.0930814981270061
30.858723999999995,5.479678326120379,0.0926140288274139
30.863312,5.490773472922485,0.0921327362450117
30.8679,5.508941910591628,0.091606468284051
30.872499999999995,5.535083073575455,0.0910235989876795
30.877088,5.565232669940939,0.0904429365445234
30.88168,5.59182866996446,0.0899435151345818
30.886275999999995,5.622188733941346,0.0894653683769276
30.890856,5.661054403538128,0.0889533486738016
30.895456,5.703928506516568,0.0884435065172102
30.900036,5.749012173981367,0.0879559531026142
30.904627999999995,5.793240548447146,0.0875357826497488
30.909223999999995,5.838656868237494,0.0871496305106582
30.913812,5.893067532504319,0.0867080206736797
30.918403999999995,5.948011077076355,0.0862987630691427
30.922992,6.00438693640125,0.0859080842481978
30.927584,6.062850175498362,0.0855412839732422
30.932179999999995,6.127365086300715,0.0851601001166537
30.936772,6.196499354055454,0.084752569921103
30.941376,6.26628868682955,0.0843623258764835
30.945955999999995,6.334934215727706,0.0840019126517913
30.950556,6.404479179073509,0.0836476115582398
30.955144,6.473246892685812,0.0833008372876602
30.959744,6.540093552688672,0.0829792886479542
30.964332,6.607184582119824,0.08265074177346
30.968928,6.674519980979267,0.0823152749532491
30.973512,6.747862910095327,0.0819218487210313
30.978108,6.819895709172672,0.0815177414237493
30.982696,6.886121205973064,0.0811207440986282
30.987292,6.950014953572951,0.0807202493289982
30.991896,7.010677517524684,0.0803227540916154
30.996492,7.07092938588535,0.0799085700758679
31.001079999999995,7.128194440026155,0.0794817282716146
31.005672,7.1815732454994485,0.0790546130662434
31.010259999999995,7.225180456762761,0.0786659543769744
31.014855999999995,7.2675997227015054,0.0782579840529789
31.019436,7.305844229095821,0.0778103300628657
31.024028,7.334150815117382,0.077368282798199
31.028624,7.354073980233191,0.0769348543583827
31.033216,7.371132515843284,0.076480545712226
31.037808,7.383527553052364,0.0760108754837711
31.042396,7.3884386038033405,0.0755428272484957
31.046992,7.389341221172663,0.0750681462452032
31.051572,7.390199697093356,0.0745556860453422
31.05616,7.383452001841801,0.074046120874295
31.060756,7.3701197545797905,0.0735296460376885
31.065344,7.346116478660152,0.0730427472927825
31.069948,7.317982584644712,0.0725506288941727
31.074532,7.288538560590558,0.0720351432383841
31.07912,7.257007156764189,0.0714939941178472
31.083715999999995,7.217503027623136,0.0709665997468347
31.088296,7.170270542595689,0.070441135670681
31.092892,7.123526796424824,0.0698852356725347
31.097472,7.068565955510984,0.069353961030914
31.102072,7.015770537634875,0.068790198815269
31.106663999999995,6.956679078625233,0.0682385051860681
31.111264,6.895544381292002,0.0676955378658251
31.115848,6.835186933692273,0.067147747407518
31.120444,6.773807866930751,0.0665991180724413
31.125032,6.709730496826286,0.0660491200318085
31.129628,6.641811019502939,0.0655115700235718
31.134215999999995,6.572625553589505,0.0649869441318743
31.138811999999994,6.500497414904838,0.064473347298846
31.1434,6.418397454030526,0.0640290644194108
31.147984,6.342837903718039,0.0635425757067305
31.152572,6.272308405949004,0.0630545441223681
31.15716,6.208319318741795,0.0625281826318298
31.16176,6.143064242944501,0.0620155263328119
31.166343999999995,6.08026310106186,0.0615021744675385
31.170939999999995,6.016973220322636,0.0610076726193206
31.175528,5.964720922383477,0.0604680455954116
31.180119999999995,5.919541915311356,0.0599125384467902
31.1847,5.871708746344919,0.0594037426456223
31.189288,5.831726117979022,0.0588882057852485
31.193895999999995,5.797140096299011,0.0583586830239537
31.198488,5.766806877428948,0.0578289173077532
31.203095999999995,5.7434247647117775,0.0572990085538853
31.207676,5.724539824232847,0.0567601976918012
31.212264,5.710440566869073,0.0562461764571454
31.21686,5.701249177334604,0.0557518010043316
31.221447999999995,5.703506066191265,0.0552560979645583
31.226043999999995,5.713857865076759,0.0547504233880184
31.230632,5.733081823724584,0.0542429780116786
31.235236,5.7662860379437095,0.0536897889276643
31.239816,5.796469536126083,0.0532137589455122
31.244416,5.828207533775462,0.0527559946556434
31.249004,5.862155095911199,0.0523300574126165
31.253612,5.9041975680757695,0.0519008467310014
31.258204,5.951636646926227,0.0514748613512319
31.2628,6.005249582196072,0.0510552239597546
31.267392,6.058373778609337,0.0506727819140058
31.271988,6.110764866737726,0.0503355452072034
31.276584,6.166509323228414,0.0500090943075863
31.281175999999995,6.220210541395517,0.0497010714455547
31.285768,6.274200270439539,0.0494323768002464
31.29036,6.331421183131715,0.0491854192468663
31.294951999999995,6.3876204766620965,0.0489506812524607
31.299536,6.440510543278808,0.0487536891334833
31.304123999999995,6.497487086542692,0.0485335502850609
31.308724,6.554219260378285,0.0483291489696211
31.313312,6.607353696423287,0.0481300523137071
31.317896,6.65178229886873,0.0479646992165537
31.322492,6.690447740485848,0.0478214355327339
31.327079999999995,6.7196300987699065,0.0477060636142048
31.331672,6.751222249519988,0.0475589672439598
31.33626,6.77525237054645,0.0474310790306485
31.340852,6.7936415154587335,0.0473164051310645
31.345448,6.803447011485603,0.0472274651010741
31.35004,6.804668858627059,0.0471638326584326
31.354631999999995,6.801393533530276,0.0470999766321625
31.35922,6.79235504760517,0.0470543277247377
31.363812,6.782661496660707,0.0469959813337402
31.368404,6.769614577353944,0.046924291763371
31.373003999999995,6.750926681933001,0.0468639897331684
31.377607999999995,6.725165495645024,0.0467957977503425
31.382188,6.695151506547096,0.0467136190694553
31.386792,6.6556544341161095,0.0466548787087996
31.39138,6.614358492789826,0.046595432883688
31.395979999999994,6.560881164787537,0.046557505253395
31.40056,6.500330545918212,0.046510422538443
31.405156,6.430419028429972,0.0464798050918331
31.409752,6.360996249798313,0.0464214536397274
31.414348,6.285277430033119,0.0463602922007712
31.418932,6.207759741372631,0.0462973670645911
