Time,Force,Position
24.757408,1.425656810012726,0.1527311184357341
24.761992,1.4653848293185934,0.1517401727711169
24.76658,1.502492588547035,0.1507593385304248
24.771172,1.540822194916933,0.1494430200108268
24.77576,1.5721565536853117,0.1483392111745025
24.78034,1.5986610878899032,0.1472085954126708
24.784932,1.6267540233783888,0.1457010337628548
24.789515999999995,1.656146849273848,0.1436993512130579
24.794128,1.6836966648253835,0.141771730373979
24.798715999999995,1.706094243119324,0.1400970255170344
24.803324,1.7210519764037897,0.1389517136572005
24.807915999999995,1.7353546446688992,0.1378033058129601
24.81252,1.7445050756764129,0.1369276823384041
24.817112,1.7577419833311,0.1357285719531999
24.8217,1.7669704576041312,0.1346858955355099
24.826292,1.7795081587908343,0.1333604527222517
24.830888,1.7943334677294158,0.131851765697489
24.835484,1.8003307583542925,0.1309300448996165
24.973199999999995,1.805639082142924,0.1303589683529152
24.9778,1.819096697040752,0.1301059048288931
24.982388,1.82920094357628,0.1299619812847542
24.986984,1.8366068867688647,0.1299403077162286
24.991568,1.845933883570891,0.1298137257467679
24.996168,1.8555052498012083,0.1296289328252656
25.00076,1.865609496336737,0.1294981665538071
25.005352,1.8846639459001155,0.1288478128638129
25.009944,1.9058838185012268,0.1280365650852174
25.014536,1.9292691141400709,0.1270354375531178
25.019131999999995,1.9509777255977647,0.1261072145799304
25.023724,1.9651243073318392,0.1255630307697947
25.028303999999995,1.9807812470842896,0.1248538346063228
25.032896,1.9909193954367077,0.1243764252310462
25.037484,2.0006468481980604,0.123828344332684
25.042084,2.0046111401310887,0.1236027457434982
25.046664,2.0043226292541694,0.1235069432570674
25.051252,2.006976791148485,0.1232561012752751
25.055844,2.008076453575796,0.1230253601184385
25.060431999999995,2.0114637237549844,0.1226248038307362
25.065024,2.017382971114344,0.1220148738059723
25.069616,2.0237909573302857,0.1213145608316848
25.074204,2.032119997155669,0.1205299619530502
25.078796,2.038772352799902,0.1197760269904417
25.083384,2.042726405101192,0.1191140425186821
25.087996,2.046924826830773,0.1184035387783063
25.092588,2.0459710113027585,0.1178282713124607
25.09718,2.039376219660565,0.1174950732967197
25.101776,2.031104743837222,0.1171952660788521
25.106364,2.024998691051611,0.1167624660738517
25.110956,2.0169715846565595,0.1164103825381714
25.115548,2.0131531396228275,0.115809924868733
25.12014,2.0054925873702127,0.1153762371915333
25.12472,2.002695761498274,0.1147026993423629
25.129308,1.998222251445185,0.1140615835687711
25.133896,1.9938709261062424,0.1133895781093669
25.138496,1.98837579689136,0.1127950504330251
25.14308,1.979405114600032,0.1123013007830883
25.147672,1.970434432308704,0.1118038610805951
25.15226,1.961463750017376,0.1113045981036308
25.156856,1.948406591078874,0.1110210555034693
25.161444,1.934327812978578,0.1107833270034502
25.16604,1.9156296779258977,0.1107152801019191
25.170616,1.897830977320865,0.1106200986287876
25.175204,1.8833415036295045,0.1102967535269105
25.179784,1.865909357166909,0.1101143301594118
25.18436,1.85501762126614,0.1096654365771565
25.188956,1.8450253198130184,0.1091820813340106
25.193544,1.8367097025410468,0.1086645835843858
25.198136,1.8244297933360472,0.1083359313981342
25.20272,1.815092556902282,0.1078674468608234
25.207308,1.8064103854878732,0.1074205129274314
25.211912,1.8022253863117048,0.1068343739055737
25.2165,1.798573267440746,0.1063008310415262
25.221088,1.7964756480367918,0.1057606298731314
25.225684,1.7961768975281336,0.1051666500526324
25.230264,1.7992315153817753,0.1045165594676907
25.234856,1.807682739921304,0.103719900183888
25.239443999999995,1.816011779746687,0.1029537735077729
25.244044,1.8231970156961312,0.1022716007716477
25.248632,1.8298935127889928,0.1016733774108562
25.253232,1.8371228901870649,0.1011315302964692
25.25782,1.84848288568094,0.1005206651334375
25.262416,1.8604979461941704,0.0999306223827912
25.267012,1.871535528994236,0.0995628167285523
25.271604,1.8889913376419825,0.0989898287872016
25.276195999999995,1.9021163002142631,0.0986849098349914
25.280788,1.9148747086441067,0.0984588604424354
25.285376,1.9266114979121567,0.0982879107174896
25.289976,1.9420682096849444,0.0979932926752968
25.294564,1.956258932867647,0.0978048327652686
25.29916,1.9711047210697052,0.0976501542172193
25.303747999999995,1.9860726939859104,0.0974867569927161
25.30834,2.003206089939848,0.0972197204084673
25.312928,2.020339485893785,0.0969526838242185
25.317523999999995,2.038494501009516,0.0966565322936848
25.322116,2.05599445110589,0.0963440052547996
25.326704,2.0677312403739405,0.0962270029361735
25.331299999999995,2.078202041051906,0.0961954743770999
25.335875999999995,2.087773407282223,0.096182942047692
25.340472,2.102575054035654,0.0959341308756424
25.345056,2.116843820483874,0.0956412257809282
25.349644,2.1327451296646163,0.0952058114182886
25.354236,2.149912427435442,0.0946896290355275
25.358828,2.166913399043496,0.0940629702809874
25.363432,2.179417198413309,0.093543885165176
25.368028,2.195474594125086,0.0928237712256914
25.372616,2.2115319898368626,0.0920996584120893
25.37722,2.2277115702627848,0.0913558167111989
25.38182,2.2459343890122945,0.0905690068611667
25.386412,2.263502142742448,0.0897525181297356
25.391,2.2787381472720942,0.0889305217187801
25.395596,2.2909092943163603,0.0882272491063173
25.400176,2.2984610844082414,0.0876329463685887
25.404776,2.307156678376062,0.086986827051022
25.409364,2.3129095995726474,0.0864328330072237
25.413964,2.3187847054833783,0.0858661674494806
25.418556,2.3267030497176964,0.0852235557113748
25.423148,2.334088513646804,0.0845244075072968
25.427736,2.341718347004202,0.0837793010442466
25.432332,2.3446066386950704,0.083158530529582
25.436931999999995,2.34827218011944,0.0825479014400111
25.441528,2.3487506793442843,0.0820656509162383
25.44612,2.3464086905120385,0.0816443797601715
25.450712,2.3428007130897086,0.0812960583948926
25.455292,2.3418910390103216,0.080908151858728
25.459876,2.3395931916267045,0.0806169512643366
25.464464,2.337661898385524,0.0802665202801891
25.469056,2.3358527898584898,0.0798964836952746
25.473648,2.325460032446042,0.0797159386049998
25.478236,2.315067275033594,0.0795335148335517
25.482832,2.306473386516442,0.0793236697204993
25.48742,2.3000449210370224,0.0790299111285207
25.492012,2.296192574186401,0.0787186066001599
25.4966,2.294383465659367,0.0783492461761921
25.501188,2.2925743571323323,0.0779772114577812
25.505792,2.2887220102817105,0.0776666343420383
25.51038,2.288711770649972,0.0772789853702089
25.514968,2.293320887970618,0.0768228297048694
25.519564,2.301527743081856,0.0763330754354816
25.524152,2.3141095857171865,0.0758156734217528
25.528744,2.3265692436383723,0.075322834465376
25.533335999999995,2.341727204902501,0.0748033574199889
25.537932,2.3624039575666638,0.0742182881200131
25.54252,2.386800632735562,0.0735852676274208
25.547111999999995,2.410297873456813,0.0729748632286222
25.5517,2.43224061471106,0.072350248608495
25.5563,2.4558600401464568,0.0717377442920355
25.560892,2.474493554487031,0.071226301624043
25.56548,2.5015885329988734,0.0705800564074305
25.570072,2.5324034340154533,0.0698942626294713
25.574668,2.5620745311560933,0.0692615574409005
25.57926,2.5897023899731466,0.0686861404854297
25.583856,2.6174524335043454,0.0681010331039713
25.588439999999995,2.6418932501218726,0.0676413395482361
25.593036,2.670298358672428,0.0671106028446245
25.597624,2.700091640527214,0.0665092572884202
25.60222,2.721179088782441,0.0660579710152019
25.606808,2.737647180085282,0.0656642550366214
25.6114,2.7502731641692413,0.0653360052430118
25.615991999999995,2.7586463454432537,0.0650084638584876
25.620584,2.7626445391931718,0.0646917421377979
25.62518,2.7631671798666435,0.0643829694912608
25.629767999999995,2.7581710291400823,0.0641284573660999
25.634352,2.7476560870134894,0.0639248193056566
25.638948,2.7325217879345107,0.0637649806942331
25.643532,2.716365869693739,0.0636245014941719
25.648128,2.6957127792147277,0.0635100873103479
25.652708,2.6846649567829237,0.0632533516662183
25.657296,2.666421658769936,0.0630365171071963
25.661892,2.6434368190904185,0.0628774862627225
25.666484,2.622495217734488,0.0626723051230969
25.671088,2.60257523554035,0.0624438040974345
25.675668,2.5812229385933545,0.0621682867930679
25.680268,2.558193957465209,0.0618853294622247
25.684848,2.528380196346945,0.0616993248609513
25.689447999999995,2.49411340443907,0.061651406803098
25.694036,2.4658541427878107,0.0614860975088124
25.698636,2.440293184479496,0.0613028439751354
25.703223999999995,2.414077161151824,0.0610848998107766
25.70782,2.391458875614743,0.0608424769181354
25.712408,2.3725605125823988,0.0605586688514765
25.716999999999995,2.3546837687118485,0.0602469257026815
25.721592,2.332964917622416,0.0599829271001204
25.72618,2.313411489570716,0.059646894972142
