Time,Force,Position
25.103572,1.2167121044888511,0.1471538471663677
25.10815999999999,1.2359770216636317,0.1460780771791642
25.11276,1.2526216787609863,0.1450909884022357
25.11733999999999,1.2648472068856191,0.1442076635903484
25.121932,1.2734308557710323,0.1433836378389541
25.126528,1.278372625417226,0.1425923609019981
25.131120000000003,1.2797947005383463,0.1418321801905595
25.13571199999999,1.284770372001429,0.1405477570910033
25.140308,1.2884359134257992,0.139266408286692
25.144896,1.2922236395643152,0.1379625466180027
25.434192000000003,1.2817425992546112,0.1376831302282082
25.43878399999999,1.2747032102044633,0.1376293879689558
25.443372000000004,1.2701177550689675,0.1374837311258024
25.44796,1.273871579390594,0.1367730666843258
25.452544,1.2802015223410186,0.135947840145807
25.457131999999994,1.2864092805772969,0.135147262806096
25.461724,1.2954375268706646,0.1341579541939273
25.466320000000003,1.3043435884498868,0.1331900677548099
25.470904,1.3103069772578742,0.1324456137352706
25.475492,1.3168032463710724,0.1317763454111411
25.48008,1.3232995154842706,0.1310977232513039
25.484672,1.332982826796995,0.1301143309190022
25.48925599999999,1.3457309955951,0.1288773285496121
25.493848,1.3565581107837634,0.127789688278387
25.498439999999995,1.372126767638958,0.1264244370124392
25.503032,1.3845083822946258,0.1253788807594566
25.507628000000004,1.3989332352738808,0.124186979725026
25.512224,1.4159342068819338,0.1228486180201103
25.516811999999994,1.4381654590131,0.1210074749454837
25.52142,1.456676788639529,0.1194211253853475
25.526012,1.4736336187989538,0.117905921276405
25.530616,1.488425025920646,0.1166548238347908
25.535204,1.5014175641470422,0.1154947664918044
25.539808,1.5095463759927623,0.1147083413407721
25.54438799999999,1.5138330806195994,0.1141492984608001
25.548984,1.521961892465319,0.1133765527335564
25.553564,1.5272702162539502,0.1127631645458196
25.558152,1.5362984625473182,0.1119765211276335
25.562744,1.5504789460982815,0.1110157245050934
25.56733599999999,1.5665804832586865,0.1099873034669823
25.571936,1.5873013773714766,0.1087866093556589
25.576532,1.6067562828941817,0.1077600387102678
25.58111999999999,1.6258446342744497,0.1068724622779268
25.585712,1.6487750928736005,0.1058248840668123
25.590304,1.6687628787015163,0.1049861869437116
25.59488799999999,1.6878512300817845,0.1041464223500216
25.599467999999995,1.7089828197856396,0.1032543789009613
25.60406799999999,1.7330570822607296,0.102257723822359
25.608656000000003,1.7558653561457347,0.1014041822187755
25.61324,1.781616302801975,0.1004202578760543
25.61783599999999,1.809943368087013,0.0994256357709638
25.622424,1.832873826686164,0.098542214056684
25.627008,1.858624773342404,0.0975671081510265
25.631595999999995,1.8870740233415872,0.0965413970700641
25.636184,1.9198541194162368,0.0952645561557778
25.64078,1.947892673824355,0.0941860236394913
25.645368,1.978751716289562,0.0930219190372332
25.649972,2.0069124554118263,0.0919654544463308
25.65456799999999,2.0350290530854624,0.0908107824483213
25.659156000000003,2.05582799046377,0.0898414936760122
25.663751999999995,2.0727848206231947,0.089032880331913
25.66834,2.08524447854438,0.0883093821282071
25.672936,2.092962594799035,0.0877281019610663
25.677524,2.096716419120661,0.0873058877732225
25.682123999999995,2.0947070826139638,0.0870697224160182
25.686704,2.0997268955256745,0.0865558915143774
25.691308,2.0979619284472686,0.0862750697142642
25.6959,2.0932542885976275,0.0860988595436931
25.7005,2.088913202890424,0.0858528949862648
25.705092,2.086370986078515,0.0855754398579961
25.709688,2.078309977866573,0.0854187394727776
25.714279999999995,2.0808758568636327,0.0849510411177499
25.718876,2.081765051679542,0.0844979970830322
25.723476,2.0752144014859764,0.0842104661560372
25.728068,2.066376143540533,0.0840402140207645
25.732660000000003,2.0612578080998265,0.0837874808376138
25.737255999999995,2.055362222925618,0.0835284836452989
25.741844,2.04832283387547,0.0833264469500939
25.74643199999999,2.0397730868069464,0.083242380413771
25.75101999999999,2.037641565586103,0.0830399175698404
25.755616,2.0319123065746685,0.0828916968757134
25.76019999999999,2.0308024045156188,0.0826472746004235
25.764792,2.036721651874978,0.0821717339030435
25.769388,2.0487706142050985,0.0814982617621953
25.773968000000004,2.067359987097045,0.0806649947160291
25.77855999999999,2.078798025856437,0.080101057502175
25.78314799999999,2.094977606282359,0.07942160258497
25.787736,2.110257752260634,0.0787521854774446
25.792331999999995,2.1222286713252365,0.0782320367067597
25.796916000000003,2.129458048723309,0.0778283219834531
25.801520000000004,2.140285163911972,0.0773657586500333
25.80611199999999,2.1429393258062874,0.077190669479871
25.810712,2.145226933558166,0.0770799580421021
25.815307999999995,2.15519875574781,0.0767780516146985
25.8199,2.1652927626516,0.0764557662220205
25.824504,2.173465715945948,0.0761851772141574
25.829084,2.1785738117549154,0.0760158042584036
25.833684,2.186746765049264,0.0757471518215521
25.838264,2.190300361391227,0.0755580896541553
25.842864,2.192832338571397,0.0754060623395302
25.847456,2.201660356885101,0.0751660461464367
25.852056,2.2133088632558957,0.0748803289415554
25.861232,2.222425392446519,0.0747515831197841
25.865816,2.2243464460559608,0.0747129783381262
25.870411999999995,2.230231791598431,0.0745770282822171
25.875,2.232397214636164,0.0744994508734692
25.879591999999995,2.236361506569192,0.0744027337739589
25.88418,2.2432684712734554,0.0742359569673208
25.888767999999992,2.251852120158868,0.0740661969034436
25.89335599999999,2.2585147154348406,0.0739357858407158
25.897952,2.267464918462691,0.0737011172186236
25.902544,2.2765373062046868,0.0734454280418705
25.90713999999999,2.283810825051387,0.0732190079674856
25.911732,2.291861593631589,0.0730042915653838
25.916312,2.299012927764144,0.0727982504562735
25.92090799999999,2.30808531550614,0.0725491566968544
25.925496000000003,2.3144593999051923,0.0723342076908598
25.930084,2.3274960795802166,0.0719914385168546
25.934688,2.341920932559472,0.0715723472576057
25.939280000000004,2.351193548281131,0.0711719501124099
25.943871999999992,2.3567462414980533,0.0708349742604869
25.94845999999999,2.3640978036102718,0.0704810159942667
25.953051999999992,2.3628657168370752,0.0702736343744304
25.957643999999995,2.3586909572926453,0.0701314812343908
25.962236,2.3519400791194176,0.0699952928717934
25.966832000000004,2.348131873717424,0.0697932964407563
25.97142,2.341991919114924,0.0695564884608879
25.97602,2.336218518654861,0.0692620873310477
25.980612,2.3309338570513805,0.0688900954020614
25.985204000000003,2.3271595534662763,0.0684122499482605
25.989788,2.323507434595318,0.0679150349152662
25.994388,2.319200250705004,0.0673847146612061
25.998975999999992,2.313094197919393,0.06686791983766
26.003567999999994,2.3072325145620733,0.0663164204757477
26.00816,2.299571962309459,0.0657706015514285
26.012756000000003,2.29342176807522,0.065123177607907
26.017356,2.288948258022132,0.0644819435361013
26.02195199999999,2.2806326407501607,0.0639066530793091
26.026544,2.26528787405978,0.0634795669747528
26.031131999999992,2.252519225998197,0.0630474384923865
26.03571999999999,2.236930089879525,0.0626470974096058
26.040316,2.222851311779229,0.0621440102232306
26.044896,2.217967106135076,0.0614021837235103
26.049492,2.214881769386217,0.0606435089772806
26.054088,2.2106526287614203,0.0599213138943732
26.058680000000003,2.201681946470092,0.0592575879365508
26.063275999999995,2.193899209503331,0.0586791129005956
26.067856,2.183295984479482,0.0581315045104374
26.072448,2.170649521132045,0.0576270177859325
26.077036,2.1557154500327305,0.0572057688860842
