Time,Force,Position
26.531716,2.5820339309905886,0.1619901701229438
26.545488,2.819160411287579,0.1619824906400729
26.55008399999999,2.88583437928432,0.1617252711019038
26.554676,2.951476488487528,0.16118183007639
26.55926399999999,3.009912882477815,0.1606398615236252
26.56385199999999,3.0648634837599174,0.1599105426917854
26.568443999999992,3.1156732273144785,0.1590198293556781
26.57304,3.161198309265559,0.158016102967147
26.577628,3.193998884603685,0.1572063674746023
26.582228,3.216773256671801,0.1564696710342909
26.586808,3.2410918885751827,0.1554514533489878
26.591412,3.255350415391664,0.1547105041967788
26.596,3.269442616045372,0.1539098865126123
26.6006,3.287499108632107,0.152934584410096
26.605184,3.3057999706471337,0.1519395026926839
26.609772,3.318337671833837,0.1511773704423523
26.614367999999992,3.333285165486564,0.1502883180650714
26.61895599999999,3.346922529100578,0.1493963384050584
26.62355999999999,3.364157630505184,0.1483965072313257
26.62816,3.373830702186169,0.1476654794622875
26.632748,3.386568631352536,0.1467945678666904
26.63734399999999,3.401349798842489,0.1458396297909384
26.64193199999999,3.4140877280088557,0.1449830209386664
26.646528,3.418364193003954,0.1444147477763867
26.65112,3.4216190388372585,0.1438924474047327
26.65571599999999,3.420909592737534,0.143525599329705
26.660304000000004,3.4155807896854258,0.1433066404843391
26.6649,3.4102519866333174,0.1430876860655853
26.66948399999999,3.407865856352444,0.1427577842259667
26.674075999999992,3.4113650716140405,0.1422090814612979
26.678667999999995,3.4057918991336407,0.1420197789319968
26.733804,3.3119039508325856,0.1419238247926924
26.738396,3.3129594718112685,0.1416971835103598
26.742996,3.3159360463993925,0.1414086108493988
26.747584,3.3225103587781084,0.141023738268301
26.752188,3.330639170623829,0.1406195547114303
26.756768,3.3360696791266053,0.1402875906394013
26.761360000000003,3.340478568467588,0.1399953918396699
26.765956,3.3415782308948985,0.1398559142875915
26.770552,3.349340488598182,0.1395020812190522
26.775128,3.353505008510873,0.1392424024695428
26.779723999999995,3.3559928442424147,0.1390137507097742
26.784316,3.3622006024786937,0.1386728412734725
26.788908,3.368774914857409,0.1382821711995619
26.793492,3.374982673093688,0.1379338009970719
26.798076,3.38053536631061,0.1375741122692836
26.802664,3.384044821203945,0.1372999118040491
26.807259999999992,3.38755427609728,0.1370262532820981
26.811856,3.3977263262665867,0.1365389784709773
26.816448,3.406099507540598,0.1361095412462258
26.821044,3.413695439081107,0.1356902365002611
26.825624,3.42231298978341,0.1352296301701039
26.830207999999992,3.4254117490856806,0.1349311678326726
26.83479599999999,3.42544565090257,0.1347475396631526
26.839384000000003,3.423680683824164,0.1346096073528537
26.84397599999999,3.4201168478504624,0.1345163856692449
26.848568,3.420927999400854,0.1343260632132651
26.85315599999999,3.4244374542941887,0.1340697867438049
26.857752,3.4302345169394024,0.1337118302525154
26.86234,3.429491169022789,0.1335369257004533
26.866939999999992,3.4363098508297965,0.1331455940100535
26.87152,3.449424573770338,0.132610760987248
26.876112,3.462661481425026,0.1320720123803235
26.880692000000003,3.4772085191184265,0.1315501658906068
26.885296000000004,3.496374913764212,0.1309115897669155
26.889884,3.5188946767722977,0.1302190309605546
26.894484,3.541292255066238,0.1295399260922826
26.899072,3.565244332827182,0.1288545418846181
26.903668000000003,3.586131553102746,0.1282957672951816
26.908248,3.60755165368352,0.1277681280348681
26.912844,3.632447307340741,0.1271887099515541
26.917444,3.661307252930989,0.1265073905025568
26.922040000000003,3.692376763007599,0.1258281203147759
26.926628,3.726266761141298,0.1250810739151145
26.931224,3.7639988664938793,0.1242502710490658
26.93581199999999,3.807127578532348,0.1233174589400338
26.940400000000004,3.847557987227873,0.1224513634440388
26.944991999999992,3.8896650801045487,0.1215881010551561
26.94957999999999,3.9303839996769927,0.1208090283239633
26.954172,3.9777655145254096,0.1198678527431021
26.95875999999999,4.019916748850713,0.1191127203051989
26.96336,4.058348060671279,0.1184568846648926
26.967948,4.095879938044197,0.1178312157837576
26.972543999999992,4.136843227044934,0.1171018489366349
26.977135999999994,4.179316874064046,0.1163254530877736
26.981724,4.224200313549182,0.1154835125846647
26.986336,4.270349741624403,0.1145962630722677
26.990924,4.314167420499119,0.1137212473253313
26.995528,4.356552784620975,0.1128499463533251
27.000116,4.394685345932882,0.1120221469304956
27.004708,4.426766235539546,0.1112734041565149
27.009300000000003,4.450385660974943,0.1106836475581891
27.01389199999999,4.472039891352269,0.110068364040339
27.018488,4.492383991690884,0.1094404698451099
27.023068,4.508475289219549,0.1088644117944941
27.027668,4.522357022261856,0.1082915374170656
27.03226,4.538648547770185,0.1076440118441545
27.03686,4.549010586287416,0.1070518460723238
27.041447999999995,4.554220387547054,0.1065052164674603
27.046052,4.557753504625538,0.1059778720196363
27.050644,4.5609981108271045,0.1054062581758568
27.05523999999999,4.562932586989958,0.1048151953598096
27.059836,4.5648670631528105,0.1042274543510003
27.064432000000004,4.562059997649134,0.1037232143630537
27.06902399999999,4.549525479384103,0.1033961045229174
27.07362,4.53314885390019,0.1031346607726139
27.078212,4.5167722284162775,0.1028722021458337
27.082804000000003,4.503216090989454,0.1025656695812655
27.087388,4.488638334400838,0.1022788973907125
27.091984000000004,4.47880211947875,0.1019168988175749
27.096575999999992,4.473585261509049,0.1014907994551446
27.10116399999999,4.475930433262968,0.1009473271281106
27.105743999999994,4.481751158093332,0.1003769586572661
27.110336,4.488226947943053,0.0998204549880534
27.11491999999999,4.498833355888576,0.0992508936932521
27.119508000000003,4.506374906348717,0.0987425975344136
27.12409999999999,4.512650468218775,0.0982802445148393
27.128684,4.522401583165278,0.0977894970392509
27.13326,4.542413031178344,0.0971675138401435
27.137855999999992,4.567166020857941,0.0964959563201201
27.142436,4.595394563613984,0.0958058621090965
27.147023999999995,4.626854290018181,0.0951182539720489
27.15162,4.659335635584172,0.0944218689337924
27.156212000000004,4.6916947964360185,0.0937341950574845
27.16080399999999,4.738278582287455,0.0928691048708355
27.165384,4.787560671481836,0.0919907153589745
27.169983999999992,4.836842760676216,0.0911220952085609
27.174564,4.884203796261155,0.0902901945455305
27.179164,4.936184188798479,0.0894215718512624
27.18376,4.991107254107037,0.0885373411838444
27.18836,5.043209831358507,0.0876936735220327
27.192952,5.095556778038269,0.0868541579962147
27.19754799999999,5.145860486394443,0.0860603089356316
27.202155999999995,5.198085248360059,0.085257380291089
27.206752,5.246834457249228,0.0844834619867842
27.211348,5.304045130309666,0.0836394068046794
27.215944,5.3604785536366,0.0828007937141984
27.22054,5.419732465020624,0.0819508164304053
27.22512799999999,5.473345400290469,0.0811734038998834
27.229716000000003,5.520173555570199,0.0804854724215765
27.234304,5.566224461116424,0.079807004266245
27.238892,5.608144748566849,0.0791361727232732
27.243484,5.648021797693684,0.0784986518073897
27.248079999999995,5.69378419236299,0.0778073385060961
27.252672,5.73132949228932,0.0771885563474425
27.25725599999999,5.763478185529764,0.0766009591286468
27.261835999999995,5.7958712481985,0.0760032190265859
27.266432,5.82838649558138,0.0754004056695797
27.27102,5.854361332402433,0.0748483578083076
27.275608,5.874695193109309,0.0743457530931801
27.28020399999999,5.897727357159128,0.0738329745451034
27.284792000000003,5.917694663723566,0.0733615243494169
27.289387999999995,5.936351840249291,0.0728692802246438
27.29398,5.948835160355627,0.0723982245579811
27.298568,5.960907784870898,0.0719014301488784
27.303164,5.96680655296678,0.071430456959747
27.307759999999995,5.972827505776808,0.0709531270317764
27.312356,5.9735740366150925,0.0704914079626247
27.316944,5.972766067986374,0.0700205287132152
27.32153999999999,5.971425219052445,0.069528609106765
27.32612799999999,5.966731001756215,0.0690351336730574
27.33073199999999,5.963835653355281,0.0685342971413357
27.335324,5.959507990201489,0.0680158706454384
27.339924000000003,5.947862666752368,0.0675304730921671
27.34451599999999,5.936217343303247,0.0670447026648988
27.349112,5.928536311787154,0.0665237671152355
27.35370799999999,5.919056411375766,0.0660082887774668
27.3583,5.912519183735613,0.0654724770042733
27.362900000000003,5.911090051904427,0.0648867626964674
27.367496,5.9105603545208885,0.0642983348452925
27.372084,5.914483687926962,0.0636583990351296
27.37668,5.918651390761327,0.063005086801498
27.381272000000003,5.920653670557959,0.0623751333312811
27.385856,5.929074176202271,0.0617238577048428
27.390448,5.939049181313588,0.0610853547979676
27.39504399999999,5.946858763387174,0.0604720397357241
27.399636,5.952747291851315,0.0598692363375102
27.40423599999999,5.964276796429637,0.0592455641812668
27.408828,5.979404038798549,0.0586174030415256
27.41341599999999,5.99710739979626,0.0579927765855622
27.418016,6.017020325280331,0.0573930839669415
27.42259599999999,6.038732119659699,0.0567952042965264
27.427192,6.06224278293436,0.0561957059353036
27.431775999999992,6.090006249018972,0.0556052161593965
27.43636399999999,6.114704857618202,0.0550392482313543
27.440971999999995,6.14030290066508,0.0544787799379755
27.44556,6.169498681502549,0.0539190323199839
27.450164,6.19473017040699,0.0533889094089123
27.45476,6.218451301293055,0.0528993107221235
27.459348,6.241028628303181,0.0524250520121845
27.463956000000003,6.254411382857166,0.0520241424927374
27.46854799999999,6.268571387144651,0.0516315527447166
27.473144,6.2891496172798185,0.0512296738734545
27.477724,6.306418620501312,0.0508664407878454
27.482324,6.321400015970928,0.0505321550392656
27.486912,6.337280845888193,0.0501968303098797
27.491508000000003,6.354593990558315,0.0498806166198978
27.496092,6.362956932200588,0.049615946001303
27.500688000000004,6.369398820233419,0.0493603627137704
27.505284,6.372775850780871,0.0491257384290696
