Time,Force,Position
32.052668,3.0243458174228706,0.1637602015854741
32.057252,3.0410346159688526,0.1634358478858828
32.061848,3.059766652838422,0.163033809381282
32.066436,3.085405654412256,0.1623358267376838
32.071031999999995,3.11578619765262,0.1614596609796521
32.07562,3.151685532293017,0.1603797938867165
32.080208,3.189750289971146,0.1591941260358692
32.084796,3.229980470687008,0.1579032874793984
32.0894,3.2662463594698417,0.1567853674751733
32.093984,3.301734998519173,0.1557131363762005
32.098583999999995,3.336079833692565,0.1547198824451704
32.103176,3.3719350268843336,0.1536241395971793
32.107772,3.4139199350468634,0.1522866199610428
32.112352,3.4561492126376843,0.1509355782729474
32.116948,3.497356871066711,0.1496374808126568
32.121544,3.545593678914148,0.1480563837333532
32.12614,3.5940748561898754,0.1464959305340789
32.130728,3.644843641217481,0.1448505401463762
32.135312,3.697533479854529,0.1431932718981371
32.139904,3.745970515681628,0.1416789340395995
32.1445,3.792975236755869,0.1401982307289095
32.149088,3.832295743392344,0.139012995827383
32.15368,3.8660974586287873,0.1379872965948422
32.158268,3.897855935541644,0.1370530327856418
32.162844,3.926016674663907,0.1362143224148535
32.16744,3.9520900340139553,0.1353837340623186
32.17202,3.9787743169347336,0.1345047593877643
32.176607999999995,4.005047904264445,0.1336070432266389
32.181216,4.035363826792703,0.1325115293404923
32.185804,4.063103630692163,0.1314691484298392
32.190392,4.08761225094347,0.1304589287478255
32.194987999999995,4.109833263442896,0.129542562484627
32.199576,4.126535484542291,0.1287692956441785
32.20418,4.140172848156304,0.1280895532058135
32.20878,4.154954015646258,0.1273687742681588
32.213372,4.163194772574385,0.1268070498022206
32.21796,4.167715606997774,0.1263346226211227
32.222564,4.169415953364075,0.1259323180984069
32.305195999999995,4.033400432922867,0.1259197689399639
32.309791999999995,4.039862800219176,0.1258626018125692
32.314372,4.047224601963132,0.1257899956130263
32.318952,4.059083575945327,0.1256377674659228
32.323547999999995,4.070820365213378,0.1254973532828357
32.328136,4.08280152390972,0.1253349391032806
32.332724,4.101445277882033,0.1250302033254479
32.33732,4.119966847140201,0.1247407073917574
32.341908,4.145395381102633,0.1242956782190809
32.346504,4.175032576426383,0.1237424095399238
32.351084,4.212598355616192,0.1230181883873861
32.35568,4.253351177005525,0.1222067340613397
32.36026,4.298845540061389,0.1213020930714423
32.36486,4.350347433373869,0.120260300710189
32.369443999999994,4.410022279980698,0.1190289902076996
32.374028,4.467121007958728,0.117864460061016
32.378616,4.531781765660377,0.1165894332350604
32.383208,4.5997517502757,0.1152501496799759
32.387808,4.662569497633427,0.1139935818905184
32.392392,4.724443669094878,0.1126889790664313
32.396984,4.782964472194028,0.1114452132094949
32.401584,4.837110287769085,0.1102615741916204
32.406172,4.890601038324785,0.1090786940654089
32.410756,4.941637854965832,0.1079273079907661
32.415344,4.994185029625257,0.1067197699838389
32.419936,5.045177704817677,0.1055235351926651
32.424527999999995,5.091018142752501,0.1043992612650152
32.42912,5.1375916889722,0.1032279036442972
32.433716,5.1776248246300725,0.102176413138887
32.438303999999995,5.212139168887911,0.1012094815844391
32.442888,5.2359824844881215,0.1003653673007767
32.447475999999995,5.255572997278383,0.0995528824162294
32.452064,5.272176695848783,0.098738241318311
32.456655999999995,5.280685484390352,0.09800987552915
32.461244,5.28109936290309,0.0973710704612806
32.465848,5.27726043860588,0.0967580936519513
32.470444,5.264304985118046,0.0962461236683045
32.475032,5.2457085555160345,0.0958041041992699
32.479624,5.227356495342312,0.0953407140669076
32.484204,5.211947107939826,0.09483262569273
32.4888,5.194861036356191,0.0943303765237397
32.493379999999995,5.181861441419728,0.0937583392806309
32.49798,5.170005650359205,0.0931603768958434
32.502568,5.158272044012828,0.0925528697430199
32.507168,5.142818515161713,0.091982469414842
32.511752,5.128020051329956,0.0914211697936977
32.516344,5.111955598908113,0.0908914213470099
32.520924,5.091560300410805,0.0904435119370505
32.52552,5.071287186627643,0.0899837210344485
32.530116,5.053712376187423,0.0895002493640353
32.534712,5.045009725509538,0.0889533418383183
32.5393,5.043624735126979,0.088343757693186
32.543892,5.043549874783134,0.0877574231200418
32.548472,5.054634781953502,0.087068441341201
32.553068,5.072548610562614,0.0863591653056744
32.557655999999994,5.095081796124112,0.0856118546931159
32.562248,5.1201911003144085,0.0848523168384472
32.566844,5.144034415914619,0.0841197750785326
32.571431999999994,5.168044057677604,0.0834352371687993
32.57602,5.190665526136357,0.0828012516791448
32.580608,5.214963678776261,0.082167641232112
32.585187999999995,5.237873658111935,0.0815833545956043
32.5898,5.261316517752817,0.0810266407985214
32.594387999999995,5.287213311308353,0.0804770383631887
32.598983999999994,5.321327199606865,0.079877451338457
32.603572,5.357239956800674,0.0792725334369765
32.60816,5.399570939842163,0.0786299750821233
32.612756,5.450729941197356,0.0778996913921553
32.617356,5.501278018981822,0.077211066783327
32.621952,5.552725531213935,0.0765277515638991
32.62654,5.598287697903578,0.0759168651691215
32.631132,5.6388639534984,0.0753737185570185
32.63572,5.683160131597958,0.0748151420659306
32.64032,5.720549344993254,0.0743400726999818
32.644908,5.752664136416807,0.0738891535260835
32.649516,5.7835129392502775,0.0734720607727461
32.654108,5.816527165121478,0.073029177273585
32.6587,5.856326170982797,0.0725315049285727
32.663287999999994,5.903398695690818,0.0719575121021106
32.66788,5.952514458722424,0.0713700518913296
32.67248,6.00138585232574,0.0708029956906098
32.677071999999995,6.049602180909698,0.0702299246582857
32.681672,6.0971634444743,0.0696530099652064
32.686268,6.141493524390747,0.069074113403598
32.690856,6.181326432068957,0.0685234352368708
32.695448,6.224468566660837,0.0679401570636022
32.700044,6.263235713728624,0.0673732816836389
32.704628,6.293419211910996,0.0668659840949098
32.709216,6.327933556168836,0.0663096341206807
32.713812,6.361792835407319,0.0657485700421501
32.718404,6.398061907111825,0.0651502348674016
32.722992,6.436618586568209,0.0645244513998094
32.727592,6.467979790443412,0.0639225427645856
32.73218,6.501628602070492,0.0632934091999838
32.736771999999995,6.534377979249926,0.0626663604476598
32.741364,6.5652063028199175,0.0620519054530963
32.745952,6.594768637799824,0.0614658586418387
32.750544,6.625596961369815,0.0608704848116176
32.755136,6.647841636054393,0.0603262916918019
32.759736,6.668287441843675,0.0597911958400993
32.764332,6.689466355917832,0.0592210563552136
32.76892,6.711422519725489,0.0586588306774947
32.773516,6.731457629923707,0.0581081989108963
32.778108,6.7549682931983694,0.057562622393818
32.7827,6.777457337311239,0.0570277850052662
32.78728,6.794960470329286,0.0565310823000499
32.791875999999995,6.811564168899686,0.0560368421463612
32.796456,6.834830462746058,0.0555185465341108
32.801056,6.854254649373546,0.0550206756296999
32.805648,6.875477704896331,0.0545263138716029
32.81024,6.894535337381382,0.0540541495953903
32.814832,6.911549731542847,0.0535991278321759
32.819427999999995,6.933183482656696,0.0531353326877029
32.824016,6.952773995446958,0.0526884904086509
32.828616,6.976739495761315,0.0522464690281892
32.833208,7.004791472722846,0.051780762106277
32.837799999999994,7.031166765503226,0.0513117058163706
32.842388,7.049613474417548,0.050886199986553
32.846976,7.067038564170077,0.0504655361866477
32.851564,7.077678873932489,0.0500700386911627
32.856156,7.082966718457644,0.049718314479654
32.860748,7.08621132465921,0.0493797416436324
32.865351999999994,7.087168323108897,0.0490645071966804
32.869944,7.082362160730262,0.0487692319736497
32.874524,7.073713891132743,0.0484854587801491
32.879116,7.058280841545107,0.0482249198514113
32.883708,7.041581803367386,0.0479815494445105
32.888292,7.015399681856603,0.0477624525525805
