Time,Force,Position
26.543832,3.0755616648866093,0.1675034743650192
26.548416,3.1090038826906805,0.1674270567509628
26.553012000000003,3.1339302552431176,0.167323215667721
26.557608,3.1486640983627696,0.1672359840987964
26.562204,3.157946953716168,0.1669542746949413
26.566792,3.160879386855664,0.1665247607999654
26.571384,3.1566502462308668,0.1661645324047566
26.575972,3.150822464690437,0.1657503763538307
26.58056,3.1427851186636464,0.1653641015778037
26.585152,3.140144379322743,0.1647960261209227
26.58974,3.1452319958682327,0.1639987190082057
26.594328,3.1572707185666142,0.162984829336614
26.59892,3.1753611129702395,0.1617820900645315
26.603508,3.193740018250784,0.1606617688294256
26.608084,3.215227922465337,0.1595072926966662
26.612672,3.239047575880397,0.1583060469970282
26.617264,3.2625448166016477,0.1572333510829839
26.621848,3.2887845021144706,0.1561720824135324
26.626444,3.3207093051901,0.154991803403587
26.631024,3.357419791380888,0.1537729392226897
26.635612,3.3933971692868026,0.1526631347660246
26.640212,3.4301959383748466,0.1516629533410629
26.644804,3.466139414463871,0.1507711537132933
26.6494,3.504414639753402,0.1498519799135264
26.653988,3.5447772448151484,0.1489481222501923
26.65858,3.584939621897232,0.1481607393327174
26.663168,3.626534313732173,0.1473604013480312
26.667764,3.665963582529383,0.1466731775234462
26.672352,3.705803546917657,0.146030924597249
26.676952,3.7413126652304665,0.1455915544989957
26.681548,3.773756926057896,0.1452782636131124
26.686132,3.8078778710664736,0.1449558181608938
26.69072,3.8431426199509913,0.1446017302829181
26.695316,3.87558688077842,0.1443357877214721
26.699904,3.904677773243548,0.1441402109664804
26.704496,3.936833523194057,0.143846105467055
26.709076,3.9736866733624674,0.1433467494646635
26.71366,4.013071800711049,0.1427519864099198
26.718252,4.048326309963828,0.1422310144825814
26.722844,4.075852463330213,0.1418702311120585
26.72744,4.103989540267326,0.1414477315704573
26.73202,4.125297695765694,0.1411451177580137
26.73662,4.148482763424875,0.1407203160459844
26.7412,4.167415028274108,0.1403685332687793
26.74578,4.180662175560535,0.140092228736359
26.750364,4.195253354702563,0.1396767365100628
26.754956,4.208778773234171,0.1392236899978072
26.759544,4.222382235031295,0.1386902303350672
26.76414,4.236063740093937,0.1380807694084745
26.768728,4.253010330621623,0.1372854286088115
26.77332,4.272078202738414,0.1363499627923496
26.777904,4.283417718968812,0.1355529828179027
26.782496,4.290626617103404,0.1348206454704528
26.787088,4.294071451284634,0.1340982837035096
26.791688,4.2960839707130045,0.1333733099741055
26.796276,4.293965872045574,0.1327092880344204
26.800876,4.285673916958753,0.132161710409877
26.805468,4.269819932148312,0.1317943062860764
26.810064,4.255231935927957,0.1313704715210493
26.814648,4.242564993317043,0.130896886313777
26.819244,4.229242985686771,0.1304153397944194
26.823832,4.221029073865468,0.1297823046591202
26.828424,4.210771923720578,0.1292080068176639
26.833012,4.20717736885166,0.1284778392690369
26.837608,4.206813997630896,0.1277100204500613
26.842196,4.204163018658253,0.127026898320299
26.846784,4.206131396637995,0.1262534016141053
26.851372,4.2086326549229485,0.1255032088179775
26.855968,4.210767359065465,0.1247940302948348
26.860564,4.2065279788089285,0.1242743971180652
26.865152,4.203476543876961,0.1237865964385232
26.869744,4.206598965364381,0.1232023739778979
26.874336,4.210009897728721,0.1226609727393016
26.878928,4.221027001265309,0.1220283467636835
26.883516,4.237196342059493,0.1213334997314059
26.888104,4.253654193730596,0.1206819213780015
26.892712,4.276940966840445,0.1199527834385171
26.897304,4.30088280496965,0.1192202798041406
26.901908,4.326012588423423,0.1185234474790784
26.906492,4.349754198572966,0.1178880131444189
26.91108,4.37594974263716,0.1172428534513544
26.915672,4.401289993702335,0.116685376559977
26.92026,4.42716312507272,0.1161468556963364
26.924856,4.449971398957726,0.1156983691122796
26.929435999999995,4.477643399223407,0.1151577331562853
26.934028,4.506747714241947,0.1146241657763632
26.93862,4.530866118165665,0.1142114895550121
26.94322,4.553840718213444,0.1138371670919948
26.947812,4.57579369909943,0.1134903948581598
26.952412,4.605430894423181,0.1129957562677127
26.956996,4.629427113632754,0.1126033889521516
26.961592,4.650725029499382,0.1122564563223109
26.966172,4.672633868936739,0.1118569298076603
26.97076,4.691433709440088,0.1114720074900995
26.975348,4.704836943257551,0.1111640968983902
26.979944,4.718606731217449,0.1108245560848234
26.984536,4.723382174700869,0.1106071936535134
26.98912,4.731222475669669,0.1103209981813964
26.993708,4.73877426576155,0.1099968476375835
26.998296,4.749513098052956,0.1095962305469438
27.002888,4.756654192553773,0.1092457720419213
27.00748,4.765672199215404,0.1088042342366024
27.012076,4.776322748609553,0.1082915509275343
27.016664,4.785296613822555,0.1077921571236427
27.021256,4.788873872349668,0.1073649422828041
27.025844,4.78832051278098,0.1069596019887432
27.030432,4.7889109570882304,0.106522115330848
27.035028,4.789745770823773,0.1060643426687925
27.039612,4.792501638168756,0.1055768486664812
27.044216,4.788717094951914,0.1051862943107897
27.048804,4.788652474239808,0.1047412397306119
27.053392,4.788587853527702,0.1042966334460437
27.057988,4.789178297834952,0.1038632828272484
27.062584,4.787481134390324,0.1034903696440363
27.067184,4.78680559010749,0.1030948913896847
27.071772,4.788295468862389,0.1026504636864748
27.076368,4.795181954303175,0.1021401594508312
27.08096,4.807831600572285,0.1015503773546132
27.085556,4.818315823803662,0.1010124263592722
27.090148,4.827778427873247,0.1004994053725013
27.094748,4.8378960969621865,0.0999959962269325
27.099332,4.844337984995017,0.0996025761222219
27.103928,4.850291134171266,0.0992513343411269
27.10852,4.857920967528665,0.098891874358752
27.113112,4.867227485067214,0.0985249477621898
27.1177,4.884628912634592,0.0980779153956661
27.122296,4.904850828259061,0.0976000126086499
27.126884,4.925194928597676,0.0971150304650922
27.131468,4.941941291145699,0.0966671784976076
27.136056,4.96624968341734,0.096126030356054
27.140656,4.9946445523361565,0.0955254512690694
27.145244,5.021118367645531,0.0949500305623938
27.14984,5.046448379078968,0.0944044489819356
27.154436,5.075742682445433,0.0937994363919933
27.159016,5.10887909303078,0.093150415219327
27.163616,5.14279275334963,0.0925177680647371
27.168196,5.1810372597439445,0.0918158545113297
27.172788,5.210698117252845,0.0912291875348958
27.177372,5.243301647532981,0.0906070513527299
27.181964,5.274472863060259,0.0899772266707933
27.186552,5.305111198282326,0.0893282693262564
27.191144,5.3382815106845625,0.0886131879246872
27.195724,5.374638865286325,0.0878548300613247
27.200328,5.410218970154586,0.0870985292290718
27.20492,5.445799075022848,0.0863486518134849
27.209516,5.481090669014188,0.0855838434749572
27.214096,5.5138061443767326,0.0848389899381003
27.2187,5.550363726958158,0.0840650696737518
27.223279999999995,5.5878207439872325,0.0832831149988493
27.227884,5.621557838511569,0.0825474672036049
27.232468,5.65067557608352,0.0818608760096622
27.23706,5.682613801712562,0.0811500452192096
27.241652,5.716961819807628,0.0803936741785665
27.246248,5.751432022616838,0.0796398248398525
27.250836,5.786024410140195,0.0788926352832496
27.255432,5.818207005197528,0.0782023476942348
27.260024,5.845281504445893,0.0775860880426635
27.264616,5.873499807570196,0.0769480358782489
27.2692,5.9017181106945,0.0763177854033094
27.273792,5.933289782181104,0.0756916385896574
27.278376,5.9676819417247975,0.0750498423201557
27.28296,6.002196285982636,0.07440800695019
27.287544,6.033767957469241,0.0738037219672264
27.292132,6.069426105603018,0.0731626538829962
27.296724,6.10442918871744,0.0725151049714413
27.301312,6.133302556861101,0.0719405137807357
27.305908,6.165118597775996,0.0713484008692742
27.310504,6.192070912310215,0.0708015523790858
27.315092,6.224131322653402,0.0702090237597433
27.319688,6.256313917710735,0.0696147692241192
27.324276,6.286575459158626,0.0690352626288909
27.328864,6.319124608358395,0.0684289684939905
27.33346,6.349752703948723,0.0678418522299902
27.33806,6.376660877034315,0.0672761421508736
27.342664,6.400748562062816,0.0667317922145846
27.347256,6.422093802299747,0.0661493620302832
27.351848,6.441884543069673,0.0655584220806562
27.356436,6.463718522163186,0.0649512479747784
27.361036,6.48412018650384,0.0643332358980824
27.365624,6.500924113053904,0.0637283862463408
27.370232,6.517850224318112,0.0631229838530998
27.374816,6.532855281972879,0.0625311809314261
27.379416,6.545284220998847,0.061939727532498
27.384008,6.551949999196492,0.0613838200449923
27.388604,6.560536831003579,0.0608207295264815
27.393184,6.570511836114895,0.0602278764265166
27.397776,6.5737020612360935,0.0596744994590689
27.402364,6.578036090233232,0.0591061957157099
27.40696,6.578039273154906,0.058588084016503
27.411548,6.577143021628931,0.0580729160189934
27.416136,6.577923454284107,0.057560507891722
27.420712,6.576660648615695,0.0570676025293517
27.425308,6.575520027661429,0.0565689053227547
27.429892,6.577977144497754,0.0560659652235985
27.434484,6.579290457458139,0.055577134477586
27.43908,6.582813334904886,0.0551098685225604
27.443668,6.590711199875726,0.0546454956592926
27.44826,6.597587445684774,0.0541905906613124
27.452852,6.60307551818959,0.053762820150808
27.45744,6.605865287351463,0.0533353388443922
27.462032,6.605834568456246,0.0529179996389089
27.46662,6.608257783475682,0.052512468888731
27.471208,6.611336063514474,0.0521180647485684
27.475804,6.612493289943825,0.0517285560548532
27.480392,6.607887355544853,0.051361077719912
27.484988,6.604835920612884,0.0510057511926511
27.489576,6.607181092366803,0.05064706113651
27.494172,6.60646140663534,0.0503078601582351
27.498752,6.602266167827431,0.0499618899917492
