Time,Force,Position
26.162336,1.9666140380438693,0.1781438213126428
26.185279999999995,2.3790740533635906,0.1779573491989353
26.189868,2.4442037615250656,0.1776953834842942
26.194456,2.506502741997713,0.1772113969066885
26.199064,2.57275577477165,0.1759642293545578
26.203652,2.6349120912666733,0.1746075871756374
26.208248,2.6920722570351368,0.1733081073069367
26.212836,2.735408253763335,0.1725787197931615
26.217424,2.7772236528414176,0.1716709621292387
26.22202,2.8185400734311785,0.170632023488339
26.226612,2.8615670800189785,0.1693548327414177
26.231208,2.9051608687288795,0.1679556494803904
26.235796,2.94540128907648,0.1666953818906897
26.240392,2.987152067442457,0.1653311394698578
26.24498,3.026903748933475,0.16424911770638
26.249572,3.06477851826368,0.163372894981909
26.254159999999995,3.109360024318485,0.1623431204757571
26.25876,3.152431172354913,0.161476388382883
26.263348,3.2022090571159425,0.1604330848037265
26.267932,3.254318691077478,0.1593556239340625
26.27252,3.3117027470107554,0.1581082140787599
26.277116,3.373217421039834,0.1567644513094754
26.281704,3.4353871600882697,0.1554871542683101
26.286287999999995,3.4955136608131183,0.1543300119300772
26.290876,3.55359692321438,0.1533239911293597
26.295468,3.614745043101022,0.1522142045875478
26.30006,3.672295425197073,0.151217298613912
26.304652,3.7358533375497385,0.1499596904916565
26.309248,3.797201685416044,0.1487555589130058
26.313839999999995,3.848534069644078,0.1478981867558238
26.318432,3.8956136510621633,0.1471707233448548
26.32302,3.937296625794361,0.1466130276911152
26.327612,3.981878131849166,0.1458983171742568
26.332208,4.024494442845902,0.1451905041495612
26.336796,4.063591059317563,0.1444990623127326
26.341391999999995,4.099945230997653,0.14379702474042
26.34598,4.129059785647931,0.1432181634033167
26.350568,4.152489222735404,0.1427218197638768
26.355164,4.169700661954858,0.1422967352686963
26.359763999999995,4.188011763601625,0.1417642993762694
26.364356,4.20382478988511,0.141207567109323
26.368948,4.213175448872287,0.1407366278217967
26.373544,4.218517674477807,0.1403208352837031
26.378132,4.2256146275299935,0.1397997190857901
26.382732,4.227803712752877,0.1393473428074254
26.387312,4.225207114860603,0.1389516754225788
26.391912,4.225386863576788,0.1384161234948172
26.3965,4.221680363625463,0.1379151530838044
26.4011,4.21846260253072,0.1373662652042521
26.405695999999995,4.214179080825556,0.1367736275594819
26.410288,4.207030929614674,0.1361794816600638
26.414884,4.200615886688667,0.1355092356696056
26.419476,4.190847475400359,0.134892275353223
26.424076,4.179524564645047,0.1342858902616214
26.428668,4.16946764247982,0.1336244047209864
26.433272,4.161453958638179,0.1329000415249594
26.437868,4.153318090082394,0.1321830671364452
26.442456,4.148124894297843,0.1313805521492719
26.447044,4.145385632427944,0.13054471337944
26.451632,4.137904828891515,0.1298258667753702
26.456212,4.127769863460769,0.1292277295808919
26.460808,4.123398058858349,0.1284830468328148
26.4654,4.117105200646487,0.1277813959277546
26.469996,4.104682627463864,0.1272605782885124
26.474584,4.096635041805334,0.1266617213362044
26.479184,4.089897586185519,0.1260757398734277
26.483764,4.081527587833181,0.1255837088714993
26.488356,4.0753671539672025,0.1250885790416664
26.492952,4.068595796530498,0.1246573781988255
26.497532,4.067753926084889,0.1241437251560599
26.50212,4.069654500430853,0.1236482184916145
26.506716,4.068123663149,0.1232768013345372
26.511308,4.063938663972831,0.1230267301814943
26.515903999999995,4.061063794835374,0.1227928254829072
26.520484,4.054635329355955,0.1226973643592394
26.525088,4.0492726244869575,0.122643177519715
26.529676,4.047796168285471,0.1225681825502264
26.534272,4.050205960751494,0.1224738308958407
26.53886,4.052371383789227,0.1224043678463513
26.543464,4.0577679904751145,0.1223076300673121
26.548051999999995,4.068028323541678,0.1220944431876873
26.552652,4.0786993521993065,0.1219204958991646
26.557244,4.092723749219235,0.1217076020692544
26.561836,4.111611872619839,0.121376427104956
26.566416,4.125636269639768,0.1211605093613188
26.571012,4.1405601011073445,0.1209308464479125
26.575608,4.156749921165006,0.1206517022774509
26.5802,4.170774318184935,0.1204396699643105
26.584788,4.182344781290211,0.1202499209490004
26.589376,4.186475399386013,0.1202083271016642
26.593964,4.190073137176604,0.1201460940390202
26.598552,4.199678405223811,0.1199304853490964
26.603144,4.21259290018469,0.1196067274879455
26.607731999999995,4.224485775983776,0.119312253104453
26.612324,4.239810063410679,0.1188979900010322
26.616904,4.253169155779512,0.1184595101414195
26.621496,4.264563053090275,0.1179993706093416
26.62608,4.271948517019383,0.11757068355088
26.630672,4.277779481481486,0.1171461125911684
26.635264,4.277192220095908,0.1168354575828551
26.639852,4.275050459243325,0.1165332548391847
26.64444,4.26853371086665,0.1162921894782091
26.649036,4.266103439137148,0.1159498591927407
26.653624,4.264816971283586,0.1155729152829569
26.658228,4.270681837562578,0.1150224568340566
26.662808,4.2758916388222135,0.1144650432264264
26.667411999999995,4.280979255367703,0.1139230173643636
26.672,4.291419337150453,0.1132426019330475
26.6766,4.302514483952558,0.1125676180298413
26.681187999999995,4.324236517963664,0.1116866513254804
26.685796,4.348779040031858,0.110767600675892
26.690384,4.368335651005232,0.109961754912639
26.694984,4.3831507203120745,0.1092370921307456
26.699576,4.3992317782090025,0.1084703029344546
26.704172,4.413147413068197,0.1077642971897249
26.708752,4.428617547394397,0.1070594957831548
26.713344,4.444864931454098,0.1063596802753923
26.717936,4.460990130799654,0.1056701479991515
26.722532,4.483655740707036,0.1048867595862353
26.72712,4.514249934480475,0.103943132095454
26.731712,4.545254823844978,0.1030435434238057
26.7363,4.579857451000073,0.1021023227803697
26.7409,4.606898048431548,0.1012934743667347
26.745484,4.632550472558793,0.1005482343567009
26.75008,4.655793104220014,0.0998938239312787
26.754676,4.68059023534824,0.0992460983722932
26.759256,4.704243562600526,0.0986324663247957
26.763856,4.724832032367431,0.0980917904666969
26.768444,4.751305847676806,0.0974615319443984
26.773036,4.771894317443713,0.0969406353497179
26.777632,4.789540114439383,0.0964726119273426
26.78222,4.813071256977523,0.0959166476129704
26.786828,4.844941678972786,0.0952659690587788
26.791416,4.876567731539756,0.0946414390274984
26.796024,4.9098704682878775,0.0940101028759115
26.800612,4.943051020321853,0.0933943297671969
26.8052,4.977008822089331,0.092788802792986
26.809795999999995,5.016363230542695,0.0921439898410755
26.814388,5.050853912615384,0.0915803095507195
26.818984,5.086776909440931,0.0910464412640621
26.823571999999995,5.123188645123061,0.0904849268113149
26.828168,5.160621999966983,0.0899183800068928
26.832752,5.203574146210939,0.0893021919498935
26.837347999999995,5.248813900206774,0.0886461958653702
26.841936,5.29237697002146,0.0880013380338344
26.846536,5.3351627901026415,0.0873620224764212
26.851132,5.38113565238335,0.0866758044155641
26.855724,5.42620908021641,0.0860015310550081
26.860304,5.467562585544734,0.0853772452727827
26.864899999999995,5.513902001967879,0.0847003162228096
26.869504,5.5622846567146125,0.0840009647089851
26.874104,5.608746257851903,0.0833377433857337
26.878692,5.653531174808045,0.0826954543710546
26.883288,5.699582080354271,0.0820315183590662
26.887875999999995,5.750208201404254,0.0812972275517307
26.892464,5.803121930206116,0.0805321946226701
26.897048,5.85705727816977,0.0797668040847887
26.901644,5.906739823323476,0.0790235031068071
26.906236,5.960386660410212,0.0782481022560097
26.910832,6.006838021915764,0.0775165766046211
26.915427999999995,6.051368329811875,0.0768098173011622
26.920016,6.097042441583925,0.0760988789302085
26.924608,6.142061488336618,0.0753882491754117
26.929196,6.185037296765725,0.0747099369744592
26.933784,6.230955777966067,0.0740127548161358
26.93838,6.279161866918287,0.0732893975172285
26.942972,6.325569086975211,0.0725843009295998
26.94756,6.37491897980337,0.0718618692645672
26.952156,6.4242688726315285,0.0711462006473741
26.956744,6.464257866840774,0.0704909070918024
26.96134,6.50167074242122,0.0698436399926251
26.965932,6.540227421877604,0.0691889712701918
26.970536,6.577762482172195,0.0685534887305393
26.975124,6.612477054409698,0.067938484320594
26.97972,6.641061911676439,0.0673899654901406
26.984307999999995,6.6685029650672405,0.0668650605961335
26.988908,6.69349008454339,0.0663400522550418
26.993492,6.719254453753042,0.0658223904182933
26.998092,6.74232051961975,0.0653186735591325
27.002688,6.768329258257693,0.0647943056234414
27.007272,6.795481800771576,0.0642581169025699
27.011852,6.816993367171278,0.0637527031752046
27.016448,6.836828249389833,0.0632491807420989
27.021036,6.857151870464969,0.0627235873083712
27.025632,6.8729783193018665,0.0622107389054265
27.03022,6.882919422596294,0.0617365154839216
27.034808,6.891838906728927,0.0612723289536367
27.039396,6.898304456946909,0.0608040971508856
27.043992,6.905136561307329,0.0603195665231856
27.048584,6.919530695391368,0.0598035222253765
27.053176,6.937522567265999,0.0592846925769629
27.05776,6.950650712759952,0.058794135409657
27.062352,6.959403870729812,0.0583049359868393
27.066936,6.968401398127963,0.057803329393146
27.071524,6.976621675792612,0.0572956051695974
27.076115999999995,6.981366400380817,0.0567876329271952
27.08072,6.983945701931288,0.0563001682136459
27.085308,6.985869938462402,0.0558029222888474
27.089916,6.982275383593484,0.0553161472508394
27.0945,6.981501316781654,0.0548227597478724
27.099088,6.9776623924844445,0.0543503890839494
27.103684,6.974722902634883,0.0538756472652807
27.108276,6.969740174461734,0.0534140111314823
27.11288,6.961570404089059,0.0529788038889253
27.117468,6.954955133183389,0.0525534767869202
27.122072,6.953081403944248,0.052112290511503
27.126652,6.946588317752722,0.0516776601398
27.131252,6.935764385485732,0.051280214526656
27.135843999999995,6.920609607143276,0.0509207273742535
27.140444,6.897770614363054,0.0505881719119681
27.145032,6.869290645468654,0.0502693918408344
27.149619999999995,6.838889622964813,0.0499545051461484
27.154216,6.80824423103268,0.0496483835694002
27.158812,6.77698791552982,0.0493717318484746
27.1634,6.743688361703371,0.049105073434936
27.167996,6.709245004000984,0.0488479531560018
27.172584,6.672758407975011,0.0486013819123281
27.177176,6.633984204197158,0.0483781981041123
27.425164,2.829722565525705,0.0483367121509768
27.429752,2.74762966136146,0.0483280109730251
