Time,Force,Position
34.734075999999995,3.324494870778822,0.1409951946983619
34.73866399999999,3.337297420657294,0.140814026049543
34.74326,3.3471572977645305,0.1407365970527676
34.747848,3.358816043767063,0.1406115521820145
34.752436,3.3721514739507463,0.1404602267543952
34.757023999999994,3.3917829452679644,0.1401518618777858
34.76161999999999,3.414234904642271,0.1397583008883572
34.76621599999999,3.4453926976161378,0.1390893179296948
34.770807999999995,3.4774499250376514,0.1383901064682658
34.775403999999995,3.510040032764376,0.1377230848047777
34.77999199999999,3.541364151901016,0.1371231394696679
34.784588,3.571255956284797,0.1365362041667161
34.789176,3.5977943923062776,0.136018783069408
34.79376,3.625354447489552,0.135466371817217
34.798356,3.653158872101118,0.1348847000118483
34.80294,3.6817405464461856,0.134303782963
34.80754399999999,3.705580679124723,0.1338629420192734
34.81214,3.732363484574496,0.1333346179613269
34.816728,3.759801355043624,0.1328221129230199
34.821332,3.788627398816984,0.1322320488293025
34.825916,3.814999508675692,0.1316829199041695
34.830524,3.8396949343532487,0.1311799755029966
34.835108,3.867455217516186,0.1305792888956496
34.839704,3.896237119840917,0.1299549549981487
34.844292,3.9196224154797616,0.1294486598697696
34.848892,3.9368338546992168,0.1290717130757985
34.85347599999999,3.954411848061108,0.1286623583529235
34.858076,3.9635283772517327,0.1284649588082534
34.862668,3.976731383089531,0.1281474391155086
34.867264,3.987724824440968,0.1278332464751159
34.87184,4.00112805825843,0.1274206243648739
34.876436,4.013631857628242,0.1270283730127345
34.881024,4.026380026426348,0.1266114362864503
34.88562,4.038350945490951,0.1262012512510942
34.890196,4.0540417870602905,0.1257169844492276
34.894783999999994,4.068422498590919,0.1252209678354119
34.899372,4.088932925092306,0.1245553719239882
34.903972,4.108255406269127,0.1238737481487771
34.908556,4.125246138245441,0.1232067605755569
34.913135999999994,4.143625043525985,0.1224857125170547
34.917728,4.1615932532154645,0.1217324545004598
34.922315999999995,4.175963725114353,0.1210445545695969
34.92690399999999,4.188657512832091,0.120382237550415
34.931496,4.200818420244619,0.1197074454556006
34.936083999999994,4.215144750694878,0.1189605401262205
34.940692,4.232535938630519,0.1181334435640919
34.94528,4.247839746793943,0.1172999127676197
34.949872,4.2674744010328345,0.1163336144101603
34.954463999999994,4.282734067747632,0.1154413592643121
34.959056,4.299504092480804,0.1144797331976155
34.96365599999999,4.31034463022288,0.1135788648967629
34.968236,4.321796091535684,0.1126231074635283
34.97282799999999,4.328872565324394,0.1117164118514321
34.977416,4.3374593971314805,0.1107424281672731
34.982015999999994,4.33729625389038,0.1098796386119346
34.98660399999999,4.330714884801598,0.1091138497377206
34.991204,4.314772617093901,0.1085183686484007
34.99578399999999,4.292289938824378,0.1080371216260357
35.00037999999999,4.269396564963789,0.1075159746762219
35.004968,4.24176164943667,0.1070819883316278
35.009564,4.214903983643053,0.1066418750810234
35.014152,4.190333925601315,0.1061214630755671
35.018747999999995,4.16510880254022,0.1055850302152838
35.02333599999999,4.137962625869683,0.1050821519380746
35.027919999999995,4.1097948300373535,0.1046001488616997
35.03250799999999,4.0777849269861415,0.1041889283776016
35.037099999999995,4.039278754821731,0.1039642760556791
35.04168799999999,3.997585540457794,0.1038223454945507
35.060056,3.827357609189077,0.1037136901980802
35.06463599999999,3.794624837484729,0.1035733777550456
35.069219999999994,3.761403326923799,0.1034729371719236
35.073815999999994,3.73513292251576,0.1032968287026527
35.078404,3.720677350641288,0.102948584947049
35.082995999999994,3.7123956351862057,0.1025245123424076
35.087588,3.711842275617517,0.1020246418021734
35.092175999999995,3.71211030723096,0.1015984765612739
35.096771999999994,3.717286206673706,0.1011490771371131
35.101367999999994,3.7220955519740153,0.1007380145770555
35.10596,3.7268268540088063,0.1004164589328795
35.110552,3.733278981673376,0.1001596082722035
35.115151999999995,3.742062858538453,0.0999061973743021
35.11973999999999,3.757142776537065,0.099576599696576
35.12434,3.777252747079126,0.099215441977842
35.128932,3.8101991693165487,0.0986656264171124
35.133531999999995,3.8485421982398575,0.0980530928574029
35.138124,3.8883175419160274,0.0974554657666756
35.14272,3.931690623382788,0.0968136219094367
35.147312,3.983935864611881,0.0960875713649938
35.151908,4.039167920060837,0.0953843679785762
35.156507999999995,4.0899469447201815,0.0948364252143779
35.16109599999999,4.142402653560676,0.0942938328292902
35.165688,4.192570754649293,0.0938231567018874
35.170288,4.239018933233172,0.0934277717933228
35.174876,4.287021611284056,0.0930430034429886
35.17946,4.333103235725498,0.0926942929939809
35.184051999999994,4.382371902366467,0.0922787079215863
35.188644,4.430086069540431,0.0918673429047017
35.19324,4.481764528647425,0.0913986570620584
35.197832,4.530989053839765,0.0909308877024978
35.202428,4.579147818421684,0.0904205012529425
35.207016,4.628572571593688,0.0898831761303321
35.211616,4.677220075032189,0.0893680860619012
35.216196,4.723535829270184,0.088853679876083
35.220775999999994,4.767642019021818,0.0883465237738148
35.225387999999995,4.809172090144654,0.087863655120019
35.22997599999999,4.85209033457172,0.0873406942852075
35.23457199999999,4.892799014512426,0.0868075815249119
35.239163999999995,4.926923142442677,0.0862997422044478
35.24375199999999,4.959981509762507,0.0857559933292831
35.24834799999999,4.991851931757769,0.0851823484137763
35.252939999999995,5.02126841983838,0.0846171559209833
35.257532,5.054116319546809,0.0839824750197833
35.262116,5.083488666178791,0.0833679692078344
35.266715999999995,5.111917436914496,0.082711142027907
35.271296,5.141856565668578,0.0820093387517376
35.275896,5.170241194955656,0.0813118922633546
35.28048,5.197193509489876,0.0806025344990404
35.285072,5.216705979014621,0.0799594043126226
35.289655999999994,5.244147032405422,0.0792270582931404
35.294248,5.271465901082078,0.0785067312187709
35.298855999999994,5.2921221744827625,0.0778513187054447
35.303448,5.307259656483415,0.0772415432981175
35.30804,5.323540942360005,0.0766127646786428
35.312631999999994,5.332504567941267,0.0760357891193756
35.31722,5.339791509341379,0.0754614251665284
35.321808,5.3463012010079884,0.0748881437355411
35.3264,5.355753565445834,0.074289062502267
35.330996,5.364717191027097,0.0737256065575724
35.335584,5.373558631894213,0.0731744995357007
35.340176,5.384198941656625,0.0726184585044039
35.344772,5.394062001685536,0.0720592544100215
35.34936,5.40212619281915,0.0715142399298924
35.353959999999994,5.414565371476858,0.0709601290751348
35.358548,5.425494192116189,0.0704539492711185
35.363139999999994,5.437444631917314,0.0699430394312911
35.367732,5.451971190347237,0.0694362668143641
35.372319999999995,5.47291597462484,0.0689058722376987
35.376928,5.500523354178416,0.0683299847480826
35.381516,5.522245388189523,0.067814335643997
35.38612,5.546010660524216,0.0672814931660989
35.390708,5.576805082277318,0.0666831702484209
35.3953,5.609520557639861,0.0660717636970649
35.399896,5.6440349018977,0.0654638267418269
35.404484,5.685866906450867,0.0648305497114503
35.40908,5.728476160737537,0.0642045605005617
35.413667999999994,5.769164361414766,0.0635963382324261
35.418268,5.806787704606613,0.0630263388793484
35.422856,5.846698655550339,0.062427104116139
35.427448,5.888652844817652,0.0618177803238617
35.432036,5.929829784351464,0.061211051362864
35.43663599999999,5.974360092247574,0.0606167516378446
35.441227999999995,6.019545465163041,0.0600423225184559
35.445823999999995,6.0649752075068015,0.0594634015910921
35.450408,6.116534664821321,0.0588419235426843
35.455003999999995,6.165151449364607,0.0582487615666964
35.459591999999994,6.210292680831447,0.0576636021777984
35.464184,6.247871882574667,0.0571193460940599
35.468771999999994,6.2826305962607965,0.0565923824556842
35.47336,6.31841092910872,0.0560604844497228
35.477943999999994,6.352270208347202,0.0555430216697118
35.48253999999999,6.383841879833806,0.0550618577084046
35.487131999999995,6.4173346049298505,0.0545763205139401
35.491732,6.444164734749925,0.0541194729868607
35.496323999999994,6.46535388845582,0.0536851009504751
35.500912,6.490629518808889,0.0532258351095518
35.505503999999995,6.518725637219047,0.0527607520630891
35.51009199999999,6.544245637000407,0.0522910640939512
35.514688,6.563880291239299,0.0518526350808752
35.519279999999995,6.576730165488071,0.0514459317898118
35.52386799999999,6.58267307503258,0.0510741250463629
