Time,Force,Position
26.254691999999995,2.9169210862337462,0.167349091963734
26.259288,2.993920008009156,0.1672616681135634
26.26388,3.065878637609377,0.166989404606486
26.268476,3.1335742247679117,0.1665580230810627
26.273064,3.192509597246519,0.1661775045138598
26.277656,3.239497712845676,0.16599081051626
26.282243999999995,3.2807904712502864,0.1656605334452886
26.286832,3.31279013466976,0.165317781996782
26.291428,3.338850071466397,0.1648693164931605
26.296012,3.365510692202024,0.1640479262988769
26.3006,3.3850097391733565,0.1633111163717915
26.305176,3.39919022272432,0.1626784710993526
26.309767999999995,3.4173349982083128,0.1618648531879234
26.314356,3.4325812423696984,0.1612622221392273
26.318952,3.4448848137598485,0.160794268594129
26.32354,3.4597645037787967,0.1602548094302867
26.328119999999995,3.476076508550604,0.1597110772356183
26.332712,3.4950868166653537,0.1590799458641152
26.337304,3.5125426253131,0.1584875127981364
26.3419,3.528732445370762,0.1579785330443191
26.346496,3.544800080714277,0.1574912345509178
26.351084,3.565487073010177,0.1568585731737444
26.35568,3.583475761963134,0.1563116444757432
26.360275999999995,3.5986439628590023,0.1558700770122195
26.364876,3.613689979040725,0.1554488817942532
26.369456,3.6344991560507705,0.1548269565139159
26.374056,3.654164529184877,0.1542721383529751
26.37864,3.675506586500135,0.1536833401718038
26.383236,3.6997913165866265,0.1530082074831733
26.387832,3.723176612225472,0.152375922487799
26.392423999999995,3.748605146187903,0.1516746742371049
26.397016,3.772112626540892,0.1510351203472248
26.401608,3.795864476322173,0.1503752078783405
26.406208,3.82227048799777,0.1495662401760508
26.4108,3.849575934121014,0.1487394251483141
26.415388,3.873650196596104,0.147966512116912
26.41998,3.894371090708893,0.1472601806909559
26.42456,3.91660234284006,0.1464783671784897
26.429144,3.936135291628283,0.145764743038506
26.543959999999995,3.574041113321889,0.1455035716150985
26.548548,3.5699002555943475,0.1453284121606559
26.55314,3.5706672656961107,0.1450778687517186
26.557732,3.5763421436271785,0.14475251923002
26.562324,3.585658900797466,0.1444176886089086
26.566912,3.604991621606026,0.1438256740083285
26.5715,3.6316420027099134,0.1430532029008919
26.576084,3.6625451866237495,0.1422029619483069
26.580684,3.692715262252711,0.1414393103911116
26.585272,3.7312246173387935,0.1404677121893748
26.589863999999995,3.772065721625385,0.1394792890388135
26.594448,3.814583510093125,0.1384728669510865
26.599035999999995,3.8605768516373113,0.1374065977215361
26.603628,3.907347442915,0.1363496980533017
26.608215999999995,3.955916903087984,0.1352468520442312
26.612811999999995,3.9995004521661457,0.1343201427708499
26.617408,4.04386125097781,0.1334133823310239
26.621996,4.090920353132417,0.1324811949036077
26.6266,4.143620431401204,0.1314024668718139
26.631188,4.193622206327047,0.1304177565161503
26.635792,4.245911589004768,0.1293534053397799
26.640376,4.297057167806551,0.1283762469427204
26.644964,4.341784520760652,0.1275380068893114
26.64956,4.383158505352452,0.1267521897481643
26.654139999999995,4.422322925457893,0.1259764568878671
26.65874,4.456990173325094,0.1253004681671398
26.663328,4.488836933135206,0.1247068382400094
26.667928,4.516308705421224,0.1241831573322658
26.672512,4.546190270173266,0.1235743953669456
26.677112,4.570430858811129,0.1230966612977433
26.681696,4.594138567143782,0.1226060770383651
26.686292,4.617313395171226,0.1221040552844753
26.690884,4.640077527607603,0.1215835407800777
26.695476,4.659243922253388,0.1211210724716655
26.700064,4.679021240469901,0.1206081881127836
26.70466,4.7000645472765,0.1200467734144958
26.709248,4.715589062683066,0.1195829328670298
26.713836,4.725839156117891,0.1191989632843783
26.718423999999995,4.734001869780501,0.1188067913230218
26.723024,4.737911780633162,0.1184612391211866
26.727612,4.743087680075909,0.1180756656808186
26.732204,4.743477896403497,0.1177178280724491
26.736795999999995,4.749098393254197,0.117231714146835
26.741388,4.757128682570922,0.1166691276970214
26.745988,4.769489817963112,0.1160020097403391
26.750568,4.7834834960878245,0.1152646513933047
26.75516,4.796167044173823,0.1145166101614587
26.759751999999995,4.810483134992344,0.1136922264247255
26.76434,4.823122541629716,0.1128885754821404
26.768948,4.833796753209018,0.1120561303825531
26.773536,4.844959703644903,0.1111900142366615
26.778148,4.851747666556695,0.1103687377816213
26.78274,4.854693522249602,0.1096152529607504
26.787344,4.860171355122678,0.1087766616736448
26.791927999999995,4.864627568833962,0.107963256284245
26.796516,4.870471955849476,0.1071026666051864
26.80112,4.878726135331016,0.1061642834247348
26.8057,4.883749131164399,0.1052306508417303
26.810292,4.889549376731286,0.1043013079973322
26.81488,4.899191729517055,0.103307848005851
26.819479999999995,4.9070352134075295,0.1023478216637124
26.824068,4.919498054250388,0.1013336150927252
26.828664,4.931061460645599,0.1003405661506328
26.833248,4.940215074574785,0.0994191922756283
26.83784,4.94156228935206,0.0986257146657608
26.84242,4.941887884967542,0.097854962476899
26.847016,4.940048057545291,0.0971299506827551
26.851604,4.9424610329329886,0.0963854340572994
26.8562,4.946017812196626,0.0956169736502076
26.860788,4.953705209556063,0.0948356219448299
26.865372,4.962047671934859,0.0940727500147846
26.869959999999995,4.976563990733042,0.0932634415124886
26.874555999999995,4.991080309531227,0.092449272300427
26.879148,5.006129508634622,0.0916611986023779
26.883735999999995,5.022444696328102,0.0908432043418131
26.888328,5.037493895431497,0.0900667588994516
26.892907999999995,5.054997028449544,0.0892917651964088
26.8975,5.082393940391718,0.0884435644530203
26.902092,5.111589721229188,0.0875941425555014
26.906676,5.142217816819516,0.0867703257440788
26.911287999999995,5.172601542981552,0.0859736828832646
26.915876,5.194934500563387,0.085292205476174
26.920484,5.219721392059874,0.0846207724171928
26.925076,5.248350390775243,0.0839120307050225
26.92968,5.28429704978594,0.0831481858974811
26.934272,5.319754969940055,0.0824238692662927
26.938859999999995,5.358932812598907,0.0816703909103386
26.943456,5.396189601648317,0.0809528785359265
26.948052,5.433734901574646,0.080282309988102
26.952644,5.470258582339183,0.0796338185031225
26.957224,5.507437328123077,0.079008003830526
26.961824,5.543594454745176,0.0784058632762955
26.966411999999995,5.583593688586159,0.0777709797889009
26.971012,5.62334855299885,0.0771581684985628
26.975604,5.662736863269105,0.0765788264027804
26.9802,5.705356357187513,0.0760119118968912
26.984784,5.74605479749648,0.0754683867820041
26.98938,5.779069023367683,0.0750010269916376
26.993984,5.807219522858209,0.0745827928702125
26.99858,5.83267171900579,0.0741817011759667
27.003184,5.856857926563287,0.0738103014412508
27.007776,5.893592074939225,0.0733357014777566
27.012363999999994,5.925829051076924,0.0728874988345186
27.01696,5.954346104709886,0.0724668707142767
27.021548,5.977222182228671,0.0720877120397052
27.026136,6.004961986128131,0.0716729895280797
27.030724,6.03078073641815,0.07127671744074
27.035319999999995,6.051980129755783,0.0709068897833437
27.039912,6.070725589178765,0.0705345641473657
27.044504,6.088693798868244,0.070160399217952
27.049095999999995,6.104208074643072,0.0697850803976988
27.053688,6.117268416503247,0.0694068977298069
27.05828,6.133149246420511,0.069018782151703
27.062868,6.149518815194359,0.0686047010686021
27.06746,6.1656440145399145,0.0682074229918873
27.072052,6.178005149932104,0.0677849460711043
27.07664,6.19048847003844,0.0673564827275853
27.081228,6.209756570134894,0.066884456868202
27.085816,6.230168474107287,0.0663945484063212
27.090416,6.249803128346177,0.0659010177781126
27.095012,6.268005467832209,0.0653907558362402
27.099604,6.274803670375738,0.0649506999862153
27.104196,6.280580253757474,0.0645189446969381
27.108775999999995,6.286601206567501,0.0640727018776542
27.113376,6.299529124081792,0.0635785005456255
27.117956,6.305916631034257,0.0631173622401127
27.122564,6.314469561024453,0.0626337212862087
27.127156,6.3277640326811815,0.0621263042957153
27.131744,6.341180689052055,0.061612150166298
27.136324,6.359338887089459,0.0610805153376961
27.14092,6.374432227641482,0.0605741810169354
27.145516,6.391202252374656,0.0600728832780064
27.150112,6.401309681831857,0.0596081758818857
27.154704,6.410273307413119,0.0591608499653178
27.159296,6.417804618241522,0.0586973452486729
27.163879999999995,6.425624439946845,0.0582665039093343
27.168468,6.436264749709258,0.0578276744909031
27.173056,6.44216351780514,0.05741343977073
27.177644,6.450882773958111,0.0569903652552154
27.18224,6.461523083720524,0.0565594770539911
27.186827999999995,6.474983881540024,0.0561192804381635
27.191424,6.493186221026056,0.055659245192028
27.196012,6.517029536626266,0.0551825664410922
27.200603999999995,6.5424273516934806,0.0547188983085724
27.205192,6.561040386770577,0.0542925420917274
27.209776,6.580675041009467,0.0538582643990578
27.214388,6.597122653048831,0.0534547212226344
27.218964,6.610505407602816,0.0530746733902754
27.223552,6.623521608014364,0.0527139754210723
27.228144,6.629630843721645,0.0523926649138403
27.232731999999995,6.6375389483242255,0.0520684799352131
27.237328,6.642626564869717,0.0517528527751104
27.241903999999995,6.649513050310501,0.0514356100659069
27.246504,6.658076219932439,0.0511252272796068
27.251092,6.666272835411936,0.0508340099353423
27.255696,6.673814385872078,0.0505305134472329
27.260283999999995,6.67661439466569,0.0502430886658275
27.264884,6.6744284923644805,0.0499816059995865
27.269468,6.667378863682593,0.0497409570525423
27.274064,6.656120573639387,0.0495331327403413
27.278655999999994,6.639754187787214,0.0493580799995114
