Time,Force,Position
28.0592,4.9560765108763,0.1460035582772232
28.063788,5.004819353922125,0.1459631094504483
28.06838,5.047255916202675,0.1458503519754626
28.07296,5.080199155518424,0.1457833767921714
28.077548,5.103771256583522,0.1457392365211513
28.08214,5.123202499921075,0.1455687285999695
28.086736,5.136205277779212,0.1453502972564481
28.091328,5.136894244615458,0.1452303052788135
28.095908,5.135774102924669,0.1449686650239299
28.100508,5.127580670366844,0.1448309480188988
28.105096,5.118898498952432,0.1447336927476974
28.1097,5.11332532647203,0.1446111707323202
28.114291999999995,5.106896860992608,0.144559511260376
28.118884,5.101411971409463,0.1445463518431157
28.12348,5.103777622426856,0.1444086761733449
28.128072,5.116281421796668,0.144073450113377
28.13266,5.139334065109964,0.1435622478509613
28.137256,5.166517326519063,0.1430012009263581
28.141852,5.195010717966873,0.1424518954319701
28.146448,5.225224935044465,0.1419404804003513
28.151036,5.257159977751833,0.1414682825585021
28.155619999999995,5.29003859635548,0.1410419312295108
28.160208,5.327292202483218,0.1405560663981821
28.164808,5.366755373097319,0.1400696745209919
28.169395999999995,5.413824714883665,0.1394923385658318
28.173996,5.458117710061551,0.1390328619572163
28.178588,5.504742454439943,0.1385666903912548
28.183176,5.554720567180635,0.1380571045080807
28.18776,5.604087756350597,0.1376102842988686
28.19234,5.659262247797513,0.1370963645797785
28.196928,5.715746869283144,0.1365959030158484
28.20152,5.7717427519121935,0.1361373647778603
28.206112,5.827249895684657,0.1357141998814935
28.2107,5.885577527514212,0.135246658178471
28.215291999999994,5.940185236839031,0.1348534653370053
28.219884,5.993116261982697,0.1344958556053052
28.224476,6.045636591535299,0.1341331330149513
28.229072,6.098401290516191,0.133761307969077
28.233676,6.1552524661442565,0.1333180687431766
28.238256,6.209894077285961,0.1328800855409956
28.242856,6.262981188960663,0.1324535294274791
28.247432,6.312714932273064,0.1320596766653901
28.252036,6.359217491937311,0.1316992014170083
28.256624,6.403632671829341,0.1313381321368482
28.261223999999995,6.441463299710918,0.1310364724682731
28.265816,6.479494155572159,0.1306757911159302
28.270412,6.513516578051744,0.1303441734377506
28.275008,6.546228870492615,0.1300044125321461
28.2796,6.575177098980122,0.1296766883298472
28.284199999999995,6.601627252104349,0.129325647105547
28.2888,6.624435525989354,0.128975708010393
28.293392,6.648465647015817,0.1285506523418225
28.297992,6.67191874628844,0.128068590744437
28.302579999999995,6.690586162445904,0.1276165663765067
28.307175999999995,6.706388949097651,0.1271601001674007
28.311764,6.716384433472445,0.1267509131501811
28.316352,6.717385573370761,0.1264514061939506
28.320944,6.717320952658655,0.1261286483097589
28.325536,6.710183041079512,0.1258845345302112
28.330131999999995,6.702634433909304,0.1256196205143064
28.334712,6.695041685290468,0.1253112054701671
28.339308,6.689858729137657,0.1249434079236961
28.343896,6.681855284927756,0.1246140642798635
28.348484,6.671642276231491,0.1242844007961131
28.353092,6.6646163097347575,0.1238933011118008
28.35768,6.654647670466784,0.1235476150042621
28.362276,6.646477900094108,0.1231814522437961
28.366868,6.636875814968573,0.1228116749417514
28.371464,6.628950414024187,0.122429200295714
28.37606,6.623845501136893,0.1220104951059196
28.380648,6.626957682992575,0.1214997513297524
28.385244,6.627537887668085,0.1210551684379347
28.389824,6.632248710439399,0.120588214040444
28.394428,6.642889020201811,0.1200811016079941
28.399016,6.660113881974678,0.1195392172470789
28.403607999999995,6.681224992415055,0.1189878979797122
28.408192,6.711208262617766,0.1183519032663219
28.412792,6.740214055107312,0.1177787599693607
28.417392,6.772451031245011,0.1171923259103284
28.421987999999995,6.808696440764367,0.1165952530040169
28.426583999999995,6.848705914237088,0.1160062977475924
28.43118,6.891946571357962,0.1154141436086616
28.435768,6.941483269612372,0.1147666282739723
28.440364,6.99556128155365,0.1141221166354806
28.444952,7.05070505410535,0.1135143077769165
28.449548,7.113577182543444,0.1128603769276067
28.454128,7.1780038104485415,0.1122114680174867
28.458711999999995,7.251058228687681,0.1115151752206383
28.463292,7.325544961679679,0.1108308660708133
28.467883999999994,7.396355913615567,0.1102314329345515
28.472476,7.46115933529484,0.1097257882504413
28.477056,7.5305821139265,0.10918254596914
28.481656,7.59796165423457,0.1086769159782718
28.486235999999995,7.662642891199699,0.1082033023301341
28.490828,7.7240929445166735,0.1077466022290955
28.495424,7.788607855319026,0.1072577586359125
28.500004,7.852834255244461,0.1067573954264515
28.504612,7.918082274331689,0.1062454860975509
28.509204,7.98435191258071,0.1057268777630053
28.513792,8.049067051362726,0.1052172598071611
28.518388,8.111206071515946,0.1047294419071326
28.52298,8.167826300269132,0.1042912374194775
28.527572,8.22109316066002,0.1038737948212772
28.532152,8.274071510173988,0.1034391226437655
28.536752,8.322019807144503,0.1030257822919705
28.541332,8.360318694619185,0.1026702571169842
28.545936,8.395386398445712,0.1023235070932789
28.550524,8.41953870418632,0.1020572134776268
28.555124,8.44160363015471,0.1017813877254919
28.559708,8.466444902731565,0.1014484324960751
28.564304,8.489198795536204,0.1011040074719176
28.568896,8.504879397473806,0.1008019383806988
28.573484,8.518228250210898,0.1005006658763979
28.578071999999995,8.531044222642784,0.1001896972807738
28.582664,8.544104564502959,0.0998688686809415
28.587252,8.552912103553185,0.0995672160032054
28.591847999999995,8.553791058737357,0.0993440981879103
28.596436,8.553848622739396,0.0990871753457821
28.601032,8.54875394948384,0.0988514581254971
28.605623999999995,8.544025830370721,0.0985997286007016
28.610219999999995,8.537088146771241,0.0983415807022804
28.614804,8.533459690085433,0.0980400189429175
28.619392,8.528032364504332,0.0977489100948209
28.623992,8.519251670560926,0.0974676472358998
28.62858,8.514313083836406,0.0971549680941047
28.633172,8.5153820273685,0.0967838240331669
28.637768,8.520415262833623,0.0963775933084548
28.642356,8.533499266878948,0.0958940160300035
28.646964,8.548259955105426,0.0954084219233891
28.651556,8.561876839455962,0.0949415762686567
28.656144,8.577170407987648,0.0944706257730599
28.660736,8.598227137347658,0.0939561333616716
28.665323999999995,8.621204920317108,0.0934282603039405
28.669932,8.644182703286564,0.0929034538874694
28.674523999999995,8.664095628770635,0.0924090946600625
28.679127999999995,8.684907988702353,0.0919123573693963
28.683708,8.710950629157185,0.0913593745219726
28.688308,8.737403965203084,0.0908265905067995
28.692888,8.76835447348722,0.0902723146477631
28.697488,8.798283362609562,0.0897323384789222
28.702075999999995,8.828867316751264,0.0892001121388693
28.706664,8.8623939436642,0.0886525948660229
28.711248,8.897841624186572,0.0880933958760585
28.715836,8.933944369728302,0.0875422186918109
28.720424,8.968370431088887,0.0869979362703877
28.725024,9.001408319145238,0.0864828690469487
28.729616,9.034079653059148,0.0859896469985041
28.734208,9.064463379221186,0.0855307769672783
28.7388,9.094314225078012,0.0850641153974132
28.743383999999995,9.124287255648984,0.0845951322989782
28.747972,9.154260286219955,0.084127524334968
28.752564,9.180391209572042,0.0836871808693894
28.757159999999995,9.206522132924134,0.0832495119514905
28.761752,9.229832568219132,0.0828281090619113
28.766348,9.258251099323097,0.0823663755782957
28.770935999999995,9.28564801126527,0.0819150697926121
28.775528,9.314965976816882,0.0814566409337373
28.78012,9.344528311796786,0.0809911509758019
28.784704,9.372536147309688,0.0805250185603276
28.7893,9.400421798108445,0.0800663242584801
28.793888,9.429451252783135,0.0795969485843723
28.7985,9.445810581925244,0.0792061667837952
28.803092,9.463069345515,0.0788147514382471
28.807696,9.48134972826655,0.0784169354191143
28.812288,9.505026717703984,0.0780058897135376
28.816887999999995,9.52817082683621,0.0775849697803157
28.821483999999995,9.548616632625492,0.077174852354872
28.826076,9.56468745089068,0.0767744189597045
28.830672,9.577571226956342,0.0764018355103243
28.835252,9.593397675793238,0.0760148859997525
28.839852,9.61126736295372,0.0756151345288536
28.844444,9.63400077649488,0.0751910653288375
28.849035999999995,9.65865524364548,0.0747606224321043
28.853628,9.688051252462612,0.0743104387853208
28.858224,9.716547826832098,0.0738674142925601
28.86282,9.74810925868696,0.0734067653471141
28.867412,9.778649071380034,0.0729576225083638
28.871991999999995,9.809966133806608,0.0725139783809165
28.876584,9.845902553185566,0.0720596114558043
28.881188,9.88196115727867,0.0716032541913971
28.88578,9.918797011105276,0.0711526847517161
28.890363999999995,9.970101859359769,0.0706365577925576
28.89496,10.019730023433109,0.0701237504575757
28.899543999999995,10.071401425830034,0.0696032044473013
28.904128,10.117676221541071,0.0691002201147754
28.90872,10.1685703742045,0.0685891897902314
28.913308,10.22265156906745,0.0680598612997767
28.9179,10.283928239511583,0.0675199100001764
28.922488,10.349413571317038,0.0669543898204533
28.92708,10.40823630784652,0.0664172209037795
28.931668,10.468857913271297,0.065883191274194
28.93626,10.522816923420102,0.0653763365615944
28.940852,10.57215657661652,0.0648844355204254
28.945444,10.619697360917646,0.0644000376499368
28.950036,10.665194906895186,0.0639303071172413
28.954628,10.706073095920338,0.0634747657138524
28.959228,10.745929665783695,0.0630279600682831
28.963828,10.78897327784658,0.0625662887468346
28.96842,10.82739753295708,0.0621194951378478
28.973012,10.86528890776237,0.0616642866437715
28.9776,10.901503598386512,0.0612099500278765
28.982204,10.93015625928703,0.06078107997663
28.986792,10.96162940824464,0.0603478601539812
28.991392,10.99310255720225,0.0599189086670511
28.99598,11.02085578365512,0.0594978164777572
29.00058,11.04231296897446,0.05908618283673
29.005172,11.059028612627264,0.0586887166500899
29.009768,11.067771530965386,0.0582963397643455
29.01436,11.074593395694066,0.0579111062840607
29.018951999999995,11.084602302622272,0.0575076241284708
29.02356,11.092401645064118,0.05709362378143
29.028156,11.104287464153138,0.0566613693712003
29.032752,11.120137575175184,0.0562158218586602
29.037348,11.136232055625523,0.0557645636445297
29.041936,11.152570905504156,0.0553066768814797
29.046536,11.16788813622099,0.0548522786233975
29.051124,11.178830379413736,0.0543965726235771
29.055712,11.177224681788038,0.0539741963801377
29.060299999999994,11.172798496105251,0.0535564680901161
29.0649,11.164408018489436,0.0531510914267812
29.069488,11.153319237530676,0.0527461468986332
29.07408,11.140675957104913,0.0523330145330434
29.078672,11.118549593346088,0.0519376431287089
29.083264,11.087062330968344,0.0515556159892006
29.087856,11.055575068590604,0.0511705819919214
29.092436,11.023965621498714,0.0507874355436741
29.097028,10.989169132207303,0.0504181003787259
29.101636,10.951307785430512,0.0500573808889211
29.106224,10.907438908397104,0.049715258822724
29.110816,10.856418697231142,0.0493994596272121
29.115412,10.797103348056684,0.0491178985747882
29.120004,10.731658283911468,0.0488586747727747
29.1246,10.657385201452543,0.0486216610507767
29.129188,10.57416191596577,0.0484104569294353
29.13378,10.485053284936528,0.0482123524719183
29.138359999999995,10.392879796421903,0.0480234669345191
29.14296,10.297274896279465,0.0478562236938939
