Time,Force,Position
28.279336,2.521660876144737,0.1834713227984913
28.283928,2.674080558043401,0.183442391136219
28.288512,2.826323674147553,0.1826471374227587
28.293104,2.975858247277022,0.1817617086332925
28.297684,3.120763223822368,0.1808485722553428
28.302268,3.2656579607359757,0.1796001711535348
28.306856,3.4066562093503325,0.1780347794212396
28.311444,3.540038047160703,0.1765097757621774
28.31604,3.665270593861876,0.175088912634741
28.320628,3.7827204035962887,0.1736051453600452
28.325216,3.889689173020997,0.1722692810144966
28.329812,3.992350758555391,0.1708388972753294
28.334404,4.081144033600891,0.1698242683999559
28.339,4.162609408719324,0.1688531402271214
28.34358,4.242387860024869,0.1677264677977915
28.34818,4.318147638317019,0.16649536258854
28.352772,4.384247767481595,0.1652976762609294
28.357372,4.44428598530919,0.1640942970539004
28.36196,4.492298902991814,0.1631369457903166
28.36656,4.541900221958333,0.1620070188516696
28.371144,4.582995935304954,0.1610957649904901
28.375736,4.62339244218359,0.1601238374585795
28.380316,4.660147069823008,0.1592039904099122
28.384908,4.691705318756202,0.1583543920904491
28.389512,4.718189373697317,0.1575448392393407
28.394108,4.740376484379857,0.1567774787832818
28.398684,4.75969896555668,0.156023757996093
28.403272,4.778444424979663,0.1551995714206061
28.407852,4.792404201287488,0.1544441287650144
28.412456,4.805053847556597,0.1536853179724159
28.41704,4.81345069101576,0.1530068184573522
28.421632,4.815140797750321,0.1524526760938455
28.426224,4.813066840531517,0.1519290166166018
28.430812,4.810460003007503,0.1513917523837927
28.435404,4.802334374083457,0.1509870736928304
28.439996,4.787668334597582,0.1507432856395804
28.444584,4.778887640654176,0.1503340709366585
28.449176,4.767164273939535,0.1500065849290789
28.453764,4.760060264177281,0.1495701738743001
28.458356,4.751690265824941,0.1491874749334896
28.46294,4.745896386101399,0.1487578905568058
28.467528,4.740635386683068,0.1483437571687485
28.472124,4.733497475103924,0.1480388411391368
28.476704,4.723949771058756,0.1478281753070636
28.481304,4.717633250661741,0.1475749031751512
28.485892,4.709928556960497,0.1473855337423421
28.490492,4.70815335025035,0.1471001235643479
28.495076,4.711286011369507,0.1467544301928003
28.499676,4.719981605337327,0.146351139088418
28.504268,4.734484501582099,0.1458758016655766
28.50886,4.753650896227884,0.1453609803421219
28.513452,4.778380223722331,0.1447974426089132
28.518044,4.806629245741851,0.1442320617430223
28.522648,4.836965647533586,0.1436758261336179
28.52724,4.870533232973474,0.143082459979777
28.531832,4.909908120690316,0.1424071072711974
28.536424,4.948305530693993,0.1418325062824775
28.541012,4.987358005717026,0.141264635541645
28.5456,5.025921741883478,0.1407481968667733
28.550188,5.066039977516932,0.1402221628661152
28.554784,5.103992790112654,0.1397599283964355
28.559376,5.141456863851794,0.1393419455084145
28.563968,5.18071980648623,0.1388854750440245
28.568564,5.226156605540054,0.1383269717084961
28.573152,5.272004100184945,0.1378037088657228
28.577744,5.320305528744488,0.1372573560360054
28.582324,5.367707522856383,0.1367483625094365
28.586916,5.407058748388077,0.1364400395087169
28.591512,5.441912801681532,0.1362103429887749
28.5961,5.4701042596990135,0.1361209953667712
28.600688,5.499806075734872,0.1359740789372697
28.605272,5.526687403713643,0.1358858397414471
28.60986,5.5559785241584345,0.1357250482441021
28.614456,5.58269352597443,0.1355987727631511
28.619044,5.612351200561661,0.1354171830818913
28.623644,5.644296482900769,0.1351784333615731
28.628224,5.673010581591722,0.1349659464631182
28.632824,5.705566787501559,0.134687801822698
28.637408,5.740166231734984,0.1343711817689466
28.642008,5.774477165091488,0.1340271384476768
28.646604,5.812385836238583,0.1336311152885978
28.651196,5.855402603194647,0.1331360732838694
28.655776,5.9035274659596775,0.1325450298515856
28.660372,5.949442764238347,0.1319695973023068
28.66496,5.996868420535394,0.1313508902147772
28.669556,6.042861762079579,0.1307372788421867
28.674144,6.085257365833174,0.1301781843450274
28.678728,6.131206565928731,0.1295203762612126
28.683316,6.182141677119112,0.1287750349229543
28.687916,6.234587146327868,0.1279725322693107
28.692504,6.280247835546506,0.1272892371471003
28.697096,6.321655721955197,0.1266452197420575
28.701692,6.360365305020943,0.1260462045619536
28.706272,6.404060799181512,0.1253657584995552
28.710864,6.443381305817988,0.1247432192955177
28.715452,6.48000350911152,0.1241660264588625
28.72004,6.522755427375815,0.1234834064395741
28.724636,6.559211304506572,0.1228824623406844
28.729216,6.593457617150969,0.1222909187984526
28.733812,6.629258429262371,0.12170184726394
28.738404,6.66374911133506,0.1211076261320469
28.742996,6.691044317826565,0.1206013710103021
28.747588,6.713964536793977,0.120146108913159
28.752168,6.737906374923183,0.119680113903481
28.756764,6.7564516063665,0.1192743777629741
28.761348,6.776018456971613,0.1188550400801148
28.765944,6.797628545900312,0.118404474355877
28.770532,6.820138069276659,0.1179486298455796
28.775132,6.838150420414767,0.1175421031693359
28.779728,6.858861074895818,0.1171120725119729
28.784324,6.886723063509423,0.1165704607178588
28.788916,6.920470397665499,0.1159479363412724
28.793512,6.954584285964012,0.1153084757289554
28.798104,6.984201002024284,0.1147211588762634
28.8027,7.014062087512849,0.1141211529873886
28.80728,7.041469239086763,0.1135351637967618
28.811868,7.065034283441793,0.1130058093174759
28.816456,7.093585238891646,0.1124102651121247
28.821044,7.119970771303764,0.1118539855238284
28.825628,7.142880750639437,0.1113260726863081
28.83022,7.168200522441135,0.1107542503488216
28.834812,7.194297543976335,0.1101794675133657
28.839404,7.224481042158708,0.1095558076971532
28.844,7.250045183388696,0.1089803236867465
28.848588,7.27855199738992,0.1083693779286883
28.85318,7.3056264966382845,0.1077577572074261
28.857776,7.3320459308672925,0.1071452385913004
28.862368,7.357810300076945,0.1065316961019751
28.86696,7.386639526771976,0.1058798411033928
28.871552,7.413914254000004,0.1052353675166737
28.87614,7.437469058723296,0.1046324446125819
28.880728,7.45922499455129,0.1040492717540963
28.885316,7.478937692055699,0.103494255278683
28.889912,7.494686097627079,0.1029832184177368
28.8945,7.513254991255547,0.1024496081677456
28.8991,7.531823884884016,0.1019158769263226
28.903684,7.547572290455395,0.1014088177940269
28.908284,7.558212600217805,0.1009685307782977
28.912872,7.573961005789186,0.100467054442513
28.917472,7.592652084131799,0.0999357406851457
28.922052,7.607134501113093,0.0994650330757609
28.926648,7.625581210027415,0.0989529636098533
28.931228,7.6380203886851215,0.0985136533004068
28.935824,7.653157870685773,0.0980564200877723
28.940412,7.666129929648689,0.0976309635821293
28.945,7.681433737812113,0.0972096998514369
28.949588,7.695593742099597,0.0968084491701617
28.954172,7.709509376958791,0.0964218164020228
28.958764,7.724080076837341,0.0960460048544143
28.963356,7.739428026449393,0.0956736312160847
28.967952,7.757107725261951,0.0953057233186893
28.972544,7.773521435484424,0.0949628753957923
28.977136,7.793532883497489,0.0946004971784403
28.98172,7.824049034005409,0.0941529709198947
28.986312,7.849579273418505,0.0937574208251119
28.9909,7.879484500355697,0.0933452348157491
28.995488,7.914664149264629,0.0929105418166948
29.00008,7.956506393449534,0.0924257526910147
29.004668,7.991852368521242,0.0920269582779559
29.009272,8.02491073584107,0.0916641811212893
29.013864,8.064265144294433,0.0912715078841796
29.018464,8.10157631442421,0.0909047127505784
29.02306,8.137377126535615,0.0905696365212866
29.02766,8.175098992256457,0.0902231327701563
29.032264,8.217440214929685,0.0898501347338837
29.036844,8.260025807031203,0.0894716840111424
29.041452,8.30351083358037,0.0890907172314338
29.046032,8.346995860129537,0.0887124708260857
29.050624,8.386638779459823,0.0883660856470192
29.055204,8.427181133237754,0.088020140775552
29.059804,8.46514736838689,0.0876842838720103
29.0644,8.50630064573555,0.0873168894670281
29.068992,8.545777238903058,0.0869563467708948
29.073588,8.579612855956391,0.0866380812789739
29.078184,8.620355437713988,0.0862674014318373
29.082776,8.657744651109285,0.0859058382600953
29.087372,8.693046484732367,0.0855337633077907
29.091952,8.722052277221911,0.085191428926773
29.09654,8.75599983935765,0.0847767247171422
29.101132,8.795299866730646,0.0843113072430095
29.105716,8.831613079883782,0.0838418659437887
29.110308,8.870213900788794,0.0833493573860292
29.114904,8.911835437730561,0.0827977832246276
29.119496,8.950103606310027,0.0822536409652662
29.124076,8.984363341507835,0.0817102597618647
29.128672,9.01220485085796,0.0811965797460516
29.133252,9.041434533512325,0.0806628962842476
29.137844,9.070009151147325,0.0801243286211777
29.142432,9.099971942086558,0.079562979559261
29.147012,9.126947918805929,0.0789928649311767
29.15162,9.153391015220086,0.0784116182144415
29.156208,9.177135808291302,0.0778436812044832
29.1608,9.199326101895512,0.0772733301548821
29.165396,9.21996189603272,0.0767004282426567
29.169988,9.234301649036391,0.0761512887287306
29.174584,9.247864152306557,0.0756007721993142
29.179172,9.259261232538996,0.0750719438096426
29.183772,9.273723170256808,0.0745207697796509
29.188352,9.283732077185018,0.0740161523746056
29.192952,9.28491296579952,0.0735660353110341
29.19754,9.27996413944326,0.0731604868592496
29.202144,9.270151586706325,0.0727828549329534
29.206728,9.26279296788404,0.0724086208648707
29.211324,9.259032086852349,0.0720256372251898
29.215912,9.256703520573511,0.0716527343308737
29.220508,9.261570429875864,0.071261518288279
29.2251,9.26427191614048,0.0708907062112947
29.229696,9.268772271300392,0.0705166854848596
29.234284,9.276093114517396,0.0701333461609132
29.238876,9.282314295307089,0.0697926435150176
29.243468,9.293032648335014,0.0694433716717571
29.248052,9.304283881668155,0.0691072629455381
29.25264,9.320032287239531,0.0687632953670072
29.257236,9.338234626725566,0.0684242031202492
29.26182,9.359668149859752,0.0680924229705789
29.266408,9.387275529413326,0.0677554186152032
29.271008,9.417703397023992,0.06740993839889
29.275596,9.450585198549309,0.0670721569574125
29.280187999999995,9.49037396477889,0.0667019710722341
29.284776,9.54078961821747,0.0662890071415673
29.289364,9.600566170274966,0.0658480616767827
29.293976,9.66291884096126,0.0654078477930945
29.298564,9.725149326933412,0.0649782919959174
29.303156,9.785336574581974,0.0645654939989237
29.307748,9.849365929449418,0.064143166778669
29.31234,9.910941350402208,0.0637214559943789
29.316944,9.976358878573883,0.0632897441884955
29.321532,10.041898591459702,0.0628586138123016
29.326136,10.106050131041291,0.062451216932608
29.330724,10.17669793973608,0.0620012221041758
29.335324,10.245546879535574,0.0615601358491305
29.339912,10.317705046248738,0.0610995501347504
29.344512,10.388963778514254,0.060646993926289
29.3491,10.462510118531648,0.0601816966500729
29.353692,10.53781118599571,0.0596924081635279
29.358276,10.605139528145092,0.0592127492229911
29.362872,10.670791186113318,0.0587347308552925
29.367464,10.733211660433392,0.0582533820601294
29.37206,10.789458278334074,0.0577792453393672
29.376656,10.836588367044133,0.0573224796361001
29.381256,10.876112284581945,0.0568604488162706
29.385848,10.915225506528689,0.0563851460657582
29.39044,10.9480426873419,0.0559158808529757
29.395032,10.978528118954603,0.0554377918712821
29.399616,11.000141390804975,0.0549637640319188
29.404204,11.020200163188344,0.0544845544076528
29.4088,11.030365156647589,0.0540113362119162
29.413392,11.033212489811502,0.0535453584646317
29.417984,11.029885966556025,0.0530779545610627
29.422576,11.013112068034458,0.0526435585869733
29.427168,10.988121074769914,0.0522150042925086
29.431764,10.950826510115224,0.0518092860510694
29.436352,10.900573309051024,0.0514173404851394
29.44094,10.838016536596673,0.051046877615103
29.445536,10.762789638609735,0.0507085355029192
29.450124,10.682821198956267,0.0503746423158288
29.454716,10.598233402350417,0.0500421541985168
29.459308,10.501874914659622,0.049740303423376
29.4639,10.398365092836274,0.0494638611046627
29.468496,10.287826121594517,0.0492086843389504
29.473084,10.169891446791915,0.0489873175729133
29.477676,10.04529417671334,0.0487740676116601
