Time,Force,Position
27.879732,2.9353097742276435,0.1650593793983278
27.884324,3.149810912277488,0.1635961911665687
27.888919999999995,3.360049007885645,0.1620571196506484
27.893528,3.5585842160426417,0.1607737860282525
27.898124,3.74897013309044,0.1595371115704879
27.902712,3.925321413486571,0.1586605521215813
27.907308,4.094589163383928,0.1578055814649178
27.911895999999995,4.257672817230156,0.1569135119979437
27.91648,4.416004689778116,0.1559681906963135
27.921068,4.564676913198502,0.155100286047065
27.925668,4.697227120195007,0.1544319917523469
27.930247999999995,4.818763406576596,0.153750695592496
27.934844,4.929818652648481,0.1530559950778443
27.93944,5.026184197049343,0.1525049275791546
27.944023999999995,5.106960605331531,0.152094342345811
27.948624,5.182818906152677,0.1515752322314466
27.953212,5.258500641179309,0.1508125669752029
27.957808,5.324522727078368,0.1500694135545569
27.9624,5.380640794421563,0.1493753423293227
27.966992,5.422279627705136,0.1488788755942897
27.9716,5.445885630587123,0.1486974639199214
27.976188,5.466216308372328,0.1485090182911052
27.980796,5.481472792165456,0.1483418429796144
27.985388,5.503181403623153,0.1479363891000538
27.989975999999995,5.5186720172128325,0.1475836897521448
27.994564,5.531009490419875,0.1472005708736523
27.999156,5.53684045488198,0.1468370444819355
28.003751999999995,5.536164910599148,0.1464922791851053
28.00834,5.526528923656724,0.1461945019034817
28.01294,5.513739796331662,0.1458687948036149
28.017527999999995,5.499640538967889,0.1455349770925889
28.022128,5.479367425184724,0.1453057934147088
28.026708,5.454963693305758,0.1451277063780799
28.031308,5.430027081121582,0.1449350558764616
28.035896,5.407255891975139,0.1446772192201491
28.040488,5.381253519180541,0.1444524521527507
28.10934,5.0408545297783975,0.1443773840647886
28.113948,5.04993715715213,0.1443232772665899
28.118535999999995,5.065892847413237,0.1442240827981432
28.123132,5.087044916380568,0.1441041126449083
28.127724,5.110572875997034,0.1440232070955245
28.141508,5.195412098741241,0.1440110266235493
28.146104,5.23289665174386,0.1439550753684322
28.150684,5.277987375918727,0.1438005408352822
28.155276,5.328108152637045,0.1435904782137176
28.159856,5.385057850794107,0.1432904827193895
28.164456,5.449203024532353,0.142871106452617
28.169044,5.519888608832424,0.1423176146275415
28.173644,5.597114603694323,0.1416498204323436
28.178232,5.6752400330038695,0.1409800893649451
28.182828,5.753732016455851,0.1402995472498486
28.187408,5.828748446831389,0.1396707843774751
28.192,5.907729169139954,0.1389873335954234
28.196592,5.98503320726737,0.1383253231857628
28.201184,6.058084442584839,0.1377343917389565
28.205772,6.13162441675889,0.1371234832036973
28.210356,6.204875880056021,0.1364988378226561
28.214944,6.275795594152647,0.1358967020251954
28.219528,6.349491654857734,0.135219973305948
28.224108,6.426863496618928,0.1344559145818522
28.228696,6.502270143322052,0.1336925590721404
28.23328,6.579265191309071,0.1328368649653734
28.23786,6.649431317857344,0.1320670413394244
28.242448,6.718531683795194,0.1312935644428112
28.247056,6.786688473836769,0.1305109131465813
28.251643999999995,6.851858449658479,0.1297483860763537
28.256232,6.915185415136267,0.1289840575621771
28.260828,6.984353584707897,0.1281150578053859
28.265416,7.049757690326161,0.1272734000213143
28.270008,7.1133187856005,0.1264214190674528
28.274604,7.173404327798394,0.1256087395449281
28.279208,7.240763388842989,0.1246850670398785
28.283792,7.3001497245729,0.1238550641258759
28.288392,7.362312406911268,0.1229585319033473
28.29298,7.422265524763277,0.1220653554017204
28.29758,7.479764708700635,0.1211965258028128
28.302164,7.534032708989838,0.1203523342709492
28.30676,7.588256567830411,0.1194759548676338
28.311356,7.635529320518093,0.1186670036952305
28.315947999999995,7.67650603207224,0.1179282061601221
28.320536,7.713885005835795,0.1172247026568981
28.325132,7.745745188199318,0.1165842447889145
28.32972,7.778749174438779,0.1159224004821513
28.334316,7.808399792315941,0.1152873862278373
28.338904,7.830610565183629,0.1147334910798054
28.343488,7.8516333927267485,0.114166608398255
28.348075999999995,7.87008010164107,0.1136221388762998
28.352676,7.874302185555802,0.1132383615816558
28.357264,7.876725400575237,0.112871671144187
28.36186,7.881969103651761,0.1124790000775795
28.366452,7.887046480565511,0.1120556194285945
28.37104,7.883906762736286,0.111707971264933
28.375624,7.884076271820732,0.1113076933021447
28.380212,7.88310197702924,0.1109297728596139
28.384804,7.883271486113687,0.1105323268807882
28.3894,7.883030299607067,0.11011793124538
28.393988,7.879191375309857,0.1097299010138861
28.398584,7.876496254888586,0.1093242460849823
28.403172,7.877643241686197,0.1088796905689123
28.40776,7.8782573481785985,0.108422334525491
28.412356,7.880381812689375,0.1079262550094364
28.416948,7.881851212180797,0.1074223143514821
28.421544,7.881643927491069,0.1069250295603837
28.426124,7.881681012229631,0.1064160996952505
28.430724,7.884660769739429,0.1058723029917612
28.435312,7.885597288925639,0.1053539585167521
28.439912,7.886289438683558,0.1048487366885198
28.4445,7.894421433450951,0.1042767527478104
28.4491,7.900754559323047,0.1037176058921358
28.453692,7.900547274633319,0.1032177467151831
28.458288,7.902916108572388,0.1027064718436355
28.462876,7.906306561673252,0.1021817742897268
28.467468,7.906754342002879,0.101689731559506
28.472072,7.902827134808414,0.1012223482446429
28.476664,7.897633939023861,0.1007793129987579
28.481256,7.893095808258667,0.1003432389853582
28.485848,7.893299219160002,0.0998637469019382
28.490436,7.890071218433517,0.0994398323094742
28.495024,7.883533990793365,0.099064655822862
28.499612,7.87752964345842,0.098700837382268
28.504204,7.874756479771629,0.0983330425331283
28.5088,7.879056606951877,0.0979271268925808
28.513384,7.88965277526566,0.0974844573957883
28.51798,7.898738585561064,0.0970777257895047
28.522568,7.91232156809471,0.096646411728576
28.52716,7.933999460657186,0.096171340817595
28.531752,7.957476222114959,0.0956884485963492
28.536335999999995,7.977765941373205,0.0952463529888242
28.540952,8.00116465956546,0.0948077744335587
28.54554,8.028816180567661,0.0943553144301191
28.550144,8.056756212446784,0.0939315406278981
28.554732,8.088826862421708,0.0935038008938376
28.55932,8.125394684634871,0.09305569068954
28.563908,8.168136363267424,0.0925820933059749
28.568508,8.217540637175949,0.0920641664042157
28.573104,8.267477791389684,0.0915631054962158
28.577691999999995,8.322689367575162,0.0910501715780482
28.582284,8.38072143181773,0.0905200486225955
28.586876,8.439897299936236,0.089975110288664
28.591464,8.502915275273624,0.0894055176574201
28.596052,8.565933250611014,0.0888444716068281
28.600656,8.626130737891314,0.0883115928914636
28.605248,8.684651540990464,0.087792511224853
28.609839999999995,8.748158255184435,0.0872363158257772
28.614424,8.80974391576897,0.0867019808740363
28.619019999999995,8.86299029689638,0.0862205134114327
28.623608,8.914315624414344,0.0857554556714649
28.6282,8.971770666903073,0.0852409771436729
28.632788,9.034700359343203,0.0846764332475152
28.637376,9.09811879063992,0.0840971674401671
28.641964,9.158428223002629,0.0835153044706322
28.64656,9.214362667841243,0.0829507512339471
28.651148,9.265555571013326,0.0824185682027418
28.655743999999995,9.312373486661317,0.0819031794379401
28.660336,9.353550426195127,0.0814245374313301
28.664928,9.39443885485202,0.0809281334148549
28.669528,9.428131807927729,0.0804633473525796
28.674108,9.46039244625058,0.0799929169939552
28.6787,9.496250822364022,0.0795137085649446
28.683288,9.532231383191608,0.079035304694419
28.687876,9.564736390942748,0.0785668069604087
28.69248,9.595442529798596,0.0781065962021519
28.697068,9.621284942273762,0.0776771804088934
28.701656,9.641364193920609,0.0772812963104618
28.706244,9.658745142224513,0.0768951154790383
28.710836,9.680090382461438,0.0764846151264814
28.71544,9.702701611288456,0.0760587402485846
28.720016,9.718650244839498,0.0756684807458243
28.724616,9.7220509375721,0.0753464572969293
28.729208,9.721731707799965,0.0750398500902108
28.733804,9.724477335513209,0.0747124541612339
28.738392,9.727100778512307,0.0743893725328985
28.742992,9.730868025387345,0.0740545169962611
28.747576,9.738355194767122,0.0737065421018164
28.752172,9.743921310537452,0.0733677312046953
28.75676,9.74719981855591,0.0730527454509543
28.761356,9.752032826041368,0.0727426800876423
28.765944,9.755722029650888,0.0724443639760832
28.77054,9.759000537669346,0.0721324765546645
28.775132,9.758559123183064,0.0718349365626324
28.779724,9.760816012039726,0.0715315324326002
28.784312,9.764216704772329,0.0712176244683934
28.788908,9.769538451114368,0.0708946894465417
28.793496,9.77882448938944,0.0705503817522536
28.798088,9.791175385149891,0.0701875702286368
28.802684,9.800461423424965,0.0698452871990525
28.807272,9.80950309227174,0.0695133104841078
28.811864,9.82136524917561,0.0691713606166933
28.816452,9.840911620517245,0.068795415510996
28.821044,9.866754032992416,0.0684086067973903
28.825631999999995,9.88736616494447,0.0680587247603502
28.83022,9.913863642438995,0.0676828159139841
28.834816,9.942282173542964,0.0673012230188547
28.839404,9.96877965103749,0.066930535034593
28.843992,9.999119235750898,0.0665453212784852
28.848588,10.032401493235543,0.066147851195704
28.85318,10.066949739310273,0.0657382310399055
28.857776,10.105340092603884,0.0653160067873229
28.862352,10.138744534802672,0.0649213982773633
28.866952,10.176768333953849,0.0645179142876261
28.871544,10.21401488337152,0.0641146877168163
28.876144,10.253959736132137,0.0637113167084764
28.880724,10.29529276219698,0.0632921092021384
28.885324,10.338546841871263,0.0628709719693637
28.88992,10.38245598656491,0.0624612798694515
28.894511999999995,10.43147322706752,0.0620278491338002
28.899108,10.479835402550776,0.0615896753681499
28.903704,10.528319762748175,0.0611503907663622
28.908292,10.579380241574375,0.0607170272853504
28.91288,10.625943548162336,0.0602930687989631
28.917468,10.681212688349852,0.0598421898393552
28.922063999999995,10.731862471584986,0.0594053422539224
28.926652,10.782390070105974,0.0589763035542243
28.93124,10.833162038055251,0.0585424177062757
28.935828,10.885077809880473,0.0581040553939604
28.94042,10.93838175500992,0.0576539126903945
28.945011999999995,10.99078626569172,0.0572082055142758
28.9496,11.041391907478229,0.0567679678743067
28.9542,11.095717471769468,0.0563224946323781
28.95878,11.146323113555974,0.0558874448973192
28.963372,11.195907136180686,0.0554593379807344
28.96796,11.239072932957717,0.0550418678017023
28.972548,11.283671044487605,0.0546383001636783
28.977144,11.321606560741523,0.0542522385660417
28.981732,11.353001666433617,0.0538782759044634
28.98632,11.37838924186909,0.0535283074986993
28.990915999999995,11.401977948409272,0.0531799396994204
28.995508,11.419925678835275,0.0528416513652048
29.000104,11.425281326994208,0.052508908044432
29.004684,11.425240368467254,0.0521773422288233
29.009284,11.411341339083142,0.0518622164513932
29.013876,11.392700768032505,0.0515550733305825
29.018476,11.363922048629446,0.0512572296428905
29.023064,11.326437495626829,0.0509792557357717
29.027664,11.282412532062382,0.0507096138493819
29.032256,11.225717442965353,0.0504716126081432
29.036848,11.1606830744112,0.0502406070454759
29.041443999999995,11.084366753628688,0.0500245816286952
29.046036,10.99599123088432,0.0498199518867062
29.050636,10.897355375073388,0.0496258142680473
