Time,Force,Position
30.432684,4.344669012178403,0.1541723587469659
30.43728,4.495038399043417,0.1539800001911805
30.441872,4.632717181112366,0.1537428494587701
30.446468,4.759748596708838,0.1533961794239194
30.45106,4.880341307194151,0.1528054564407688
30.455656,4.988976521168273,0.152098472124415
30.460244,5.078625089212796,0.1515175158824956
30.46484,5.152396010261727,0.1510330561649842
30.469424,5.215074967430225,0.1505571907610408
30.474016,5.268216460185295,0.150067747979425
30.478608,5.316684214907613,0.1494506703978277
30.483204,5.3540600057495,0.1488389819691898
30.487792,5.380754528302018,0.148271280757942
30.49238,5.399177575031191,0.1476544623570053
30.496972,5.411416525709239,0.146984928360184
30.50158,5.422423389614088,0.1462497839585437
30.506176,5.431098504318432,0.1455398775234341
30.51078,5.437974750127479,0.144869882474593
30.51536,5.443585007346441,0.1442504629705513
30.51996,5.447152026241816,0.1436785778442288
30.524548000000003,5.451784805747611,0.1431347515853068
30.529148,5.457317019701056,0.1425791172127664
30.53374,5.463626483388001,0.1420193688406343
30.538336,5.469447208218363,0.1415015388222263
30.542924,5.464929556716645,0.1412437674324647
30.54752,5.461599850539495,0.1410036824437633
30.552112,5.461501328010498,0.1407295760886206
30.556708,5.4643896197013655,0.1404425321218352
30.561296,5.470264725612096,0.1401425253120072
30.565892,5.4793710151709805,0.1398101376295704
30.57048,5.487622011730845,0.1395492843708357
30.575068,5.49783820334878,0.1392987521194788
30.579656,5.508465090557779,0.1390729075095897
30.584236,5.518236684767758,0.138916594338943
30.607196,5.564559495715817,0.1388485189734151
30.611784,5.5846458040727285,0.1387295768017196
30.61638,5.60947365409617,0.1385271144616134
30.620964,5.63266896138709,0.1383954144423426
30.625556,5.659217637040312,0.1382318594185167
30.630164,5.686421377712889,0.1380745346221384
30.634756,5.723108201718527,0.1377400319407359
30.639344,5.762371144352963,0.137380037583998
30.643932,5.805354009492137,0.1369624075517439
30.648524,5.846293636307724,0.1365898294734917
30.65312,5.889398686161042,0.1361724409331632
30.6577,5.932503736014359,0.1357599040685636
30.662296,5.975730970581824,0.1353426799008404
30.66688,6.0221452473488135,0.1348550740302273
30.671484,6.0685595241158055,0.1343693616236337
30.676072,6.115095985596942,0.1338760968247144
30.680672,6.163920054829956,0.1333244604557725
30.685256000000003,6.214010112653055,0.1327389188756341
30.689852,6.265488343780386,0.1321143581696951
30.694448,6.3138575759737074,0.1315223138704871
30.699044,6.367701458118432,0.1308058706493407
30.703636,6.415127114415478,0.1302016508617075
30.70822,6.454457860683693,0.1297091784227715
30.712808000000003,6.494766084665073,0.1291543422167837
30.717392,6.5290226369412085,0.1286681839114412
30.72198,6.562990678340425,0.1281574946675213
30.726576,6.595648589700929,0.127647004546135
30.731168,6.625197502127422,0.1271547375001499
30.73576,6.65355846922935,0.1266540040887591
30.740356,6.683918533206235,0.1260749941351778
30.744932,6.71182466326847,0.1255200730640041
30.749528,6.7375212288443445,0.1249676053712259
30.754116,6.76202984909565,0.1244009209179217
30.758704,6.7880488273653325,0.123796941444302
30.763312,6.816599782815184,0.1231345130885589
30.767888,6.84588384654991,0.1224315867617414
30.772484,6.872469606941692,0.1217601232817892
30.777076,6.9004435406377045,0.1210582823118196
30.781664,6.925064105971416,0.1203838362630101
30.78626,6.946864183248037,0.1197478664180806
30.790852,6.968131380219449,0.1191100963336485
30.795444,6.988621327457358,0.118476238590499
30.800032,7.011032328304709,0.1178136214259601
30.804632,7.03512001333321,0.1171472622429669
30.809212,7.065093043904182,0.1164038122715796
30.813812,7.093922270599213,0.115686418722963
30.818404,7.120586074256512,0.1150122053219053
30.823,7.147904942933168,0.1143462078459834
30.827592000000003,7.172691834429654,0.1137432828473538
30.832192,7.197522867374767,0.113185728263176
30.836784,7.2210879117297955,0.1126594014451889
30.84138,7.249927378056565,0.1120960259251373
30.845968,7.2781559208126065,0.1115683195779948
30.850564,7.302830867226684,0.1111192184074953
30.855144000000003,7.326117640336534,0.1107110153796359
30.859728,7.350592358770948,0.1103253963432198
30.864308,7.38275129164313,0.109858545259964
30.868904,7.413399866496936,0.1094384241867714
30.873488,7.447401809713043,0.109004947745781
30.878068,7.481814448520214,0.1085896098417161
30.882664,7.512429121557131,0.1082588318978028
30.887252,7.544598294061052,0.1079286521532786
30.891848,7.579221400479624,0.1075912426433026
30.89644,7.613600137469906,0.1072724962283599
30.901028,7.644303093404078,0.1070300994847017
30.905624,7.679747591004781,0.1067446605351572
30.910212,7.718789826396075,0.1064353258974509
30.9148,7.762695788168046,0.1060806127683854
30.919388,7.807745553815956,0.1057075166733911
30.92398,7.853284058320449,0.1053135639238105
30.928576,7.902009605024469,0.1048794810103756
30.933164,7.950080086709131,0.1044500560127791
30.937764,8.000560360859819,0.1039806192226134
30.942344,8.051651558581232,0.1034840021995603
30.94694,8.103886560178585,0.1029757308690568
30.951528,8.154811431737228,0.1024612642197523
30.956128,8.20123913105763,0.1019888930352545
30.960724,8.246356700339318,0.1015078763933331
30.96532,8.290041954868148,0.1010260301150633
30.969912,8.335604121557791,0.1004942369448174
30.974508,8.382265950674746,0.0999112207011084
30.979112,8.425163715838336,0.0993229196213113
30.983704,8.466995720391504,0.0987151164908502
30.988296,8.505718726010663,0.0981102969949542
30.992892,8.543864709875983,0.0974602068663856
30.99748,8.576858456483706,0.0968373460598728
31.002064,8.605066519976273,0.0962215528384182
31.006656,8.625057488725863,0.0956623227296912
31.011248,8.642183827969733,0.0950899774381693
31.01584,8.655956798851305,0.0945281914022425
31.020432,8.664333163046988,0.0939977953086181
31.025028,8.664614617213841,0.0935123810663188
31.029612,8.661298333590103,0.0930470928045162
31.034208,8.657204800232863,0.0925819243953225
31.038796,8.648858464065677,0.0921301864503787
31.043388,8.63793600926969,0.0916866603289497
31.047972,8.622272012807175,0.0912770161105367
31.052564,8.605708581897007,0.0908712902475129
31.057152,8.587346282091545,0.0904742844678774
31.061744,8.565796940086557,0.090112072865077
31.066336,8.546046466976867,0.0897405204991809
31.07094,8.529282808087038,0.0893777371290394
31.07554,8.514850898397716,0.0890187691307696
31.080132,8.499030815404165,0.0886847997634613
31.084712,8.482477624125739,0.0883826447405005
31.089304,8.466457313152524,0.0880919620521288
31.093892,8.454445435560963,0.0878019032335394
31.098492,8.446031295759996,0.0874945121057135
31.103084000000003,8.446122761578922,0.0871691119893715
31.107684,8.4504670302078,0.0868351344750458
31.112276,8.462661839437214,0.0864778151813577
31.116872,8.480663950943581,0.0861134720682765
31.121464,8.504473364726898,0.0857451165108418
31.126060000000003,8.52934853912064,0.0854027635789161
31.130648,8.558109962181893,0.0850692483966003
31.135248,8.592434318091804,0.0847431976367477
31.13984,8.633587595440464,0.0844045138564842
31.14444,8.680548175066077,0.0840645614297186
31.149028,8.727919450282753,0.0837426943899772
31.153616,8.782364016366468,0.0833997905266022
31.158204,8.837874343060607,0.0830864486834515
31.1628,8.898126211421273,0.0827503666619741
31.167392,8.959155329515442,0.0824218264678068
31.17198,9.023660000686055,0.0820849883546015
31.176572,9.091884594361408,0.081731735442425
31.181164000000003,9.162807491379702,0.0813718393489296
31.185756,9.233852573112143,0.0810127687729511
31.190344,9.305552719863943,0.0806640045423243
31.194940000000003,9.372511324949212,0.0803481563272642
31.199536,9.438203941444396,0.0800540742566388
31.204124,9.495557278482456,0.0798000327938182
31.208732,9.552133365787016,0.0795458091828488
31.213324,9.607643692481153,0.079273885155508
31.217912,9.66184388913658,0.0789901275060051
31.222508,9.71563339020094,0.078693541078638
31.227096,9.76463720815014,0.0783931659828488
31.231692,9.807833723822387,0.0780961930282582
31.236288,9.84534512193183,0.0777985064392005
31.240884,9.885266312507296,0.0774736694432993
31.245464,9.920279635253458,0.0771502876902923
31.250064,9.949363471008525,0.0768327535854058
31.254652,9.970352396734755,0.0765411080917023
31.259252,9.983246412432155,0.0762732190178406
31.263844,9.99519685223328,0.0759794399352218
31.26844,10.004038293100397,0.0756787424120972
31.273032,10.006828062262269,0.0753865474257661
31.277628,10.005365028614197,0.0750981590063589
31.282224,10.00079299603211,0.0748013989873181
31.28682,9.993234149230164,0.0744915476755909
31.291408,9.985753345693732,0.0741485870649587
31.296004,9.981826138499263,0.0737660420279939
31.300592,9.977732605142023,0.0733592014830274
31.30518,9.96619922677531,0.0729790175191589
31.309772,9.954132968103382,0.0725871240598715
31.314356,9.938713341069157,0.0721948269432106
31.318944,9.923660268177368,0.0717881381443744
31.323536,9.910650433609169,0.0713674080338921
31.328132,9.895841730145673,0.0709493146906552
31.33272,9.879356342501024,0.0705312756139799
31.33732,9.860294836227578,0.0701133678253706
31.341908,9.84327656827772,0.0696809233468236
31.346496,9.828301538651449,0.069233977356617
31.35108,9.82215452733888,0.0687425023308093
31.355668,9.818461449940964,0.0682561568689045
31.360276,9.818243925619498,0.0677684623005781
31.364868,9.824444627145713,0.0672641293309123
31.369464,9.833221447300724,0.0667594049991014
31.37406,9.845596005246325,0.0662489511870847
31.378648,9.85928069323064,0.0657528793676806
31.383252,9.87055558874893,0.0652834621993322
31.387844,9.88158611483893,0.0648241429224971
31.392448,9.895192759557728,0.0643673467646775
31.397024,9.91509544541006,0.0638998309501173
31.401624,9.94039473794828,0.0634272742982085
31.406212,9.969946833296447,0.0629585972203973
31.410812,10.004528981188068,0.0624986933939208
31.4154,10.04258668215613,0.06204195632044
31.42,10.086040989810082,0.0615798628593441
31.424592,10.130028177769242,0.0611319640362596
31.429188,10.182110275757235,0.0606777347558926
31.433768,10.23971116514526,0.0602173115277637
31.43836,10.304874084256904,0.0597422616887441
31.442948,10.36774939561667,0.0592925314572738
31.447544,10.429725272528788,0.0588489969512408
31.452132,10.490801714993257,0.0584114806147725
31.45672,10.55097872301008,0.0579798096312509
31.461296,10.61487565353164,0.0575457217069356
31.465892,10.681715256824436,0.0571075875515322
31.470484,10.74916578368796,0.0566521107517898
31.475072,10.820580602484512,0.0561853030149716
31.479668,10.898658016557034,0.0557089403084656
31.484256,10.978778668953144,0.0552316428550188
31.488852,11.06130911381528,0.0547406803720869
31.493436000000003,11.136521898382084,0.0542626347011857
31.498024,11.21120180264368,0.0537791058733411
31.502616,11.279707850485886,0.0532990966830691
31.507204,11.34077405331862,0.0528325403463896
31.511808,11.397220899198969,0.0523745468124242
31.5164,11.45121381116466,0.0519116353045078
31.520988000000003,11.496745258959088,0.051466434342616
31.525584,11.529973135363363,0.0510445676365275
31.530164,11.54897638676805,0.0506507324997111
31.53476,11.561439227610908,0.0502659040736336
31.539336,11.566462223444294,0.049889873583674
31.543936,11.565066993429998,0.0495186107482039
31.548524,11.556231918406226,0.0491553630148424
31.55312,11.534560391687096,0.0488005721565804
31.557712,11.497764805520726,0.0484683721737967
31.562308,11.453817885221795,0.0481610081961088
31.566888,11.397689578246863,0.0478670519220433
31.57148,11.324271788786962,0.0476062128885338
31.576068,11.229600224909058,0.0473889555204526
31.580664,11.121114731622626,0.0472071054577527
