Time,Force,Position
35.77118,2.9957086683725853,0.1739476124354574
35.775768,3.1691479948927,0.1728496232496434
35.780376000000004,3.333861008549779,0.1717137767138546
35.784964,3.485594906533873,0.1708615749324794
35.789552,3.624471873559128,0.1700059448115504
35.794148,3.751269159359047,0.1691474867803303
35.798736,3.864476405915253,0.1684160260058086
35.803332,3.971244947360299,0.1673645507948963
35.80792,4.060336972914458,0.1665868006162781
35.812516,4.138659447281992,0.165789912860033
35.817104,4.205479262178031,0.1650469502320109
35.821704000000004,4.258630994564837,0.164426173302938
35.826296,4.3024115887009895,0.1639321522358846
35.830892,4.339397163215286,0.1634796482733732
35.835484,4.370120598412934,0.1630681377148636
35.840084,4.395236959313296,0.1626768298431814
35.844676,4.418422026972475,0.1621344465590474
35.849272,4.434323336153216,0.1616632542449591
35.853864,4.448704047683842,0.1610798692263099
35.85846,4.460953237993625,0.1604482676592331
35.863048,4.467439267475081,0.159999165982819
35.867648,4.483208152309936,0.1593782356649024
35.872236,4.501352927793926,0.158803399887323
35.876832,4.519463801461026,0.1583682781449611
35.88142,4.543426118853707,0.157902155578422
35.886016,4.572584814952611,0.1574088000279634
35.890604,4.604652282005862,0.156963363993887
35.8952,4.636930216670515,0.1566348855471199
35.899792,4.678491006688569,0.1561402601738122
35.90438,4.722916426212341,0.1556500712044097
35.908972,4.770328659955975,0.1551423814748732
35.913560000000004,4.828944802662448,0.1544334549946602
35.918156,4.889648325141136,0.1537396397318497
35.922744,4.948597120173157,0.1531497392115689
35.92734,5.011798718015127,0.152511512176813
35.931936,5.083994660333575,0.1517070504961679
35.936524,5.159954666605389,0.1509042466669628
35.94112,5.238490791506,0.1500658811408637
35.945708,5.317804166140114,0.1492478538090315
35.950296,5.398916409669524,0.1484164176408235
35.954892,5.486324694332469,0.1474827502723703
35.959484,5.565271514824146,0.1467570829808747
35.964088000000004,5.639965532505876,0.1461013445243364
35.968668,5.7182131465295685,0.1453414024034239
35.973268000000004,5.792574511885749,0.1446286948929336
35.977856,5.862438705003691,0.1440071575981283
35.982456,5.933402560548945,0.1433089758597264
35.987036,6.009308185740392,0.1424741799057093
35.991636,6.083248615873768,0.1416541964725574
35.99622,6.15228117817784,0.1408942051704878
36.000816,6.218571295690341,0.1401360537240745
36.005408,6.27876560004897,0.1394365405113995
36.010004,6.336584013758464,0.1387183632160663
36.014592,6.3968902631995,0.1378854646395931
36.019188,6.447913657287136,0.1371616368577411
36.023768000000004,6.489898565449667,0.1365356683040198
36.028356,6.524888226010677,0.1359563283147809
36.032944,6.557379811208407,0.1353589923616977
36.037536,6.584797202414059,0.1347720365999208
36.042128,6.605219346018191,0.1342237706704909
36.04672,6.615825753963713,0.1337579467987893
36.051316,6.628675628212487,0.1331926017575574
36.055904,6.643402414622074,0.1325528738604217
36.060504,6.650645214573558,0.1319814817147878
36.065092,6.655922819466972,0.1313972424345127
36.069684,6.65690348010181,0.130807891653189
36.07428,6.653875707354992,0.1302462365483002
36.078856,6.639810351808107,0.1298404831338363
36.083444,6.620592759003626,0.1294867024114637
36.08804,6.598799047570347,0.129158230845433
36.092628,6.575450836670065,0.1288353080600905
36.097232,6.549282137712693,0.1285526421546395
36.10182,6.519271331536437,0.1283296386205982
36.106416,6.48349736453186,0.1281955112219782
36.111004,6.448745016689076,0.128042820075733
36.115604,6.41566935302744,0.127873326958003
36.120192,6.3843925582611005,0.1276786864576387
36.124792,6.353770828514118,0.1274858191300543
36.129372,6.321272186606322,0.1273684942084889
36.133964,6.295358096708979,0.1271991757301066
36.138548,6.275251309088589,0.126982623664406
36.143144,6.254289228469178,0.1268209404894463
36.147748,6.233615658726689,0.126686378081885
36.152344,6.217483402671067,0.1265421612712118
36.15694,6.204993025854663,0.1263989031649348
36.161536,6.199742266068071,0.1262139915400841
36.166128,6.201198243006081,0.1259766533475635
36.170728,6.208705891649333,0.125679768495563
36.175316,6.220754853979454,0.1253748279128954
36.179904,6.243474844967201,0.1249548409281034
36.184496,6.27290157267955,0.1244884592522363
36.189088,6.305847994916972,0.1240340659615163
36.19368,6.343580100269554,0.1235571744915128
36.198272,6.386997323184942,0.1230488240510359
36.202868,6.439941770882021,0.1224601971209522
36.207456,6.494074163903664,0.1218939885480872
36.21204,6.549927382555087,0.1213640812738829
36.216628,6.608889600140519,0.1208358945848053
36.221216,6.675824543040636,0.1202286738341321
36.225812,6.74227074708417,0.1196641473956501
36.2304,6.809494200861206,0.119106769148125
36.234988,6.875573850762306,0.1185739431991515
36.239584,6.94230856568276,0.1180545627212915
36.244172,7.010309269193297,0.1175108202880394
36.248768,7.078432157417982,0.1169685911157271
36.253348,7.147943218946896,0.1164042561305299
36.257956,7.212712738809281,0.1159093156322544
36.26254,7.277604443385811,0.1154136773113925
36.26714,7.343229256247215,0.1148843244465689
36.271732,7.402435843260939,0.1144338222132165
36.276324,7.457389627464715,0.1140202365283509
36.280916,7.511522020486359,0.1135729458746646
36.285512,7.563322664307499,0.113132281437701
36.290104,7.615734231699365,0.1126673828688068
36.2947,7.663892996281285,0.1122404992520086
36.299296,7.71074163082449,0.1118045710677348
36.303892,7.757668308633214,0.111328991160448
36.308492,7.799687118612633,0.1108769923801616
36.31308,7.839985102962273,0.1104055786300101
36.317672,7.87394290472975,0.1099475673936975
36.322256,7.905691142010867,0.1094894484875229
36.326848,7.939316291452795,0.1089759154939906
36.331436,7.968933007513069,0.1084738801513718
36.336028,7.995440724639334,0.107978054885064
36.34062,8.018961627545735,0.1074814674981648
36.345216,8.0354092395851,0.1070360491804764
36.349804,8.049769471852251,0.1065797565524524
36.354404,8.062819574080686,0.1061144330053846
36.358992,8.070717439051528,0.1056776727497074
36.363588,8.077549543411946,0.1052178598882119
36.368176,8.083726582753007,0.1047535717383702
36.372768,8.088882002932277,0.1043031869928365
36.377376,8.09644721557757,0.1038116285085643
36.381964,8.099759625412915,0.1033419138128354
36.38656,8.099840851600106,0.1028804260640786
36.391156,8.103109119986822,0.1023790716623618
36.39576,8.102002400849445,0.1019019049495014
36.400348,8.099996247264421,0.1014295147172228
36.404936,8.095946855355809,0.1009832298437266
36.409532,8.09741625484723,0.1004956816655294
36.414112,8.1005623385198,0.1000042766906627
36.418708,8.10232024888814,0.0995433663451005
36.423288,8.108042451189508,0.099043260739745
36.427892,8.117118021853178,0.0985348910369155
36.432476,8.131468014488586,0.0980036033936241
36.437064,8.151869678829241,0.0974481095673935
36.441648,8.176768515408135,0.0968686323508229
36.446244,8.204121285901678,0.0962893554469645
36.450848,8.234705240043379,0.095706808975432
36.455444,8.268398193119086,0.0951305787415585
36.46004,8.30389001509009,0.0945483860848779
36.46464,8.341180705956392,0.0939598128211398
36.469232,8.378882092413756,0.0933956866519349
36.473824,8.420836281681067,0.0928237448153915
36.478412,8.461402297644149,0.0922786072783698
36.483,8.498781271407703,0.0917749995236489
36.487588,8.542334101590647,0.0912479813165516
36.492184,8.593082407354775,0.0906895736286575
36.496776,8.646651201175992,0.09012007455697
36.501368,8.70075287530242,0.0895696829238153
36.50596,8.754854549428845,0.0890251083536501
36.51054,8.812920515488303,0.0884535616368317
36.515136,8.868576689081737,0.0879218534323722
36.519728,8.923577797655813,0.0873909072098252
36.524316,8.972160680382208,0.0868985629477543
36.528928,9.017268010032154,0.08642140987131
36.533516,9.058533232463224,0.0859735658714611
36.538124,9.0962007171037,0.0855441183280141
36.542716,9.139753547286643,0.0850785851872885
36.547304,9.181751878002585,0.0846145912453913
36.551896,9.22080753594729,0.0841740618886354
36.556488,9.258963759444343,0.0837405105039583
36.56108,9.295687668188547,0.0833030376673603
36.565676,9.329058208570448,0.082873616932544
36.57028,9.37047951753255,0.0823868057744632
36.574868,9.412145195922944,0.0818917886266176
36.579468,9.451112570970396,0.0814119539086909
36.584056,9.484028274312603,0.0809497478521395
36.588656,9.510281382378835,0.0805262509324736
36.593248,9.534202741244563,0.0801002636890698
36.597844,9.558490654252727,0.0796633542555617
36.60244,9.580857513651452,0.079241575903349
36.607032,9.604612546354405,0.0787993364362606
36.611616,9.62632434073377,0.0783746124970804
36.616208,9.649835004008434,0.077944272069525
36.620808,9.67346785199724,0.0775103941233057
36.625408,9.701187176633224,0.0770489759512035
36.63,9.73299297791638,0.0765609344925738
36.634592,9.757236749475917,0.0761129996509767
36.639184,9.778782217692507,0.0756737237244338
36.643768,9.80147148978504,0.07522308330715
36.648356,9.825304565753513,0.0747634159647604
36.652952,9.845173349788954,0.0743277941477486
36.657544,9.863776145234311,0.0739090651987623
36.662136,9.873306552937674,0.0735511154404448
36.666732,9.886556883145774,0.0731814179408424
36.671312,9.899929398068018,0.0728088708473269
36.675904,9.917021835494996,0.0724247407923029
36.680496,9.939100184016803,0.0720120651285056
36.685084,9.965797889490991,0.0715878852618688
36.689692,9.992251225536888,0.0711760798960846
36.69428,10.017927311849284,0.0707646526161593
36.698884,10.046546070932914,0.0703424975193178
36.703476,10.079129121949574,0.0699027523749414
36.708064,10.111834357680378,0.0694599837302372
36.712652,10.148503885344212,0.0690006829858303
36.717244,10.18133130578916,0.0685602865063028
36.721836,10.212892737644028,0.0681387983371288
36.726416,10.247396842270128,0.0677054840863406
36.731016,10.284721434953315,0.0672641672397668
36.735596,10.324089265960094,0.0668139935206259
36.740196,10.360636608909784,0.0663752417377328
36.744788,10.405889785459028,0.0659044102997553
36.74938,10.45126514672242,0.0654295912262089
36.753976,10.499949734899484,0.0649287039960552
36.75856,10.54605820444775,0.0644333822414135
36.76316,10.59204448928187,0.0639454171552175
36.767752,10.635987535792404,0.0634728939239253
36.772352,10.678908963141142,0.0630097436578432
36.776944,10.713491111032758,0.0625692507127227
36.781528,10.74267665223849,0.0621370474830948
36.786112,10.771084943710717,0.0617041528977925
36.7907,10.792708455192829,0.0612979569265505
36.7953,10.809468240294263,0.0609119780353537
36.799888,10.826472394823991,0.0605189408847487
36.804472,10.839634442134834,0.0601409061293953
36.809064,10.85406247803576,0.0597504314472994
36.813648,10.865914395307891,0.0593601099291132
36.818232,10.874168574789431,0.0589744639644244
36.822824,10.880623885375671,0.0585913847350792
36.827416,10.886179761514269,0.058210946117357
36.83202,10.895044864566536,0.0578093391209258
36.836608,10.89839117621877,0.0574193039569797
36.841196,10.905168899498822,0.0570045348707258
36.845784,10.91321261136896,0.0565786124739273
36.850376,10.91639259685842,0.0561673301011316
36.854968,10.91507541010964,0.0557586389777782
36.859548,10.909261051122623,0.0553522909634266
36.864144,10.899726769630869,0.0549517135669237
36.868732,10.893135160910346,0.0545401285276585
36.873332,10.892184528304004,0.0541171500637767
36.877916,10.88792466878399,0.0537145441128159
36.8825,10.885585862873416,0.0533059326437735
36.887088,10.88169255749584,0.0528892973784642
36.891684,10.873834960185237,0.0524851010210771
36.89628,10.863811939836898,0.0520929858109557
36.900876,10.852400746184328,0.0517167418940811
36.90548,10.838824129494029,0.0513517841229042
36.910072,10.823082089765997,0.0509974753382496
36.914664,10.805296811714376,0.0506503739965572
36.919248,10.78150400340614,0.0503234451823637
36.923828,10.742509092385143,0.0500533596863234
