Time,Force,Position
35.36784,1.1123593648754713,0.128934165623477
35.372443999999994,1.1320349776413172,0.1282829977661001
35.491851999999994,1.145248223110854,0.1277349309006017
35.501031999999995,1.1431608433386389,0.127699471155968
35.50562,1.1435273974810758,0.1275594035196001
35.510216,1.1459371899470998,0.127204364836097
35.514804,1.1488357212697065,0.1266667107054767
35.533184,1.1496129710032088,0.1266472990410349
35.537764,1.1539879585273023,0.1264163227093463
35.542364,1.1582407613372503,0.1262414730944239
35.546944,1.1653140522042875,0.1258806017074873
35.551544,1.1741862119666204,0.1254257875987903
35.556132,1.183835621462455,0.1249499515217083
35.560731999999994,1.199248191786615,0.124026809907516
35.565324,1.2105742854636,0.1234599244033052
35.56992,1.2270526163981803,0.1226623178649561
35.574512,1.2484388151620656,0.1217153305590161
35.579108,1.2737112625934617,0.1207393671165751
35.583712,1.2982506017399835,0.1199702872070093
35.5883,1.3233228211917167,0.1193570277252203
35.592887999999995,1.3531365823099806,0.1184485437433443
35.597488,1.3860593423622525,0.1175418696606177
35.602076,1.4174717443961486,0.1169018926563394
35.60666,1.4510937109164057,0.1163107502847482
35.611252,1.485737296598456,0.1155800337029966
35.615848,1.5185820133852108,0.1149800954776819
35.620439999999995,1.5520817951913222,0.1143590398924768
35.625032,1.5826389042261986,0.1139417348566429
35.629616,1.6111527749374877,0.1137211139364364
35.634208,1.6377455920393358,0.1136270971905974
35.6388,1.6626617249600335,0.1136018927532645
35.643387999999995,1.689088215899108,0.1134288002779187
35.647976,1.7165363259999755,0.1131900650823042
35.652584,1.744106620814989,0.1129680451165752
35.657172,1.7781731847432,0.1122949503575235
35.661767999999995,1.8097858147567596,0.1116997352461839
35.666356,1.8372678266745164,0.1111885726444144
35.670948,1.8608635899247623,0.1107095372748269
35.67554,1.88555901560232,0.1099777546761397
35.680139999999994,1.9024039006793376,0.1094554305955123
35.684732,1.915118167660553,0.1090235809167039
35.689312,1.9211256979171685,0.1087147851334748
35.693915999999994,1.9272112714393013,0.1082263844191849
35.698504,1.9268344776651256,0.1078036654696043
35.703095999999995,1.9243703041187343,0.1073273256829297
35.707684,1.919940935514274,0.1067726860027735
35.712276,1.916489044622979,0.1060003212521055
35.716864,1.9138924467307037,0.1050299342138404
35.72146,1.9062657962949776,0.1041362347556502
35.726048,1.8956523316393892,0.1032060151142339
35.73064,1.878209945545055,0.1024187653958296
35.735228,1.851406660831805,0.1020305118156819
35.739824,1.8214943771845464,0.1016372680287516
35.749004,1.7403277525747722,0.1014986771316413
35.753592,1.695080941868872,0.1013433558769652
35.758184,1.6514666738954933,0.1009218527575033
35.762775999999995,1.610017828959848,0.1002942770418589
35.767368,1.5675473648624083,0.099676189562928
35.77196,1.5309622463074393,0.0987560978995585
35.776551999999995,1.494254943038324,0.0978366187009395
35.781144,1.461389746988092,0.096726393609744
35.785736,1.42431588957654,0.0958494504413481
35.790324,1.3894515966513488,0.0950039363758625
35.79492,1.357940672088458,0.0940881850789901
35.799512,1.323897770345397,0.0934184798027444
35.804108,1.2893661297457533,0.0928420642512327
35.808699999999995,1.2550008153088834,0.0924196163302533
35.813288,1.2269315420055484,0.091779122824733
35.817884,1.2036479518173726,0.0911311948153377
35.822472,1.189891586410886,0.0902671881020933
35.827068,1.1847630113384409,0.0892041222384372
35.831647999999994,1.1833985002193608,0.08819929988253
35.836248,1.1888629105390267,0.0870274745610853
35.840832,1.19383858200211,0.0859741577929764
35.9143,1.3890094912983473,0.0854510318850932
35.918892,1.407086463148561,0.085434984867042
35.923488,1.425652173855357,0.085303991783849
35.928076,1.442296830952711,0.0852466071230318
35.932672,1.463560845002451,0.0850570122470073
35.937264,1.4851914131946278,0.0847601946610124
35.941852,1.5051452972056545,0.0844516921089528
35.946448,1.528041853987916,0.0840079932706103
35.95104,1.5509384107701774,0.0835764005867225
35.955639999999995,1.5701150450477015,0.0832688930608634
35.960228,1.5867155606964278,0.0829870905187625
35.96482,1.6102230410494176,0.0824432222417616
35.96942,1.6324203913636943,0.0818574901513055
35.974011999999995,1.655517176125619,0.0813013819997125
35.978607999999994,1.682944806963009,0.0805307867884539
35.983196,1.70419858138101,0.0798627140205744
35.987796,1.7259410946555935,0.0790864256460419
35.992383999999994,1.747683607930177,0.0783101372715095
35.996984,1.765295503108958,0.077533447844834
36.001572,1.7847062671830354,0.076742920641622
36.006172,1.796677186247638,0.0761220341041598
36.010756,1.804028748359856,0.07560672727712
36.015352,1.8076603879673363,0.0751808202621713
36.019943999999995,1.8137018200408412,0.0746043581487344
36.024539999999995,1.8171671334855488,0.0740536571911058
36.029136,1.8199773819108989,0.0734633713539854
36.033724,1.826874106983424,0.072720621470101
36.038316,1.830173094265357,0.0720295399559991
36.042908,1.83179539736614,0.0713391569875652
36.047488,1.83378425460936,0.0705646874223605
36.052076,1.8387157846238145,0.0696978572577147
36.056664,1.8349414810387104,0.0690818477121588
36.06124,1.82462676689178,0.068589352035147
36.065836,1.806994392449521,0.0682124953809775
36.070424,1.7852755413600887,0.0679727060335893
36.07502,1.7662549936135994,0.067694822892762
36.079608,1.7500549339241993,0.0673508004942864
36.084196,1.7331998092154426,0.0669608004982943
36.088792,1.7225185409260753,0.0665274910345681
36.09338,1.7109378381890603,0.0661052785298542
36.097968,1.7058975460138712,0.0655671984510794
36.102564,1.7053544260769216,0.0649822444941528
36.107152,1.7063658056069766,0.0644234647586034
36.111748,1.704067958223359,0.0640188877770281
36.116344,1.703446795020892,0.0636262893039999
36.12094,1.7072006193425189,0.0632258503178
36.125528,1.709810639788206,0.0628888427323515
36.130128,1.7144638985574805,0.06248816465585
36.134716,1.718095538164961,0.0621129420981861
36.13932,1.7213606236300047,0.0618073873275642
36.143908,1.7224602860573155,0.061588924621534
36.148508,1.7265026212558614,0.0612966136540554
36.153096,1.737862616749736,0.0609195497764699
36.157688,1.7587056955766711,0.0603875390346343
36.16228,1.779548774403607,0.0598483740188761
36.166876,1.8020685374116925,0.0593306729119006
36.171464,1.8194802046108105,0.0589762195001387
36.176056,1.8383241865627875,0.0586855315302363
36.180644,1.8535704307241727,0.058431295203809
36.185232,1.868039425152056,0.0581667597110741
36.18982,1.8807095506846436,0.0579193457363337
36.19442,1.890437003445996,0.0577341174281375
36.199008,1.901308260083288,0.0574992201721023
36.203604,1.913323320596519,0.0572117425593803
36.208196,1.9228844471950972,0.0568968805359291
36.212788,1.9278262168412916,0.0566322513766493
36.217388,1.931624182611546,0.0564180161363521
36.221968,1.9370988325629503,0.0562223184482897
36.22656,1.9482144586285337,0.0559651624545446
36.231156,1.9596966388365535,0.0556401973286983
36.235736,1.9744880459582457,0.0552015804054464
36.24034,1.9901788875275852,0.0547659375150873
36.244928,2.0041930449157754,0.0543289714780935
36.249532,2.00631432650488,0.0541138478555162
36.25412,2.0076583583604823,0.0538770363548256
36.258708,2.005282467711348,0.0536717939387967
36.263308,2.004050380938152,0.0534174118569618
36.267888,2.0061275210786285,0.0530547618163852
36.272484,2.008204661219105,0.0526929993888022
36.277072,2.0090158127694964,0.0523962693236845
36.281672,2.0128918218052685,0.0520370191904058
36.286264,2.018811069164628,0.0516324220101576
36.290868,2.023953066790485,0.0512128602791834
36.29546,2.029095064416341,0.0507948507760637
36.30006,2.033992692613908,0.0504163735598711
36.304656,2.037091451916177,0.0500331194691035
36.309252,2.040556765360884,0.0495867787868842
36.313844,2.040424341015,0.0491448030945204
36.31844,2.034528755840791,0.0487732977992495
36.323032,2.02814443181,0.0484829978649283
36.327624,2.017429261703743,0.0483197639770295
36.332216,2.00017368103566,0.0481988285490162
36.336804,1.980097612310488,0.0480937658304352
36.341392,1.9653740088225744,0.0478325608429433
36.34598,1.957068631182342,0.0475481384251089
36.350572,1.95182811102749,0.0471954457435081
36.35516,1.9438892875296945,0.0468340552670842
36.35974,1.9281440648799877,0.0465798871871315
36.364328,1.9113772230684876,0.0463448368096461
36.368928,1.8947325659711325,0.0460863151060288
36.373516,1.8729798130648103,0.0459337194303871
36.378108,1.85032762571084,0.0457758124494478
36.382696,1.823588961709696,0.0457035577432852
36.387284,1.795828678546758,0.0456498220314693
