Time,Force,Position
29.909828,1.146036388939606,0.1146193756384401
29.914416,1.1663126856444417,0.1131830556778225
30.03378,1.1829675823735353,0.1119189185884095
30.038372,1.2083283127021875,0.1116953459192277
30.052148,1.2833549827094624,0.1113638347592333
30.056752,1.3138679502957102,0.1108451334254602
30.061343999999995,1.3452803523296064,0.1103234881790237
30.065936,1.3702745285158215,0.1101517269882507
30.07052,1.392692586073239,0.1100852919002683
30.075112,1.4181755011160369,0.1097659175708462
30.079695999999995,1.4442693397295634,0.1092333738641878
30.084284,1.4630455180477613,0.1090786457152742
30.088876,1.4784683280036597,0.1089990331161576
30.093471999999995,1.494868615672723,0.1086313489715095
30.09806,1.5061166660841905,0.1084558063876085
30.102648,1.5216955625711237,0.1079345077126916
30.107228,1.536208698447635,0.1072952481766658
30.11182,1.5452810861896311,0.1066651532140257
30.116404,1.550877920855181,0.1061888213143335
30.120988,1.5513225182631356,0.105861441851288
30.125584,1.5467370631276405,0.1056400173056258
30.13018,1.5384316854874076,0.1055827931763854
30.134768,1.5327804697414902,0.1052337809669895
30.139364,1.5305606656233903,0.1045947160803288
30.143956,1.528829600361873,0.1038190098554472
30.148556,1.520802493966822,0.1032737495821731
30.153136,1.5104436383712634,0.1027221914052561
30.157736,1.501228586651644,0.1020681879578247
30.162328,1.491358469912668,0.1013757866820057
30.166927999999995,1.4796894842783967,0.1007424503007406
30.171516,1.4662216297488295,0.1001651249704814
30.176116,1.4585169360475865,0.0992927479219206
30.180703999999995,1.456697587888813,0.0980981391785798
30.185299999999994,1.451569012816368,0.0971555988022756
30.189888,1.4493831105151576,0.0960499036106528
30.194484,1.4402902435096838,0.0953192751819958
30.199072,1.4299313879141256,0.0947086202149285
30.203668,1.424969139004454,0.0939147769220815
30.208255999999995,1.417186402037694,0.0932338131665577
30.212844,1.4112025339662289,0.0924875891300725
30.217436,1.407794784523562,0.0916747619631284
30.22202,1.4046314045091863,0.090784297466237
30.226612,1.3964821133999887,0.0901693157628388
30.231208,1.385023595377119,0.0898097594066445
30.272536,1.2875449659955378,0.0894902553088149
30.277124,1.280671903108164,0.0893815893554043
30.28172,1.2726550363448508,0.0893600434064776
30.286307999999995,1.2693797112480685,0.0891419668074702
30.290908,1.266881635884788,0.0889324234154369
30.295504,1.2651608102550096,0.0887358025881271
30.3001,1.2649944840922358,0.0885561959543386
30.30468,1.2666270268247577,0.0883322110465376
30.30928,1.2699362537384296,0.0880998052416285
30.313872,1.27467779540496,0.0879220703698771
30.318476,1.2848159437573776,0.0876086758064273
30.323064,1.2999400032046171,0.0870532594244765
30.327663999999995,1.3178845507089465,0.0864202610139137
30.332259999999994,1.3368507173750686,0.0857346050383461
30.336856,1.3609249798501588,0.0847333387121184
30.341439999999995,1.389862968705925,0.0835874357846966
30.346028,1.419456022581048,0.0824718828987235
30.350616,1.4507257606373205,0.0813491245857562
30.355208,1.4848159867506827,0.080207848067109
30.359796,1.520582897045195,0.079085992958799
30.364384,1.5516082656731762,0.0781100967229238
30.368968,1.5757266695968943,0.0774347225349113
30.37356,1.5993563346640296,0.0768732120808739
30.378156,1.6211871308358696,0.0763733941665265
30.382748,1.6453055347595875,0.0757364202316795
30.38734,1.6657040161785686,0.0752185856743514
30.391916,1.6864690517399863,0.0746164569112672
30.396512,1.7072340873014047,0.0740450115202055
30.401096,1.7232575811962922,0.0736011390191752
30.405684,1.7405470636812648,0.0730721283151222
30.41028,1.7551382428232936,0.0726026381546922
30.414867999999995,1.7658873147464398,0.0722583152833107
30.419471999999995,1.7720170297172009,0.072015165823281
30.456212,1.7333311088366044,0.0719908314108822
30.460816,1.7277681759879435,0.0719230220453734
30.465404,1.7246150356053067,0.0716992819795851
30.488368,1.6869507338865042,0.0716686190426686
30.492956,1.684330473809078,0.0715092564425245
30.497551999999995,1.677990291226915,0.0714198262007129
30.502144,1.6700956091777477,0.0712991168977776
30.506728,1.6632225462903734,0.0711399764737459
30.511316,1.6563494834029993,0.0709792907607729
30.515903999999995,1.6539735927538646,0.0707608813093879
30.520496,1.65327438628588,0.0705506426581862
30.525088,1.6566616564650691,0.0701904608687075
30.529679999999995,1.6609483610919065,0.0698276469357621
30.534272,1.6654794351470354,0.0694137352365148
30.538864,1.675773670030488,0.0688547551903034
30.543452,1.6845134054469362,0.0682723498274392
30.548044,1.6958292594921829,0.0677022588072316
30.552627999999995,1.7091883518610165,0.0670750292753045
30.557208,1.7187053370109668,0.0665372836464559
30.561796,1.7283445068750631,0.0659764615145786
30.566392,1.7390052959009528,0.06535808022866
30.570984,1.7556736151834582,0.0645558673399465
30.575575999999995,1.7655571544758455,0.0639271268297131
30.580156,1.7755628784823787,0.0632749058400965
30.584755999999995,1.7841804291846814,0.0627550835350961
30.589344,1.7972951521252234,0.0622022811767283
30.593944,1.8138854281422108,0.0616499842010257
30.598524,1.8343178113780811,0.061045706856546
30.603124,1.8574484979568957,0.0604160783297038
30.60772,1.8781252506210573,0.0597839569504472
30.612312,1.8964702540847125,0.0591202359928323
30.616896,1.911872584777133,0.0585211542670689
30.621492,1.923554992964816,0.0579687504796432
30.62608,1.9352374011524995,0.0574198733855998
30.630676,1.944876571016596,0.0569346920667985
30.635264,1.953904817309964,0.0565593946633004
30.639852,1.961134194708036,0.0562027908913434
30.64444,1.9645214648872256,0.0559081100041798
30.64902,1.9717508422852976,0.0555556923019008
30.653616,1.9789802196833697,0.0552053535475896
30.658208,1.9910733234621183,0.0547747703776464
30.662804,1.9966260166790404,0.0544137199671958
30.667392,2.006143001828991,0.0539691355646204
30.671984,2.013861118083646,0.0535290057957338
30.676572,2.0181036812618545,0.0530794969395788
30.681164,2.016827453040031,0.0526692015613539
30.68576,2.01183130231347,0.0522912100029474
30.690348,2.0000503715967923,0.0520177654005577
30.69494,1.989657614184344,0.0516550459782092
30.699532,1.976977249020018,0.0513773940683963
30.704116,1.963030895265607,0.0511614863403595
30.708716,1.9538260831777263,0.0508950095199001
30.713308,1.9465423246992877,0.0506014971039095
30.717904,1.9392585662208484,0.0503067236300286
30.72248,1.932996426904203,0.0499903660465652
30.72708,1.9286553411969989,0.0496517807536136
30.731672,1.919572713823264,0.0493576637658392
30.736272,1.9115117056113224,0.0490354266716718
30.74086,1.900752394056437,0.0487132546430774
30.74546,1.889093648053905,0.0483877591156667
30.750044,1.875636033156076,0.0480635144422454
30.754632,1.868352274677637,0.0477597335142891
30.75922,1.8562047898185212,0.0475177224143517
30.763808,1.8456118044264105,0.0473180338707299
30.7684,1.8357960687678017,0.0471369763563347
30.772992,1.829578070899784,0.0469547740710203
30.77758,1.8261805610888564,0.0467490001943179
30.782167999999995,1.823804670439722,0.0465151131456794
30.786748,1.8152990648198253,0.0464175305786335
30.791344,1.8058940247522823,0.0463194129217385
30.8143,1.7221244364068866,0.0463146114408713
30.851047999999995,1.5069593754393869,0.0463045353463149
30.855636,1.47470192003821,0.0462096290015466
