Time,Force,Position
38.076968,1.1362011837658337,0.1260956915214716
38.08156399999999,1.1552997747778402,0.1252536877698018
38.086156,1.1728438663228429,0.124479848926347
38.090752,1.1998268997522783,0.1226312198535226
38.379952,1.2909077825496569,0.121859167686788
38.38454,1.3035881477139828,0.1215978998135514
38.38913599999999,1.318966816221253,0.1212238014961676
38.393728,1.335733658032753,0.120684774519602
38.398324,1.349924381215455,0.1202351318177346
38.40291199999999,1.3642372891123036,0.1197336054512453
38.407504,1.3764628172369366,0.1192046867048512
38.412092,1.3882776497705045,0.1185881840596788
38.41668,1.403401709217744,0.1176865331806408
38.421288,1.4190145075215663,0.1166845563778834
38.425876,1.4362598485579103,0.1154407701896966
38.430472,1.4512956251078934,0.1142037583176472
38.43505999999999,1.4648990869050185,0.1129483897460886
38.439648,1.4742497458921948,0.1118575139564514
38.444244,1.4816793512699304,0.1108774192987387
38.448824,1.4931954332948398,0.1096688589738415
38.45342,1.4990705392055708,0.1087188569716545
38.458004,1.512341348677148,0.1072400779687949
38.462604,1.52855483091996,0.1055833173183387
38.467184,1.546689366772213,0.1038361393136148
38.471788,1.5639244681768183,0.102149410715634
38.47638,1.579893580991339,0.1006461249628487
38.480976,1.5896888373864704,0.0993500712676052
38.485568,1.595519801848573,0.0982767974136415
38.49016,1.604171254367765,0.0970759966082617
38.49476,1.6112682074199531,0.095857356231598
38.499344,1.6173435413103472,0.0946996682480633
38.503944,1.6288154818866285,0.0934329431731146
38.508536,1.6336248271869378,0.092449033438724
38.51311199999999,1.631893761925421,0.0917016703778732
38.517708,1.628119458340317,0.091068401185565
38.522296,1.6248780350604235,0.0904960177282447
38.526884,1.6185717542951497,0.0900853116901064
38.531476,1.6111216696539368,0.0897602644788084
38.536064,1.6068586272122505,0.0892248334630352
38.540656,1.5967102392280936,0.0889679357086292
38.545244,1.5915477623387588,0.0884532854146322
38.549836,1.578701071011659,0.0882563635699306
38.554432,1.5649549452369111,0.088072590817885
38.559008,1.550065015586224,0.087966693213557
38.563608,1.533498401754387,0.087870961730637
38.568188,1.514600038722043,0.0877432811293415
38.57279199999999,1.497256175156704,0.0876398923840555
38.577376,1.480689561324867,0.0875543390868915
38.58196,1.46412294749303,0.0874572859617004
38.586556,1.4512762561659298,0.087224978337793
38.59114399999999,1.4402284337341258,0.0869420893124846
38.59574,1.4225180160263493,0.0868915111680999
38.60032,1.40852752082331,0.0867275707389488
38.60491999999999,1.4046751739726886,0.0862649076686898
38.609504,1.4044205649126584,0.0857251457529466
38.614104,1.401223283081393,0.085300415856073
38.61869599999999,1.4054658462596024,0.0846428879457725
38.623292,1.415227200837844,0.0838385179694232
38.62788,1.4214349590741224,0.0833160656232458
38.63247199999999,1.432017704834495,0.0827227773602509
38.637072,1.442111711738285,0.0822624303977625
38.641664,1.460178443956759,0.0816606320362432
38.646252,1.4796774909280923,0.0811230159167024
38.650844,1.501997025956515,0.0805201792846681
38.655432,1.5264039407571526,0.0799948669179041
38.660028,1.5519988008823578,0.0795714566083687
38.664616,1.582457387388239,0.0789868225595621
38.66920399999999,1.616758081113003,0.0782806653468437
38.673796,1.6537570781807105,0.0775705846949556
38.67837599999999,1.690389521105981,0.076980503028116
38.68296,1.7286986482124016,0.0764170415673891
38.68754,1.7659861561570287,0.0758719146363653
38.69212399999999,1.80482816356866,0.0753611212189677
38.696736,1.8381513795802584,0.0750184012354822
38.70132399999999,1.8695535419824163,0.074749765042182
38.705912,1.908639918822339,0.0742789900304441
38.710496,1.9449058076051724,0.0739021204737633
38.715096,1.9774517738832689,0.0736184596534808
38.719692,2.012163163199098,0.0732257510174866
38.72427999999999,2.043521184152628,0.0728428215329496
38.728888,2.0750013898203026,0.0724399209916994
38.733476,2.100840619373799,0.0721598862455389
38.738072,2.1268020336414413,0.0718652052858651
38.742664,2.149820775137848,0.0716550730772209
38.74726,2.1743498746526315,0.0713297155316548
38.751848,2.201943831652795,0.0709131225347386
38.756448,2.228516169491165,0.0705568000486484
38.76103199999999,2.252268019272446,0.0702595082721433
38.76562799999999,2.27229994654899,0.0700286323891346
38.770216,2.292698427967971,0.069747625620034
38.774812,2.305657064377478,0.0695684153880258
38.7794,2.3232350577393706,0.0693259264225671
38.783992,2.341301789957845,0.0690158617824981
38.78858,2.3591241527480284,0.0687443699155347
38.793172,2.374248212195268,0.06849640181956
38.797764,2.3839756649566204,0.0683063950201182
38.802348,2.392803683270325,0.0681251050719797
38.80693599999999,2.400854451850527,0.0679324388591076
38.811528,2.4081279706972274,0.0677302699354609
38.81612,2.414379870382135,0.0675523088397501
38.82071199999999,2.4198545203335398,0.0673644350014167
38.825304,2.4276167780368225,0.0670861834856287
38.829892,2.431004048216012,0.0668257520843156
38.834484,2.4336140686616985,0.0665523637008695
38.839068,2.4334036010502973,0.0663217968770878
38.843656,2.429473210934158,0.0661399595665641
38.84826,2.420024029417986,0.0660183547822683
38.852848,2.4109414020442514,0.0658388260428942
38.85743599999999,2.3983832215940706,0.0656654338480982
38.862036,2.3812056841915057,0.0655412946198949
38.866628,2.3728561651026445,0.0652415674199835
38.87122,2.3592322240420422,0.0649610819938368
38.8758,2.343565044657853,0.0647278033394191
38.8804,2.3262211810925137,0.0644881875273596
38.88498,2.3116978055842634,0.0642092924026914
38.88958,2.2959084414859285,0.0639910741763405
38.894172,2.2812628812635327,0.063726685060967
38.898768,2.265595701879344,0.0634846494139064
38.903352,2.252993379980535,0.0631648465640456
38.907948,2.244233165300609,0.0627838806778847
38.912536,2.2366167544966227,0.0623596635210664
38.917128,2.225280421187898,0.0619697970933656
38.92171999999999,2.2175418256697657,0.0615565120699867
38.926308,2.210047599579925,0.0611014148453341
38.930896,2.205373861547173,0.0606143468898507
38.935488,2.2028655465521534,0.0600617999381443
38.940072,2.202400469880722,0.0594539774416036
38.944664,2.203367707962148,0.0589002061556644
38.949256,2.209609368015316,0.0583365451024981
38.953836,2.219204396430784,0.0577893553460614
38.958432,2.2249573176273696,0.0573102281952422
38.96301999999999,2.235451780490485,0.0567773836932045
38.967604,2.2468456778012493,0.0562457412017523
38.972188,2.260282813435601,0.0556679159481808
38.976776,2.271921080174656,0.0550991303075403
38.981368,2.2884230732943864,0.05446261550618
38.985964,2.303781262538179,0.0538722715938424
38.99056,2.320161070943765,0.0532542134837736
38.995164,2.334375456311618,0.0527147188147093
38.999764,2.345769353622382,0.0522062492809182
39.004364,2.356796696790708,0.051759319089809
39.008956,2.3712995930354808,0.0513207767221918
39.013556,2.3868241084420463,0.0508720015938202
39.01814399999999,2.401982069706176,0.0504751230418612
39.022744,2.414974607932572,0.0501391980099399
39.027332,2.427600592016531,0.0498622944134338
39.03192799999999,2.443824313891082,0.0495882775993124
39.036512,2.4555508635273933,0.0493175593133093
39.041112,2.4675217825919966,0.0490184676810653
39.045708,2.479981440513182,0.0486553397014833
39.05029999999999,2.4920745442919303,0.0483443757178422
39.05488,2.5011027905852985,0.0480891720816396
39.05947199999999,2.50808779855508,0.0478683221095231
39.06406,2.5167494907060104,0.0476673432171835
39.068656,2.5264328020187348,0.0474510169739124
39.073244,2.5334178099885154,0.0472389649506583
39.077828,2.5386039490630004,0.0470247362795593
39.082416,2.5454667723186355,0.0468283404984106
39.087012,2.5493869228030355,0.0466633053850215
39.091604,2.5549837574685856,0.0465161877560661
39.096192,2.5568606696293994,0.0463826192159073
39.100784,2.5587375817902127,0.0462500022224572
39.105372,2.558693440341584,0.0461341387301236
39.109964,2.5605703525023977,0.0460028320464791
39.114548,2.563713253253296,0.0458235326364541
39.119136,2.5660789042706917,0.0456281664889198
39.12374,2.5634586441932656,0.045495332580357
39.128328,2.5645583066205764,0.0453479497368555
39.132916,2.5629596657049443,0.0451988173885946
39.137508,2.557274548142137,0.0451095906029213
39.142096,2.5518338000076217,0.0449876752976908
39.146688,2.548191920768403,0.0448679310074235
39.151284,2.5409523037385915,0.0447417906548822
39.15588,2.529093329756396,0.0446260199517962
39.160464,2.5187888552412043,0.0445454079271857
39.165064,2.5052973385264865,0.0445274472151498
39.169652,2.4928274409735622,0.0444924442281065
39.174252,2.4776592400776947,0.0444533104058645
39.178844,2.4606921702865305,0.0444124721217108
39.18344,2.44307003547601,0.0443332048693106
39.188024,2.4265917045414302,0.0442178268325277
39.192616,2.4036951477591684,0.0441087957878412
39.197204,2.377078668472169,0.0440076898661631
