Time,Force,Position
33.720336,3.4086843347449105,0.1228135046351304
33.724928,3.5288017289270504,0.1225242764152077
33.72952,3.6351390955175527,0.122457418771529
33.734104,3.7376682567060615,0.1222735923533057
33.738684,3.8316918122746753,0.1222334186826657
33.74328,3.920807500013984,0.1222041647267005
33.747864,4.014987142113632,0.1219100247675695
33.752456,4.101682797755179,0.1217329538180796
33.757048,4.1820382708145605,0.1216065837037687
33.761628,4.265903198767279,0.1212701418207922
33.76622,4.348536039946801,0.1208065518778341
33.770808,4.424173633524805,0.1203874923519919
33.775396,4.493426903072016,0.1199626116352835
33.81672,4.788310359288067,0.1198644508702421
33.82132,4.799558409699534,0.1197957755626369
33.825908,4.808186200033576,0.1196948844830018
33.830508,4.815459718880275,0.1195167966326987
33.835104,4.826487062048602,0.1191436163966981
33.839692,4.831174222634767,0.1188052965120489
33.844272,4.831442254248207,0.1184590823152277
33.848864,4.831666144413021,0.1180529407045389
33.853452,4.822607179224438,0.1177366955290611
33.858048,4.81170520369193,0.1173846194867068
33.862636,4.799737467549,0.1169940545002217
33.86722,4.786337416653211,0.1165960849301643
33.871812,4.772893224308794,0.116134540199111
33.876408,4.757606021620455,0.1156367805021626
33.880992,4.7429297425028425,0.1150831110181548
33.885584,4.729275082547023,0.1145018772182572
33.89018,4.716642041753,0.1138911859081147
33.894768,4.704619924529703,0.1132239707212754
33.899368,4.6892444389441055,0.1125806342218929
33.903944,4.669782476711333,0.1120285986026343
33.908532,4.650076145050272,0.1114949810422524
33.913128,4.621786164503796,0.1111191744707817
33.917716,4.593251814529029,0.1107621983082729
33.922324,4.566271964021267,0.1103969133669913
33.926916,4.533939648276245,0.1101665910198377
33.931504,4.501118593674641,0.1099779414509384
33.9361,4.4717730921494825,0.1097464581884263
33.940696,4.438585483405442,0.1095858568857708
33.9453,4.407729623861908,0.109418126588205
33.949892,4.381248751842466,0.109191699538607
33.954484,4.358243432899471,0.1089228086001254
33.95906,4.332706136776306,0.1087444355511108
33.96366,4.307335166815914,0.1086207873267862
33.968236,4.282130523018297,0.1085492478503555
33.972836,4.261833747049985,0.1084441643930338
33.97742,4.245911958605765,0.1082871655691204
33.982012,4.234365157685638,0.1080802541025642
33.986608,4.223761932661789,0.1079261888982869
33.9912,4.219743259648393,0.1077318201362531
33.9958,4.2227978775020345,0.107451771021837
34.000392,4.224997202356658,0.1072490723861331
34.004972,4.233248198916524,0.1069834083126783
34.009564,4.248328116915134,0.1066587743502102
34.014148,4.263696545790666,0.1063814746623221
34.01874,4.283073408047853,0.106087146219259
34.023328,4.311200245353228,0.1057045502167362
34.027916,4.3391268546789385,0.1054084173206242
34.0325,4.374415265748607,0.1050722291164548
34.037076,4.414367175219288,0.1047361187357274
34.041668,4.454241041424452,0.1044865817234893
34.046256,4.49313742991645,0.1043264071569976
34.050836,4.539762174294842,0.1040964868234305
34.055424,4.596402882311507,0.1037445626777896
34.06002,4.657174208423974,0.1033751929648715
34.064604,4.716312991803918,0.1030875603466943
34.0692,4.776517535794285,0.1028520598275821
34.07378,4.8361111562139225,0.1026700115151096
34.078372,4.895216037776978,0.1025238488384346
34.082964,4.957796472416478,0.1023584683681667
34.087552,5.022175775951274,0.1021831401141934
34.09214,5.090519371419099,0.1019357104074091
34.09674,5.158496412744487,0.1017236899978932
34.101332,5.224674585174579,0.1015441204025873
34.105928,5.290852757604672,0.1013655949705016
34.110516,5.359196353072496,0.1011458391934079
34.115108,5.4199779188167,0.1010320998808767
34.119704,5.489831872302903,0.1007760684681131
34.124304,5.560296749359833,0.1004873331477613
34.128896,5.629451496378049,0.1001881460429814
34.133488,5.697540482785843,0.0998604443135098
34.13808,5.7646858932973615,0.0994886836817049
34.142664,5.824347317350777,0.0991499259371468
34.14724,5.874114962480067,0.0989091525154477
34.151836,5.919096924494199,0.0986774469003776
34.156428,5.9615808111450495,0.0984034728927595
34.161016,5.998623949661385,0.0981284118930568
34.165608,6.036644565890889,0.0977912530319852
34.170196,6.077808082871288,0.0973536947734487
34.174792,6.113653036431318,0.0969143771762105
34.179384,6.142791253266747,0.0965048247665956
34.183976,6.169719905615815,0.0960888857141707
34.18858,6.195827166782753,0.095628605586512
34.193168,6.215227691225091,0.0951940525463289
34.197764,6.232663020609359,0.0947348799738102
34.202356,6.2451904821643245,0.0942887855673826
34.206944,6.256363672231946,0.0937755009531033
34.21154,6.254411899727288,0.0933454464759961
34.216132,6.244731771336238,0.0929524313773494
34.220732,6.228100536792295,0.0925956260599227
34.22532,6.205051076400671,0.0922913754864895
34.22992,6.18134655098969,0.0919765410275928
34.234504,6.161728502225885,0.0916027264007194
34.239104,6.14182194258516,0.0911937425417045
34.243688,6.121260317925078,0.0907733558172265
34.248288,6.10057650855085,0.0903587207090771
34.252884,6.078093830281326,0.0899535552312638
34.257476,6.050869610345272,0.0895947303139271
34.262064,6.016860610419101,0.0893094372721258
34.26666,5.978520764417464,0.0890945886239877
34.271244,5.944678090654066,0.0888454784788214
34.27584,5.911857036052462,0.0885795194531303
34.280428,5.876093308679623,0.0883445336995052
34.285012,5.8429056999355815,0.0880969947802187
34.289604,5.80947372176325,0.0878628939378341
34.2942,5.780416731115011,0.0876040203286652
34.298788,5.753202750810696,0.0873800420754687
34.303384,5.729097769440389,0.0871617042521775
34.30798,5.709123406165886,0.0869358270763857
34.312556,5.698387756796151,0.0866338378165474
34.317148,5.697013006045332,0.0862493717657123
34.321736,5.69964668867617,0.0858698025681043
34.326316,5.703468316631575,0.0855211272829781
34.330928,5.713752311883289,0.0851766300402749
34.335516,5.728944174964307,0.0848325061335383
34.340112,5.74736722169348,0.0844921129825706
34.3447,5.775439677918488,0.0841119747234924
34.349284,5.81262866333412,0.0836774938309691
34.353884,5.859467058245588,0.0832052487718045
34.358476,5.916199232081182,0.082679331197635
34.363068,5.976284774279075,0.0821612737605756
34.36766,6.038457696249184,0.0816741567504552
34.372248,6.106193551067953,0.0812007211213886
34.376828,6.181902131201408,0.0807024024301119
34.381428,6.266482871097193,0.0801773071585716
34.38602,6.351352121869899,0.0796939833220868
34.390616,6.445337901833231,0.0791721425272362
34.3952,6.5442315496258665,0.0786548418402249
34.399796,6.649299053837892,0.0781270587297792
34.404384,6.751057331136244,0.0776599452499789
34.408976,6.852082500149724,0.0772482507377144
34.413568,6.950164996391968,0.076865794137738
34.41816,7.050168546243652,0.0764782204081379
34.422748,7.151315899971277,0.0760851610086044
34.427332,7.254506492022489,0.0756839409584878
34.43192,7.360639756844935,0.0752701611478335
34.436508,7.463952533610293,0.0748856045826658
34.4411,7.564977702623771,0.0745458108889048
34.44568,7.663548937722599,0.0742148042916373
34.45028,7.756967935563829,0.0738990732546537
34.45486,7.847033565042759,0.073592930993118
34.459452,7.936566314216479,0.0732778916821507
34.464036,8.024256053046276,0.0729366990318469
34.468628,8.104994685723181,0.0726155821039067
34.473216,8.176983343351898,0.0723186996135873
34.4778,8.249050044246133,0.0719858937233091
34.482388,8.309546282035091,0.0716877746638584
34.486984,8.36946549807021,0.0713459047933389
34.491572,8.420101858751934,0.0710093638922925
34.496176,8.468773024375587,0.070649740152931
34.500756,8.512003441864723,0.0702720580746814
34.505356,8.556211337067026,0.0698537978690408
34.509944,8.593834680258873,0.0694310651839626
34.514548,8.625772905887914,0.0690025367592957
34.51914,8.648061722021119,0.0685898916128915
34.523736,8.662866551696224,0.068173490660912
34.52832,8.669410145179723,0.0677465465943365
34.532912,8.666138003004612,0.0673020414764142
34.537504,8.65346082076196,0.0668576702007628
34.542096,8.634976336242355,0.0664037491662217
34.546688,8.610440180017505,0.0659511302029161
34.55128,8.578420037334554,0.0654870462289718
34.555868,8.538427169336916,0.0650309497110718
34.560456,8.495325302405272,0.0645572974609056
34.565044,8.44629394848253,0.0640743017960318
34.569636,8.389167684530955,0.0636024023717457
34.574228,8.332774528864256,0.0630927546894723
34.578832,8.266121040130994,0.0626114297602222
34.583424,8.196647063340642,0.0621332470151047
34.588012,8.127295271264435,0.0616444531355924
34.592608,8.05626679500708,0.0611462255298028
34.597196,7.980741146511481,0.0606487328246367
34.601788,7.905992747749388,0.0601483584846065
34.606384,7.8247039384254675,0.0596596368036642
34.610972,7.74840104019637,0.0591345463044708
34.615568,7.668666730339455,0.0586384722170171
34.620156,7.593185223292487,0.0581396937168121
34.624744,7.522733768788969,0.0576422242537418
34.62934,7.456168562952962,0.057160266478559
34.63394,7.39757608243164,0.0566686731566066
34.638532,7.341437535824971,0.0561790645077756
34.643112,7.289185237885811,0.0557066403454955
34.647712,7.245927284423131,0.0552199186923661
34.6523,7.204756710732665,0.0547544447072441
34.6569,7.173768426843247,0.0543041093941024
34.661484,7.144745338011897,0.053880596214856
34.666084,7.120630117009852,0.0534739642152805
34.670676,7.107185924665435,0.0530619629213455
34.675272,7.101592272921558,0.0526538138742131
34.679856,7.096409316768746,0.0522679823030916
34.684452,7.09805528205468,0.0518952317529558
34.689048,7.106407984065214,0.0515420865291552
34.693648,7.122611226676288,0.0511994297192165
34.698236,7.149363313230844,0.0508624750625413
34.702832,7.17861347514868,0.0505789747019972
34.70742,7.218779035152436,0.0502861637217975
34.712008,7.266017886023229,0.050001148195152
34.716596,7.315344116666237,0.0497451066985778
34.72118,7.374930680375808,0.0494735882730506
34.725772,7.4339063205146525,0.049234360836894
34.730364,7.498156382625237,0.0490024240515205
34.734964,7.567680866707564,0.0487775834040919
34.739552,7.640436534438045,0.0485749970287183
34.744144,7.719488243302061,0.0483750440499304
34.748732,7.800583190489664,0.0481688615862758
34.75332,7.8909168515820385,0.047953389124346
34.757928,7.97986233937018,0.0477629615114462
34.762504,8.06496571993944,0.0475864650906225
34.767108,8.148148046899259,0.0474177244427759
34.771704,8.23288487332608,0.0472609507436503
34.776292,8.31353522310573,0.0471266205173749
34.780884,8.389566215932993,0.046999204403031
34.785476,8.455991940713048,0.0468978154299142
34.79008,8.523561469369044,0.0467898622043001
34.794656,8.585978760767443,0.0466714384449152
34.799256,8.640956207156368,0.0465634447868795
34.803844,8.686328385498086,0.0464799918601855
34.808448,8.731167683534595,0.0463820369687742
34.813036,8.763947779609246,0.0462987789923763
34.817636,8.790309649836216,0.0462191285169044
34.822232,8.810131109501356,0.0461486100699664
34.826824,8.819159355794724,0.0460761237512789
34.831408,8.812286292907348,0.0460251504517273
34.836004,8.793354028058117,0.0459866091629117
34.840592,8.76134094208523,0.0459649319757894
34.845188,8.71661358913113,0.0459447636155315
34.849776,8.661992457252902,0.0459220455279014
34.854364,8.601075284241139,0.0458968151823727
34.858952,8.532962635648195,0.0458686432226745
34.863536,8.456755077026418,0.0458380064675009
34.868124,8.370775924194662,0.0457992965953763
34.872712,8.277479111067578,0.0457624864644108
