Time,Force,Position
36.910824,2.9757262694127062,0.1534321162885751
36.91542,3.1725406519399244,0.1526510864108576
36.920008,3.3628824275390947,0.1518815014677842
36.924604,3.549283573390388,0.1508224947013252
36.929192,3.729456481741924,0.1495084206570104
36.93378,3.89457313428,0.1486464643918053
36.938368,4.0497416268135815,0.1477744286691728
36.942964,4.194473220486089,0.1469584788334053
36.947556,4.324637297201718,0.1463245808580773
36.952152,4.435736684722232,0.145927373372541
36.956744,4.532879478856596,0.1455517924361293
36.961324,4.615943494890662,0.1451836823078223
36.96592,4.688282101186731,0.1447270812635889
36.970508,4.749895297744807,0.1442146167587813
36.975104,4.798862030955445,0.1437082679025523
36.979696,4.837059212979459,0.1430909050622623
36.984288,4.870504613705204,0.1424104981101066
36.98888,4.899442602560969,0.1416496321748633
36.993472,4.920764180612748,0.1408312864684621
36.998068,4.930138501785075,0.1400931047320905
37.002664,4.935093693984681,0.139387369548623
37.00726,4.929455900792176,0.1388107493987394
37.011864,4.916744816732634,0.1383605756185915
37.016452,4.89340684546409,0.1381611060221911
37.021056,4.867859309709187,0.1379660306302016
37.025636,4.838714036163693,0.1378400296918485
37.030236,4.809324393189906,0.1377334774017005
37.034824,4.781078554092057,0.1375849225967167
37.039424,4.751566726404122,0.1374852385257981
37.044004,4.73092705847852,0.1372257174046471
37.048604,4.711763846754406,0.137024167510366
37.0532,4.696242514269511,0.1368150428932528
37.057796,4.68346362657619,0.1366159936718661
37.062392,4.675103867855589,0.1364027873638836
37.066984,4.674228095593091,0.1360909287854136
37.071584,4.675361659837292,0.1358550072366358
37.076172,4.6754736049196985,0.1356496508888785
37.08076,4.67072182362143,0.135561090552941
37.08536,4.663926803999573,0.1355266459155522
37.089948,4.6616289566159566,0.1354105971028504
37.094536,4.656388436461104,0.1353644165309383
37.099128,4.656955218583204,0.1352492723066654
37.103724,4.65985374990581,0.1351178496041245
37.108316,4.668926137647807,0.1348792868370415
37.112896,4.6818847740573135,0.1346173671094383
37.117492,4.701794516619711,0.1342464802093696
37.122072,4.723258758649116,0.1338678350408929
37.126656,4.745255880983729,0.133512048121658
37.131244,4.770362002252352,0.1331344881900944
37.135824,4.791259462159654,0.1328835953920009
37.140432,4.816776279019342,0.132548641433768
37.145024,4.842415280593174,0.1322052246053153
37.149616,4.873695258281186,0.1317498145933316
37.154208,4.905463974825779,0.1312593598166579
37.1588,4.9297928463609,0.1309112866209145
37.163396,4.957675314237983,0.1304497764337948
37.167988,4.983514543791479,0.130042159837392
37.172584,5.009475958059122,0.129621707647017
37.177176,5.035193002898472,0.1292204563197833
37.181776,5.058211744394879,0.128870407869329
37.186364,5.084950408396024,0.1284560427598517
37.19096,5.111811257111313,0.1280393694291909
37.195552,5.1371176063596,0.1276279174467112
37.200152,5.163934313626261,0.1271560904499235
37.204748,5.18379991474003,0.1267775910881499
37.20934,5.200434332205647,0.1264299615116819
37.213932,5.216413684651907,0.1260792323207833
37.21852,5.232515221812312,0.1257230771602804
37.223108,5.246651563914647,0.1253490010367741
37.227704,5.259233406549978,0.124981483378678
37.232296,5.266785196641859,0.1246687231618919
37.23688,5.277524028933267,0.1242823705462237
37.241472,5.285931112024167,0.1239109081190518
37.246052,5.291517707057978,0.1235885592458106
37.25064,5.305687950977203,0.1231156386907985
37.25522,5.318592206306343,0.1226907493093766
37.259816,5.330841396616126,0.1222582645589541
37.264408,5.34476727110706,0.1218109000658166
37.269004,5.359470395331496,0.1213592110812731
37.273588,5.37392915012764,0.1209272052623945
37.278176,5.384667982419046,0.1205566124712436
37.282784,5.3934857611010125,0.1202220348467688
37.287372,5.408721765630659,0.1197978025195196
37.291964,5.423957770160305,0.1193797698171708
37.29656,5.445612000537633,0.1188710031742945
37.301148,5.470208903686196,0.1183162338159392
37.305748,5.495949610710697,0.1177383008412191
37.31034,5.520913068001696,0.1171684542876309
37.314944,5.549474263083286,0.1165606830025716
37.319524,5.579301446754961,0.1159152077280692
37.324124,5.609006445712491,0.1152773562992389
37.328712,5.636546021632288,0.1147001339505027
37.333308,5.663186163104436,0.1141382321221019
37.337896,5.695711650119056,0.1134879186227218
37.342488,5.7216967265718495,0.1129335889500896
37.34708,5.744983499681698,0.1124118526526128
37.351672,5.773011814458078,0.1118287167108479
37.356264,5.802428302538688,0.1112078541598577
37.360856,5.837197255856558,0.1104896904502276
37.365456,5.874131632212159,0.10973242903997
37.370056,5.912209812443701,0.1089497602635653
37.374648,5.953352850160622,0.1081227199374006
37.379244,5.989099281191658,0.1073614120047004
37.383828,6.024723527508546,0.1066183046117417
37.38842,6.061491577701374,0.1058653824541294
37.393012,6.097115824018263,0.1051489492218623
37.397604,6.131840635887504,0.1044490976595068
37.4022,6.169508120527979,0.103719897058293
37.406792,6.207053420454308,0.1030107365732293
37.411384,6.247174839009436,0.1022932700510633
37.415972,6.294081037554682,0.1015026906497638
37.420564,6.337511683023482,0.100737213011562
37.425152,6.382374643245141,0.0999846786045799
37.42974,6.420208454048391,0.099336986625584
37.434336,6.4645826754134665,0.0986293504389458
37.438924,6.513576253730928,0.0978843766168114
37.443532,6.555785052058272,0.0972226386196843
37.448112,6.597627296243178,0.096591605845487
37.4527,6.631663141276173,0.0960591497901188
37.457292,6.664677367147374,0.0955463588684979
37.461884,6.701944395828523,0.095021889879598
37.46648,6.736923816757794,0.0945454112330298
37.471068,6.777422029087098,0.0940296881626135
37.475668,6.818697491149905,0.0935216268396493
37.480256,6.857929714889123,0.0930491210176283
37.484856,6.8951187003047565,0.0926055325467335
37.489444,6.934639434920895,0.0921706799720724
37.494044,6.96892988901392,0.0918099427278875
37.498632,7.002198723945153,0.0914666973563705
37.503228,7.035345374162239,0.0911355704522535
37.507816,7.062606678836855,0.0908702082071281
37.512408,7.093343536587917,0.0905906329089922
37.517,7.127267436538505,0.0902741955057733
37.521592,7.170019354802798,0.0898761381833814
37.526184,7.210972404171795,0.0894972919283532
37.530768,7.250248769359643,0.0891285521133013
37.53536,7.299374772022988,0.0886713545921225
37.539956,7.346701905791037,0.0882266273606273
37.544548,7.401713253996853,0.0877228338765131
37.54914,7.456724602202668,0.0872231463876233
37.553736,7.504784844255592,0.0867525196077423
37.558324,7.5542332596127455,0.0862568864606582
37.562924,7.602127175502895,0.0857688166084453
37.567504,7.647811526906684,0.0852748230176108
37.572096,7.692840813291117,0.0847781654548738
37.57668,7.738358838532132,0.0842590298760946
37.581272,7.78215603814337,0.083712140973199
37.58588,7.825786911591832,0.0831315491901554
37.590468,7.865287166944493,0.082554895273075
37.595056,7.89987955446785,0.0819811783409721
37.599652,7.931118573628906,0.0814097991553838
37.60424,7.9610474627512495,0.0808261679185523
37.608836,7.982759257130616,0.0802870988432645
37.613432,7.996253956767007,0.0797941605661653
37.618024,8.001653746374568,0.0793344083601357
37.622604,8.00447741735333,0.0788812498144982
37.627208,7.997162939979672,0.0784819495603577
37.631788,7.992380439786188,0.0780416073476692
37.636388,7.980035909869081,0.0776474762136351
37.640984,7.965115261323179,0.0772572797413405
37.64558,7.956979392767392,0.0768205033500902
37.650176,7.943446917525718,0.0764026886451583
37.654768,7.924273466169868,0.0760155570918258
37.659368,7.900236288433341,0.0756594956565762
37.663964,7.871579753744428,0.0753234200736241
37.668564,7.843045403769661,0.0749801467749219
37.67316,7.809280773271781,0.0746845168686281
37.677752,7.779602619421075,0.0743514624869477
37.682352,7.750046650284514,0.0740095032056349
37.686944,7.719469061986161,0.0736728219026794
37.691528,7.694532449801986,0.0733050759157482
37.696116,7.668696403170163,0.0729385558177519
37.700712,7.645803029309574,0.0725491677807546
37.705304,7.620211352106042,0.0721647034570293
37.709896,7.600138466302543,0.0717544387137551
37.714492,7.576345657994306,0.071358132367767
37.71908,7.559215444962042,0.0709233934260525
37.72368,7.54094142805384,0.0705035892806573
37.728268,7.526509518364517,0.0700604411085614
37.73286,7.518984573379461,0.0695717939404682
37.737456,7.502509425366552,0.0691453825174
37.742044,7.489509830430091,0.0687129535803482
37.746648,7.478553473817216,0.0682619579662585
37.751228,7.475281331642106,0.067767819196871
37.755832,7.478427415314677,0.0672515511355324
37.760428,7.478386456787722,0.0667642717229797
37.765016,7.482964855213152,0.0662585053182964
37.769612,7.484111842010764,0.0657960630478656
37.774204,7.489511631618324,0.0653347652650942
37.778804,7.503006331254715,0.0648563155298527
37.783396,7.516256661462815,0.064393229374121
37.787996,7.531061491137919,0.0639391465627162
37.792576,7.547298635565881,0.0634997704356019
37.79718,7.57060907086088,0.0630514700999457
37.801768,7.596495624784678,0.0626069216356867
37.806364,7.62867821984201,0.0621497123311677
37.810952,7.657429403271525,0.0617361084458109
37.81554,7.681849740625574,0.0613634321260813
37.820128,7.709867815770214,0.0609891339906651
37.824724,7.730734556782302,0.060668574855541
37.829312,7.758386077784505,0.0603145282695402
37.833908,7.785915414072563,0.0599673647366341
37.838496,7.815776499561127,0.0596348715734803
37.843084,7.842206173421876,0.0593427614198695
37.847676,7.864671555349594,0.0590745232892259
37.852272,7.896620020610373,0.0587739642652705
37.856864,7.925625813099919,0.058488898043562
37.861456,7.954509420875318,0.0582093324453346
37.866052,7.983148659222427,0.0579431392966134
37.870632,8.009866843960094,0.0576890444356741
37.875232,8.03376454064067,0.057445100004205
37.879812,8.057540052607102,0.0572081261429037
37.884404,8.085279856506563,0.0569542219599553
37.888992,8.11391909485367,0.05670285560022
37.893572,8.139615660429543,0.0564666185485984
37.898164,8.16633384516721,0.0562271059834697
37.902752,8.193174214619024,0.0559830032778994
37.907344,8.225777744899158,0.0557182913218352
37.911936,8.249797626293883,0.0554832113384854
37.916516,8.275860746012192,0.0552362891480697
37.921116,8.298981192959268,0.0550035655910796
37.925708,8.324922127963431,0.0547651571848825
37.9303,8.348164759624652,0.0545299844660043
37.934884,8.372673379875959,0.0542795199773059
37.939484,8.398325804003203,0.0540185667764975
37.944076,8.413717895063884,0.0537822163387458
37.948672,8.432952093343449,0.0535337344690033
37.953256,8.453330095498952,0.053274799145587
37.957852,8.47215359818745,0.0530080778021397
37.962444,8.485458309475918,0.0527504327238007
37.96704,8.495043098259645,0.0524986304524022
37.971628,8.503850637309874,0.0522429945788236
37.97622,8.502153473865246,0.0520180669186953
37.980808,8.492117030963497,0.0518071025080121
37.985404,8.482691511632478,0.0515705774150461
37.989992,8.469546069796717,0.0513408716887362
37.994588,8.456522812675106,0.0511058962224385
37.99918,8.437447883848249,0.05086239383035
38.00376,8.418495139735539,0.0506116740411371
38.008352,8.3955781036898,0.0503760573432076
38.01294,8.369962764301118,0.0501395282964059
38.017532,8.337029764617107,0.0499088066337118
38.022128,8.29947740798071,0.0496820561584417
38.026712,8.259226748001371,0.04945436048869
38.031324,8.215256165517294,0.0492303353001865
38.035912,8.171163398319072,0.0490088447789009
38.0405,8.11668811334014,0.0488074950223834
38.045084,8.059270155589974,0.0486150101854694
38.049684,7.997355025601569,0.0484196180338894
38.05428,7.929432365356547,0.0482492952029059
38.05886,7.864330193168617,0.0480707237067547
38.063452,7.7906443720952705,0.0479116829928704
38.06804,7.719779039079014,0.0477448398385226
38.07264,7.645848848577377,0.0475929577519309
38.077228,7.565544573676688,0.0474833734750282
