Time,Force,Position
38.765992,2.523053369718928,0.1540258629551015
38.77058,2.657867522282157,0.1536600955443758
38.775188,2.79344868494715,0.1526996653469156
38.77978,2.9203918176463626,0.1516666330858304
38.784384,3.0301132714943813,0.1512260151591397
38.78898,3.1352831720237937,0.150501854246192
38.793576,3.2275622397774786,0.1498954364027748
38.890004,3.6364750245985817,0.1498435208731129
38.894584,3.65939206064432,0.1497810839278571
38.899176,3.685418095624069,0.1496800458747778
38.903768,3.712343565051464,0.1495552902473564
38.908352,3.73980191478407,0.1494363734717582
38.912944,3.771513067326625,0.1492240786260253
38.91754,3.798482678202649,0.1491614154690149
38.922124,3.832114884354645,0.1488965030741895
38.92672,3.869711382439669,0.1485157253254649
38.931296,3.909639629725199,0.1481255116564108
38.9359,3.949079138154147,0.1478013809527655
38.940484,3.994159622697274,0.1473194894062915
38.945084,4.035153630593227,0.1469698660164816
38.949672,4.080111930422207,0.1464871994555699
38.954268,4.127357838003066,0.1459112315950908
38.958852,4.174481560869779,0.1453658564718674
38.963436,4.224670141221873,0.1447304905155322
38.968028,4.276002525449907,0.1440642184022461
38.97262,4.324103726029786,0.143439046256989
38.977208,4.372038600446891,0.1427806289754102
38.9818,4.41764172566349,0.1421782598569033
38.98638,4.459891482517788,0.141652747673477
38.990972,4.503118717085252,0.1410465614252325
38.99556,4.54593525606165,0.1404178112276324
39.000152,4.597046933046542,0.1395561790741596
39.004744,4.648525164173872,0.138677275459538
39.009324,4.704089871948376,0.13768545999503
39.01392,4.757567199950665,0.1367288031809334
39.0185,4.8038490523717705,0.1359210180819516
39.023084,4.847021905858866,0.135150711581743
39.02768,4.887330129840247,0.1343832603861361
39.032256,4.923507735725824,0.1336725250729726
39.036844,4.9664259801528905,0.1327541603967354
39.04144,5.010077332864831,0.1317925018304104
39.046036,5.052785109680496,0.1308057811931679
39.050644,5.09160663782865,0.1298464379702566
39.055236,5.126297547881002,0.1289418029983944
39.059828,5.156735655123406,0.1280943527478841
39.064408,5.186763066774744,0.1272129329158119
39.069008,5.211393871740195,0.1264229357533374
39.073596,5.228418505533397,0.1257234338461677
39.078196,5.241967586250155,0.1250730220165589
39.082788,5.252696178909823,0.1244821208624092
39.087388,5.263913510426074,0.1238555010819561
39.091972,5.267935366361145,0.1233478747113867
39.096564,5.269869842523998,0.1228343874307273
39.101152,5.267795885305195,0.1223485663551551
39.105744,5.260203136686359,0.1219502659471651
39.110344,5.255919614981194,0.1214638304583152
39.114936,5.24660604073258,0.1210223561115097
39.119524,5.240357323969345,0.1205134344878659
39.124112,5.235252411082051,0.1199715940937822
39.1287,5.225039402385788,0.1195426551197696
39.133288,5.2095519717177865,0.119176286040362
39.137872,5.191532563869613,0.1188906494504301
39.142464,5.174168221040795,0.1186109677888668
39.147056,5.158480562393127,0.1183156376518176
39.151644,5.1453690223742585,0.1179931727850504
39.156236,5.137121208736065,0.117581905337818
39.160832,5.134147817069614,0.1171094717730812
39.16542,5.1351828587848205,0.1166126722702847
39.170012,5.137239519661818,0.1160922519187851
39.1746,5.138518930805315,0.1155738654374358
39.179212,5.132891377244548,0.1151842644654782
39.183804,5.128818323150786,0.1147903702459986
39.188392,5.123357095752794,0.1144467199869425
39.192988,5.120882682574665,0.1141048348123651
39.197576,5.119596214721103,0.1137861154492478
39.202168,5.114756150525577,0.1135710444359128
39.206748,5.117522257502298,0.1132887756931907
39.211348,5.1214763098035885,0.1130358484036342
39.215936,5.1264961227153005,0.1128192708673567
39.220532,5.132171000646368,0.1126101093512459
39.225124,5.14136557310251,0.1124210892778113
39.229724,5.154035698635096,0.1121972626742444
39.234316,5.169159758082337,0.1119594364830048
39.238912,5.182895644225345,0.1117719087269781
39.243504,5.200229268158946,0.1115447043614946
39.248096,5.215930349360024,0.1113894429228471
39.252696,5.230609811399309,0.1112571180366233
39.257288,5.250808064838627,0.1110571501548986
39.26188,5.275547631964812,0.1108620552191922
39.266472,5.30188584000663,0.1107174753882141
39.271064,5.337506903401845,0.1105015035320678
39.275648,5.375093161855131,0.1103130375174167
39.280236,5.414766800080631,0.1101381201284869
39.284824,5.456894372220783,0.1099566102345709
39.28942,5.504418551046824,0.1097162378555056
39.294008,5.558238771006398,0.109406008537464
39.2986,5.6118146215376825,0.1091230505555411
39.30318,5.659382941812351,0.1089412047304499
39.307776,5.711692803753549,0.1087024766007385
39.31236,5.765679349875898,0.1084531808806474
39.316948,5.823630187931276,0.1081482500392712
39.32156,5.8824804604343,0.1078419456338653
39.326148,5.94709389376565,0.1074712654731224
39.330736,6.016204499335237,0.1070595219055059
39.335328,6.080329193810004,0.1067307967187663
39.339928,6.146252757180066,0.1063912413348524
39.34452,6.212054135835982,0.1060644862843832
39.3491,6.274790657006519,0.1057980266595942
39.353696,6.334418179243047,0.1055371810949531
39.358284,6.395145363906884,0.1052083826038675
39.36288,6.458893264607475,0.1048017997508746
39.367472,6.520675970249996,0.1043783707202041
39.372076,6.587933325843921,0.1038682003406885
39.376664,6.650282813608542,0.1033800157936846
39.38126,6.7095233024391545,0.1029005629427543
39.385856,6.766798596211697,0.1024099419854685
39.390448,6.822885944659673,0.101905965814365
39.395056,6.88367069332555,0.1013074370409787
39.399652,6.933906598047946,0.1007847924805335
39.404252,6.986796664664657,0.1002075188241049
39.408848,7.034656678737917,0.0996598887857219
39.413436,7.076831575248371,0.0991276260637574
39.418032,7.107313823939403,0.0986871875303631
39.42262,7.131333705334127,0.0982602811261079
39.427204,7.157230498889662,0.0977730829921915
39.431784,7.176420555720599,0.0973110281130752
39.436376,7.194422667226968,0.0968298888766834
39.440972,7.204940792275234,0.0963703749248113
39.44556,7.216192025608375,0.0958722546643754
39.450156,7.223068271417422,0.0953994523843126
39.454736,7.221849607197638,0.0949864778671303
39.459328,7.219320812939141,0.0945590644765807
39.463912,7.205876620594725,0.0942108480321323
39.4685,7.193576232126246,0.093842611338324
39.473108,7.181764582514353,0.0934480174357881
39.4777,7.1654557606642175,0.0930812273567008
39.482288,7.1417070938046106,0.0927719384868216
39.48688,7.11411631972612,0.0924976671215484
39.491472,7.091144902600013,0.0921864933895383
39.496064,7.058690402140846,0.091957480012244
39.50066,7.024559217500529,0.0917310490287623
39.505256,6.993903585936658,0.091486921280606
39.509832,6.967867311325172,0.0912063377577796
39.514436,6.9472276433995725,0.0908909060229323
39.519012,6.924544737150386,0.0905986955851477
39.523616,6.907380622301233,0.0902656541930322
39.528208,6.8917710069190825,0.0899352654598184
39.532804,6.882579617384614,0.0895585717119411
39.537396,6.872777304279417,0.0892159679343441
39.541992,6.8671056092700224,0.0888667649721971
39.54658,6.863521294032842,0.0885350125931319
39.551168,6.861657804425441,0.0882416109789015
39.55576,6.864702182647344,0.0879425152864239
39.560352,6.870078310069753,0.0876497133464768
39.56494,6.875742948369082,0.0873869164608633
39.569524,6.888236508107156,0.0871056881066207
39.574112,6.912789269807091,0.0867425290971995
39.578696,6.940939769297617,0.0863610718397121
39.583292,6.972443637150444,0.0859774893347614
39.587868,7.015762337536835,0.0855271681127685
39.59246,7.0630894713048855,0.085081904948038
39.597048,7.1118489198257935,0.0846516675854985
39.601636,7.162817932833063,0.0842368835137924
39.606232,7.214319826145543,0.083845091203413
39.61082,7.271096141429765,0.0834388411870238
39.61542,7.330082021200346,0.0830526929239742
39.620016,7.389967335418577,0.0826685523735571
39.624604,7.453083833284963,0.0822938837269173
39.6292,7.514279277541906,0.081934204676272
39.63378,7.580338448179525,0.0815457795698888
39.638372,7.647419237978938,0.0811503123033034
39.64296,7.715110951349079,0.0807285310646046
39.64756,7.783047034147512,0.0802963996972281
39.65214,7.851105301660091,0.0798651333415525
39.656736,7.920063003620317,0.0794354011459518
39.661332,7.98938725972298,0.078999198936467
39.665924,8.054092158873258,0.0785976591748744
39.670504,8.120840296347124,0.078185330022205
39.6751,8.18729992294407,0.0777569748875368
39.6797,8.24668625867398,0.0773561515011316
39.684296,8.304762464365174,0.0769440482413983
39.688888,8.360751290284155,0.0765180314993972
39.693472,8.417595409202153,0.076059873969605
39.698056,8.470553279452645,0.0755947154687607
39.702644,8.51745947799789,0.0751438630754152
39.707232,8.559579993427977,0.0746878178599277
39.711828,8.596548271600469,0.0742400622881257
39.716412,8.629630301105449,0.0737845682269302
39.720992,8.66740973082833,0.073274313074602
39.725584,8.695295381627087,0.0727973503971525
39.730172,8.720316402920128,0.0723011237681853
39.734764,8.744149478888598,0.0717874531450523
39.739372,8.769737282303737,0.0712388319081457
39.74396,8.788618348994278,0.0706891584737788
39.748552,8.798871625350776,0.07014603956289
39.75314,8.800008372516647,0.0696322296957598
39.757728,8.795215632691423,0.0691178465445226
39.762324,8.783349601999161,0.0686163650484082
39.766916,8.764943160745073,0.0681397541972633
39.771512,8.748169262223508,0.067629206954336
39.776088,8.729840864234937,0.0671121658256648
39.780688,8.709835782065216,0.0665925453237236
39.785268,8.682513039600169,0.0660918417505184
39.78986,8.651226005202092,0.0656104713027222
39.794456,8.620061155518158,0.0651211100303
39.799056,8.587219621653077,0.064627066045012
39.80364,8.556543510825728,0.0641107887886254
39.808232,8.522924727227142,0.0636073664742556
39.812824,8.48035574060071,0.0631520802550242
39.817416,8.440851611459655,0.0626722749600267
39.822008,8.404945220109195,0.0621839941398005
39.8266,8.362009679340321,0.0617325135211042
39.831188,8.313310977743127,0.0613016273677705
39.835776,8.26796564450823,0.0608709930473668
39.840364,8.23120396015875,0.0604030424829522
39.844968,8.198650937170587,0.0598993553026253
39.84956,8.169451282544724,0.0593969178975498
39.854152,8.143849365709453,0.0588865846217909
39.858748,8.12388842498836,0.058356991741761
39.863328,8.103194375982396,0.0578582172495857
39.867924,8.081356523100487,0.057368798262563
39.872512,8.06017373523794,0.0568866922036441
39.877108,8.046186422956573,0.056395603480195
39.881704,8.04078275956062,0.0558751050201892
39.886284,8.03897683395526,0.0553517590480462
39.890872,8.041423711159846,0.0548350614168199
39.895468,8.043381849507849,0.0543389352131241
39.900056,8.048937725646443,0.0538397075005036
39.904648,8.063976685118101,0.0533130558111343
39.909228,8.080203589914325,0.052812698505021
39.913832,8.090056410311496,0.0523571274611191
39.918408,8.110047379061085,0.051884596254294
39.923008,8.136090019515917,0.0514200292464085
39.927588,8.164830963313692,0.0509564991576097
39.932188,8.188996691607713,0.0505378940463199
39.93678,8.212307126902713,0.0501563900671528
39.941376,8.237172061664717,0.0497857769944886
39.94596,8.259749388674843,0.049436766205085
39.950552,8.278118054323649,0.0491157462504453
39.955148,8.292522428039426,0.0488101113847042
39.95974,8.307337497346268,0.0485244721746221
39.964324,8.32166382779653,0.0482594255669763
39.968912,8.328961008828381,0.0480266186175528
39.973496,8.32898467101353,0.0478364956343703
39.978092,8.32287861822792,0.0476774704161764
39.98268,8.311908839061633,0.047533892672247
39.987256,8.29967307130526,0.0474052270854523
39.99184,8.284250261349362,0.0472968732778374
39.996428,8.26167611726091,0.0472241593053726
40.00102,8.232439377896483,0.0471662543302068
