Time,Force,Position
40.982948,3.905269914419596,0.1520561385381314
40.987544,3.903671273503963,0.1520006703081701
40.992136,3.8995745572250495,0.1519140781068488
40.996716,3.890159277525768,0.1518841436772883
41.001316,3.8790231721967072,0.1518137768399093
41.005904,3.870296859333671,0.1516223455451265
41.010488,3.858094993394188,0.1515116199258742
41.015084,3.853943896034908,0.1511121658022533
41.019672,3.8484826686369153,0.1507036132274256
41.024276,3.838279899572392,0.1504397954049066
41.028864,3.831141987993249,0.150061381987874
41.033452,3.8224495769471023,0.149702653434585
41.038048,3.813512796472663,0.1493706442947845
41.042636,3.80331002740814,0.1491022938950437
41.047232,3.791552758876612,0.1488516812150282
41.051828,3.7808171095068777,0.1485634670159523
41.05642,3.7778878592890544,0.1480122959462674
41.061008,3.779822335451908,0.1473049736898603
41.065608,3.78012426888224,0.1467085699583814
41.070188,3.778427105437612,0.1462571004595854
41.074788,3.777917887317551,0.1458300047804902
41.07938,3.780762037559791,0.145344462050366
41.083976,3.784916317840743,0.1448699153924678
41.08856,3.797165508150527,0.1441957585536483
41.093148,3.813545316556113,0.1434574015512554
41.097736,3.830580189981055,0.1427425251028092
41.102336,3.848025758997063,0.1420528793069885
41.106928,3.8572983747187215,0.1416507855182366
41.11152,3.8705794238220377,0.1412022160055771
41.116108,3.8890127101829495,0.1406521352046043
41.120696,3.9107993649061608,0.1400490394536088
41.125284,3.931730726630353,0.1395454283978396
41.129876,3.954749468126761,0.1390520584705377
41.134464,3.9790783396618807,0.1385732434096136
41.139052,4.0128122512645445,0.1379363058433995
41.143648,4.054396703467748,0.1371687484271451
41.148232,4.097046916281372,0.1364604066031927
41.152824,4.137287336628973,0.1358739421128558
41.157416,4.178960071729432,0.1352895299975505
41.162008,4.231792574344103,0.13446123843188
41.1666,4.286546130568215,0.1335981545907202
41.171192,4.337990459878655,0.1328677960387462
41.175792,4.391111473370245,0.1321234988495842
41.180388,4.440923259948163,0.1315129440105479
41.184976,4.48742581961241,0.1310165968093012
41.189572,4.531396402096487,0.130631125356501
41.194164,4.579986341532949,0.1301549118694674
41.198756,4.636016125978885,0.129522557348025
41.203344,4.691146475977172,0.1289259520565362
41.207948,4.745621760956103,0.1283351429627135
41.212536,4.800341415363326,0.1277398209626683
41.217136,4.857226492808281,0.1270878185404226
41.221724,4.91460030910982,0.1264075641030713
41.226324,4.973484483429733,0.1256721829888222
41.230916,5.022597063539667,0.125099530479213
41.235512,5.0629596686014136,0.1246634443834222
41.240096,5.098414405833855,0.1242725112001182
41.244692,5.133825001617669,0.1238309518488663
41.24928,5.1671482176292685,0.1233805160869702
41.253868,5.190822024145031,0.1230709346133323
41.258456,5.211919712031998,0.1227950058068339
41.263044,5.2300305856991,0.1225195009049105
41.267624,5.243355776251043,0.1222738646282753
41.272216,5.255737390906711,0.1219864634940331
41.276812,5.272039156046779,0.1215639304686617
41.2814,5.286620095557069,0.1210998024247364
41.285996,5.295393732790408,0.1206885975700087
41.290584,5.299503871622733,0.1202993073659706
41.295168,5.299727761787546,0.11992517533803
41.299756,5.299663141075441,0.1195173281894687
41.304348,5.295467902267532,0.1191425528304899
41.30894,5.28636479563032,0.118801801642981
41.313532,5.267490094783126,0.1185837133153274
41.31812,5.244362591125986,0.1184048042675216
41.322716,5.225810302972601,0.1180983706933901
41.327304,5.209545622571095,0.1177273329878945
41.331896,5.196590169083262,0.1172704512007463
41.336492,5.1796704236624,0.1168880392772243
41.341088,5.160951809346242,0.1165274548363605
41.345676,5.141455945296582,0.1161667408639513
41.350276,5.120649951208209,0.1157885717416554
41.354864,5.103563879624573,0.1153507285995608
41.359472,5.090197730545674,0.1148530308086483
41.364056,5.073888908695539,0.1144083297841393
41.36866,5.053493610198232,0.1140487531779691
41.373252,5.035552245615575,0.1136719777477145
41.377844,5.020553553804154,0.113238029668313
41.382432,5.007109361459737,0.1127993753138466
41.387028,4.996363472458264,0.1123251673097513
41.39162,4.982430541257265,0.1119224670471183
41.396212,4.969929924809123,0.1115250626074831
41.400804,4.957962188666194,0.111143046835385
41.4054,4.956665481180893,0.1106320769980765
41.409988,4.955657284572511,0.110157099726327
41.414572,4.951872741355667,0.109784916319961
41.419164,4.947355089853952,0.1094723213920362
41.423756,4.944802633410304,0.1091878570426701
41.428352,4.947280229510106,0.1088671945622613
41.432932,4.956831116476947,0.108471416357425
41.437528,4.973210924882532,0.1080217293976771
41.442116,4.993354797241484,0.107579761415706
41.446708,5.014930984353294,0.107151872887448
41.451304,5.039616170399112,0.106730217049737
41.455892,5.071374647311967,0.1062417107898471
41.460504,5.106486492587124,0.1057363417938504
41.465092,5.140454533986341,0.105262592324681
41.46968,5.177042835462983,0.1048312516657539
41.474276,5.2137974631024,0.1044497800125973
41.478864,5.249696797742796,0.1041358580295266
41.48346,5.290748369640788,0.103785745979958
41.488052,5.337074363510522,0.1033974482823867
41.492648,5.394437940180319,0.102897361298276
41.497228,5.450779897688326,0.1024281731504095
41.501828,5.51108614712936,0.1019016534486955
41.506408,5.574090699913339,0.1013482531059943
41.511012,5.640937359916199,0.1007497726658346
41.515604,5.707784019919059,0.1001670323998797
41.5202,5.770788572703036,0.0996349994172391
41.524788,5.830972637429925,0.0991496676690195
41.52938,5.889602202689809,0.0986784122067774
41.533968,5.948353952663839,0.0982070619943352
41.538564,6.006328452904366,0.0977436692764221
41.543152,6.061726834516096,0.0973058863600052
41.547748,6.11340529362309,0.0969145531714542
41.552336,6.166227556606022,0.0965100958178875
41.556924,6.22276974209369,0.0960748427865906
41.5615,6.277224547809143,0.0956275359228763
41.566096,6.329469789038237,0.0951701143697582
41.570688,6.383225388285705,0.0946701051181086
41.57528,6.431828750275579,0.0941991503248352
41.579876,6.476179309455506,0.0937566597296832
41.584456,6.507449047511778,0.0934442227903022
41.589036,6.540106958872283,0.0931027878125088
41.59362,6.571987620499282,0.0927664202733775
41.598208,6.6064002593064535,0.0923806495022539
41.6028,6.636560095303677,0.0920149129774141
41.607384,6.660912629023947,0.0916644834340685
41.611976,6.688163694066825,0.0912388203758016
41.616568,6.714104629070989,0.0907994746638942
41.621148,6.735426207122769,0.0903980646514388
41.625748,6.75363878624054,0.0899938510396042
41.630336,6.771318485053099,0.089577593986597
41.634936,6.785644815503358,0.0891705839158477
41.639524,6.79853883120076,0.0887542839208161
41.644132,6.804237371316979,0.0883825759371386
41.648724,6.8047836741756,0.0880308759314529
41.653312,6.80377547756722,0.0876763581907046
41.657904,6.805177073424862,0.0872771148826064
41.6625,6.803103116206059,0.0868921904274309
41.667088,6.802172962863194,0.0864869106733194
41.671684,6.796501267853801,0.0861201384128586
41.676272,6.796592733672728,0.0857001517640878
41.68086,6.791820473110981,0.0853287369557909
41.685448,6.785004974225648,0.0849822498748984
41.690032,6.775246802569079,0.0846661724700998
41.694624,6.76716531509366,0.0843469625249776
41.699216,6.7624371959805405,0.0840211604654339
41.703808,6.75914139162028,0.0837079116101781
41.708392,6.758421705888818,0.0833888953418283
41.712988,6.762687931252178,0.0830211350861012
41.717576,6.768386471368397,0.0826649568773128
41.722156,6.776661130113413,0.0823055789684501
41.726752,6.7894329610966695,0.0819260006259153
41.73134,6.805025280137014,0.0815289928846738
41.735936,6.828057444186833,0.0810865558747655
41.740524,6.857385649370188,0.0806190691742215
41.745116,6.893009895687076,0.080130043237322
41.749716,6.929044837595029,0.079668513120929
41.754308,6.970354201474724,0.0791937384361967
41.758904,7.017060172040306,0.0787021497812126
41.763484,7.073371410653095,0.0781454514333874
41.768084,7.128372519227172,0.0775775121526224
41.772672,7.186560670000775,0.0769778945202777
41.777268,7.245115374916815,0.0763624266593665
41.781852,7.304447329566356,0.0757558529952105
41.786452,7.3639014689300435,0.0751481464833976
41.791036,7.428219334674408,0.0745163946529706
41.795628,7.494336069314066,0.0738902697371687
41.800224,7.55673288144899,0.0732883158133159
41.804816,7.617985889707972,0.0727111303503665
41.809412,7.680504886557042,0.072118673451913
41.814004,7.740447764777311,0.0715379288893598
41.818592,7.800512827711728,0.0709606069132398
41.823176,7.860333521217853,0.0704017470953545
41.82776,7.91811097640039,0.0698681087464337
41.832352,7.970614009611186,0.0693511586196813
41.836944,8.015677197812508,0.0688715418589543
41.841528,8.060329690422765,0.0683770623656839
41.846116,8.102894803260806,0.0678687106385093
41.850692,8.139286059679458,0.0673755182843178
41.855284,8.17232394773581,0.0668890693036429
41.85988,8.20679415054502,0.0664186592971834
41.864468,8.237422246135349,0.0659696591316935
41.869072,8.268949776173326,0.0655214128992093
41.873656,8.29826774172494,0.0650601656343055
41.878244,8.329873315028433,0.0645787201281034
41.882828,8.355060662484247,0.0641204011458067
41.887428,8.370598600444225,0.0636716517930795
41.89202,8.386380907832494,0.0632122774336619
41.8966,8.396888793249023,0.0627575904912911
41.901196,8.403921125589104,0.0623051714627926
41.905784,8.40657847040509,0.061854640104956
41.910384,8.402939774087546,0.0614146727695225
41.914968,8.397213697997785,0.0609535767773857
41.919568,8.388378622974013,0.0604772783253734
41.92416,8.379665732664389,0.0599948697322409
41.928756,8.37324045010664,0.0594880683743756
41.933344,8.363750310063516,0.0590004077527824
41.937936,8.350173693373215,0.0585374230402183
41.942528,8.339539749454149,0.0580600008341611
41.947124,8.322898275278467,0.0576140675764373
41.951712,8.303925051902278,0.0571557082174746
41.956296,8.28441894822088,0.0566798480524232
41.960884,8.263358345072476,0.0561948964006145
41.965484,8.241031753333987,0.0557243219117439
41.970072,8.21281981605303,0.0552785508827625
41.974664,8.181787390714984,0.054837179816581
41.979248,8.156928821796324,0.0543925168661446
41.983836,8.132192437591812,0.0539408805208059
41.988428,8.108111118406654,0.0534951757151473
41.993016,8.087749721726237,0.0530409302697591
41.9976,8.066655216760944,0.0526140944146717
42.0022,8.048914080157953,0.0521933369168558
42.006788,8.030562019984231,0.0517975749488689
42.011396,8.010943971220426,0.0514154265932254
42.015976,7.991980987475975,0.0510424584967769
