Time,Force,Position
35.543124,3.665399107189137,0.144096925740448
35.547716,3.829670706359931,0.1440656333066165
35.552296,3.983827819363458,0.1437784525858713
35.556892,4.125827207876132,0.1433639726574457
35.56148,4.253581492125735,0.1429245378513311
35.566076,4.370932779331153,0.1423303296822461
35.570664,4.4721179086640594,0.1417695372290837
35.57526,4.5576697604296665,0.1412479328989039
35.579852,4.627588334627973,0.1407415826257693
35.584444,4.692011779611398,0.1399906454380153
35.589024,4.73888089341808,0.1393009390223057
35.5936,4.764886449134351,0.1388088160241516
35.598196,4.77669104203618,0.1383361621685024
35.602772,4.768531511295245,0.138028994516472
35.607364,4.748302538960711,0.1377938411230232
35.611952,4.725286980385977,0.1374867533692091
35.61654,4.703293040973036,0.1371487103331339
35.621148,4.684486143759622,0.1367091560641903
35.625736,4.657217782374938,0.1364562067289029
35.630324,4.631626105171407,0.1361778475615731
35.63492,4.609343654881547,0.1357869167702341
35.639516,4.586406139572331,0.1353874842353142
35.644124,4.563346439548968,0.1349963157057818
35.648716,4.543595966439277,0.1344946855670687
35.65332,4.524500558348944,0.1339954228601372
35.6579,4.500174869735496,0.1336414770923411
35.6625,4.478713810627768,0.1332865226427129
35.667088,4.46113900018755,0.132904199303267
35.671684,4.446673188681339,0.1324997239142042
35.676268,4.427998715813808,0.1322145279325952
35.680868,4.417952033280319,0.131798803344769
35.685464,4.419720183280399,0.1311589939273961
35.690056,4.427295635557431,0.1304546337423075
35.69464,4.441700009273208,0.1296592731676644
35.699236,4.459990631656496,0.1288390199870161
35.703832,4.47869194963085,0.1280544397648858
35.708432,4.502545504862799,0.1272104170783751
35.71302,4.523867082914579,0.1264717441122412
35.717616,4.5481754751862224,0.1257191795884875
35.722204,4.57763610471546,0.1249096700861051
35.726792,4.600233910989063,0.1243207270603015
35.73138,4.6218542395495,0.123820832540208
35.735976,4.646461382329802,0.1233199021881097
35.740572,4.668825058806853,0.1229591872750298
35.74516,4.691232876732531,0.1226626215516418
35.749752,4.723045734725752,0.1222517770286815
35.818604,5.171610987642161,0.1219511154137685
35.823204,5.212649136986741,0.1219319267656837
35.827796,5.2536872863313215,0.1219157030628416
35.832388,5.296524304571197,0.1218706048218371
35.83698,5.341282376420515,0.1217915663414918
35.841572,5.382442710479242,0.12176885800474
35.84616,5.430754378670523,0.121598343900793
35.850756,5.473136559870706,0.1214831873587164
35.855344,5.518705783270415,0.1212966556591125
35.859928,5.56631824499371,0.1210755276314745
35.864508,5.612498391964148,0.1208583401628586
35.869108,5.656635300610998,0.1206774421953963
35.873696,5.703304186438017,0.1204174354574975
35.878284,5.750095256979183,0.1201455803410823
35.882876,5.796475631929285,0.1198547263132906
35.887468,5.8350054662788455,0.1196459131217999
35.892064,5.875412212789221,0.1193528699118613
35.896652,5.911810525917939,0.1190838331049514
35.901232,5.944322590379146,0.1188341140640044
35.905828,5.974991644496429,0.118552002117216
35.910416,6.001652265232055,0.1182993500096589
35.915024,6.022139029548293,0.118116452038322
35.919612,6.040294044664025,0.1179418220482196
35.9242,6.058527103045273,0.1177114782493949
35.928796,6.07455059694016,0.1174810127824878
35.933396,6.086565657453391,0.1172700867989362
35.937988,6.093428480709026,0.1171081867630887
35.942572,6.1005356733929545,0.1169280180794402
35.947172,6.1037566174093705,0.1167590186624978
35.951752,6.103990747205922,0.116590967458281
35.956352,6.1000942589066725,0.1164484267630049
35.96094,6.099340671358322,0.1161955052026921
35.96554,6.095478084875961,0.1159493822837509
35.970132,6.091815726373263,0.1156396741052371
35.974728,6.084922184222412,0.1153444164408765
35.979324,6.082359488147026,0.1149592293335461
35.983916,6.079141727052283,0.1145681548556499
35.98852,6.075024531509893,0.1141853234177775
35.993112,6.06845340205285,0.1138147815222625
35.997712,6.068422683157634,0.1133611217890233
36.002304,6.067003790958187,0.1129506189999372
36.006892,6.070815179281852,0.1124453385588123
36.01148,6.07294988342437,0.1119496057918263
36.016056,6.075739652586243,0.1114638178448879
36.020652,6.081472094519349,0.1109377453385408
36.025244,6.090924458957195,0.1103684017082305
36.029836,6.101031888414397,0.1098079586962009
36.034428,6.1167802939857765,0.1091812550311428
36.039016,6.133183764576512,0.1085624228374944
36.043612,6.146400192967721,0.1080019543434925
36.0482,6.16219273998773,0.1074235589344565
36.052788,6.177007809294572,0.1069123236584914
36.057392,6.19697511585901,0.1063693616030416
36.06198,6.221972474966898,0.1058094700208808
36.066592,6.251100452170588,0.1052349878202068
36.07118,6.284236862755936,0.1046586764345803
36.075768,6.32138170672294,0.1040813444113151
36.08036,6.362124288480536,0.103473529829267
36.084952,6.4048320652962,0.1028875097818556
36.089548,6.447173287969428,0.1023375880807771
36.094128,6.488615076195008,0.1017940894459269
36.098724,6.531000440316864,0.1013001148431105
36.103304,6.579559660858109,0.1007670529718854
36.107904,6.628773946418711,0.1002488891131107
36.112496,6.67635568924679,0.0997887160652874
36.117096,6.721527639608846,0.0993815938044218
36.121688,6.768376274152052,0.0989722866070724
36.126284,6.812937300943379,0.0986122666425657
36.130868,6.861628945830509,0.0982447769126214
36.135464,6.91673881656532,0.0978268320972412
36.140052,6.97520205566243,0.0974041191152758
36.144644,7.036485782816629,0.0969597126634657
36.149232,7.094582467771303,0.0965677637975814
36.15382,7.147448872202863,0.0962551726134542
36.158404,7.199171472758483,0.0959665306367802
36.162996,7.250361193008893,0.0956727520751304
36.167584,7.302816901849388,0.0953635818049536
36.172168,7.358992533194621,0.0950329110112744
36.176764,7.418355206739379,0.0946637255412218
36.181348,7.476041196102988,0.0943062964850219
36.185944,7.536547673523684,0.0939273070975838
36.190532,7.593945152010373,0.0935513497119092
36.195112,7.6508097501918515,0.0931722657745145
36.199704,7.705220414458677,0.0928000237612668
36.204284,7.758443133400935,0.0924094565815947
36.208872,7.815219448685156,0.0919644318626989
36.213468,7.871340698950021,0.0915177559249765
36.21806,7.929094491947407,0.0910362015572611
36.222656,7.983983655439077,0.0905457668194679
36.227244,8.034742200834943,0.0900683280667789
36.23184,8.079449074525566,0.0896155809522997
36.236428,8.121046949282182,0.0891626101308893
36.241028,8.162600682590169,0.0886751501943863
36.245612,8.203333024716027,0.0881508547753448
36.2502,8.24107855262202,0.0876167853461963
36.254784,8.272405854680333,0.0871227574293074
36.259376,8.291918324205078,0.0866934795532486
36.263964,8.303580253129283,0.086295085679394
36.26856,8.31327698699542,0.0858790749510347
36.273152,8.320397602232758,0.0854711563923013
36.277744,8.326330272145528,0.0850448753856415
36.282332,8.330830627305442,0.0846107084156545
36.28692,8.329934375779468,0.0842023247846504
36.291508,8.325684755891192,0.0837971662955367
36.296104,8.31910338680241,0.083385911424455
36.300696,8.309579344942394,0.0829989065736263
36.305288,8.29298201221534,0.0826356579286809
36.30988,8.26894483447881,0.082313196134074
36.31446,8.240166115075755,0.0820193511854401
36.319056,8.206645854006165,0.0817539612514034
36.323644,8.173492147079013,0.0814695682947726
36.328232,8.138661755970713,0.0811849183075184
36.332824,8.104730799310058,0.0808947538551577
36.337412,8.068878789039964,0.0806151031823102
36.342016,8.037646135722252,0.0803102627122864
36.346612,8.007557286280482,0.0799884510889533
36.3512,7.982087793791095,0.079640047990393
36.355796,7.958417170197004,0.0792823421045003
36.360388,7.930171331099157,0.0789832219298918
36.364984,7.902169861429601,0.0786709125953923
36.369572,7.873801837617608,0.0783744132685162
36.374176,7.843146206053736,0.0781055824214699
36.378764,7.811346770613925,0.0778497384186228
36.383364,7.785965561021795,0.0775628036318787
36.387952,7.761772296754234,0.0772962195146003
36.392556,7.736024533019666,0.077023163567351
36.397152,7.719882037332306,0.0766869711602125
36.401752,7.71117938665442,0.076312568542419
36.40634,7.707096092928919,0.0759153387476355
36.410932,7.708653775317595,0.0754860037596139
36.415536,7.710866522725629,0.0750642719887162
36.420128,7.716677007924257,0.0746311402969443
36.424724,7.720444254799293,0.0742164350170258
36.429316,7.728708673912569,0.0737872206289428
36.433904,7.735052039416406,0.0733726847853671
36.438488,7.744993142710833,0.0729477988337422
36.443068,7.758654168509999,0.0725071240357879
36.44766,7.774114063204459,0.0720623564781332
36.452256,7.794682053707886,0.0715760672097392
36.456832,7.8138618709070835,0.0711146844734355
36.461428,7.834840557001578,0.0706505047067445
36.466016,7.857740296705512,0.0701741294579594
36.470608,7.884359958914185,0.0696816425443066
36.475192,7.909713632532772,0.0692137263194767
36.479784,7.93890941337024,0.068726861791756
36.48438,7.974034681198808,0.0682437049964381
36.488972,8.004706918237764,0.0678142849496781
36.49356,8.033213732238988,0.0674101565988838
36.498152,8.064418849583156,0.0670041253456938
36.50274,8.099998954451415,0.0665985076498462
36.507344,8.140975666005563,0.0661843827930266
36.511936,8.179542585093685,0.0658039050927234
36.516532,8.2217072419724,0.0654183470736669
36.52112,8.265548583032265,0.06503962644333
36.52572,8.307346685768545,0.0646772527786433
36.5303,8.350943657400117,0.0643166590779645
36.5349,8.396461682641133,0.0639531341571778
36.539488,8.442512588187359,0.0636065052706667
36.544088,8.486398070695852,0.0632818243576007
36.548672,8.532204606813789,0.0629487990582135
36.553256,8.578255512360014,0.0626098573242252
36.557856,8.62790415569683,0.0622675656623882
36.562452,8.679596037357236,0.0619166631224898
36.567036,8.730755038712429,0.0615558813240953
36.571632,8.78113679033412,0.0611961774162925
36.57622,8.823545816641127,0.0608458179460958
36.580812,8.865299777928776,0.0604875523974327
36.5854,8.907298108644717,0.0601219344265498
36.589992,8.945698701570068,0.0597653150525876
36.594588,8.978047622790173,0.0594113500450104
36.599176,9.005244306752685,0.059057826057618
36.603772,9.03407353344772,0.0586756858367458
36.60836,9.058649957332802,0.0582912213318755
36.612952,9.076030905636705,0.0579159908524085
36.617536,9.096598896140131,0.0575201718991022
36.622128,9.113813518281262,0.0571217659927847
36.62672,9.126408783470003,0.0567349583129623
36.631308,9.138837722495971,0.05632276879565
36.635896,9.15163321566438,0.0558972825063633
36.640492,9.167737935746455,0.0554485376837757
36.64508,9.179223298876153,0.0550087931553021
36.649684,9.187355293643543,0.0545641637250472
36.654276,9.19368841951564,0.0541234949607446
36.65888,9.196301622883002,0.053689630434263
36.663464,9.19531708845977,0.0532584052872627
36.668064,9.200217899579007,0.0528055557984201
36.672644,9.206262514574185,0.0523432788491244
36.677248,9.208709391778772,0.0518824563729417
36.681832,9.20719197705033,0.0514355826076738
36.686432,9.203509139284156,0.0510019048671902
36.691028,9.200603551251485,0.0505724665481443
36.695624,9.198597397666456,0.0501445430837057
36.700216,9.196346874653145,0.0497245196538367
36.704812,9.196017405249268,0.0492973211884799
36.709416,9.188658786426984,0.0488980928889302
36.714008,9.176069887081589,0.0485254977460534
36.718596,9.160538314964958,0.0481605890998944
36.723192,9.136955974268124,0.0478265574156743
36.72778,9.108387722476468,0.047509340246667
