Time,Force,Position
33.397051999999995,2.4097613796648463,0.1583824709600721
33.40166399999999,2.5526026386231275,0.1576362355654736
33.406252,2.690858442445913,0.1570504469061623
33.41084,2.822485552809616,0.1566136933706005
33.41543599999999,2.9457631440844585,0.1562724514349777
33.420027999999995,3.061835020146379,0.1559085725269252
33.424624,3.1768308959661398,0.1550225445344031
33.429212,3.280534579925803,0.1544411435759585
33.433812,3.3787092328536965,0.1537596547351305
33.438399999999994,3.472009919769174,0.1530191975719203
33.44299999999999,3.5579827067575844,0.1522868278225244
33.447588,3.632008236866544,0.1517469312814119
33.452188,3.697273552295576,0.1512517860801041
33.456771999999994,3.754433718064039,0.1507766015313968
33.461368,3.800956756991763,0.1504389588433925
33.465951999999994,3.8414620260311327,0.1500771757048224
33.470544,3.874194797735481,0.1498190003844695
33.475136,3.909826100762436,0.1493849087976601
33.47973199999999,3.9429593284261104,0.1489153954729627
33.484316,3.9708181341180433,0.148573548133842
33.48891199999999,3.993646887266526,0.1483355622159585
33.49349999999999,4.013733195623437,0.1481011726159201
33.498084,4.028134386417542,0.1479626032013316
33.502672,4.043513054924812,0.1477162017995664
33.507268,4.057581593393369,0.1474626434699275
33.51185999999999,4.0691961979472735,0.1472518413296827
33.51644,4.07709087999644,0.1471479396293048
33.521032,4.082653812845101,0.1470700116961384
33.525624,4.086784430940902,0.1469974468070837
33.53020399999999,4.087561680674406,0.1469884368036331
33.53479599999999,4.089727103712137,0.1469043649955017
33.539387999999995,4.094424503930039,0.1466980504369079
33.553155999999994,4.077436954875399,0.1466443775849006
33.557752,4.069087435786537,0.1466397988196965
33.57152399999999,4.041540803156675,0.1465919266260036
33.576124,4.033924392352689,0.146507519402967
33.580716,4.027329600710496,0.1463878835259833
33.585316,4.0199575593348005,0.1462761770229982
33.589908,4.016427625177988,0.1460495588767736
33.594496,4.010854452697588,0.1458934015268871
33.59909199999999,4.007324518540775,0.1456677550328375
33.603683999999994,4.004816203545756,0.1454071286067967
33.608287999999995,4.004228942160179,0.1450907450889082
33.612884,4.007728157421775,0.1446373812344426
33.617472,4.012248991845165,0.1441518652276247
33.62206799999999,4.019590314325644,0.1435923204526886
33.626659999999994,4.022312279853737,0.1431518139891108
33.631256,4.020703399306366,0.1428719473817961
33.635839999999995,4.020526833511854,0.1425877908499291
33.640436,4.025502504974936,0.1422033505856246
33.645024,4.031377610885667,0.1417973898774882
33.649616,4.037130532082252,0.1414049364244731
33.654211999999994,4.04366070301234,0.1410093805769368
33.65879999999999,4.056364730361817,0.1404827223194887
33.663396,4.068946572997147,0.1399708287824399
33.667976,4.083571653956066,0.1393983308740581
33.67255599999999,4.100895038257928,0.1387688834989831
33.677152,4.116952433969704,0.1381969357019141
33.68174,4.130067156910246,0.137713967272337
33.686348,4.142404630117286,0.1372369025870004
33.690936,4.153476114734241,0.1368242589316121
33.69554,4.165857729389908,0.1364265091668797
33.700132,4.176440475150281,0.1360684385208657
33.70472399999999,4.187433916501719,0.1357495393921715
33.709315999999994,4.2010034764819535,0.1353950464055912
33.713908,4.213795786728687,0.1350517535154519
33.718504,4.230963084499513,0.1346328362678879
33.723092,4.254137912526955,0.1340502667737275
33.727684,4.281032663059135,0.1333900077120968
33.732272,4.308171783019606,0.1327174067208255
33.73687999999999,4.337109771875373,0.1320171856413843
33.74146799999999,4.369112618216519,0.1312412903283863
33.746068,4.402014899005314,0.1304647408608398
33.75066399999999,4.432751756756376,0.1297654127570611
33.755256,4.466841982869738,0.1290346956512704
33.759848,4.500565654840663,0.1283515557890055
33.76444399999999,4.538131434030471,0.127609019099628
33.769032,4.577740451543866,0.1268138173463559
33.773632,4.620414326542641,0.1259462203261676
33.778224,4.664764885722567,0.1250606535997455
33.78281599999999,4.70641714155955,0.1242175405883255
33.78740799999999,4.745982017624316,0.1233684729848357
33.791999999999994,4.790166250641468,0.1224462050591847
33.79658,4.831529995601529,0.1215871992709453
33.80117599999999,4.868274383609206,0.1208211857650377
33.80576799999999,4.903752783026798,0.1201054200271358
33.81036,4.936532879101447,0.1194392525612765
33.814952,4.9652264985289225,0.1188812353846036
33.81954,4.991999064346956,0.1183689141563528
33.824136,5.018649445450846,0.1178757140653227
33.828724,5.046321445716527,0.1173693301713926
33.833316,5.071705838230329,0.1169368216863288
33.83791999999999,5.09631298101063,0.1165155934401711
33.842508,5.123452100971101,0.1160169480207962
33.847103999999995,5.146338418121624,0.1155636484608781
33.85169199999999,5.168325300824499,0.115126285688706
33.85627999999999,5.181606349927814,0.1148477617165383
33.86088399999999,5.198607321535866,0.1145194077932052
33.86547199999999,5.2130763159637485,0.1142729147496225
33.870068,5.230487983162867,0.1139783740109563
33.874655999999995,5.250597953704928,0.1136493623604987
33.879252,5.274960727056937,0.1132886512983487
33.88384,5.298179696533008,0.1129658861829271
33.88844,5.322420285170873,0.1126236834768998
33.89302,5.351280230761121,0.1122228404137241
33.897608,5.381161795513165,0.1118028451119347
33.90219199999999,5.413986033036442,0.1113381210572911
33.90677999999999,5.445910836112072,0.1108812503168809
33.91137199999999,5.476936204740053,0.1104362808909287
33.915968,5.505796150330301,0.1100415909159187
33.920556,5.533634476758756,0.1096737406954145
33.92515199999999,5.561717172615504,0.1092901786738724
33.92974399999999,5.58673501098687,0.1089654222511471
33.93433199999999,5.61048686076815,0.1086841966318132
33.93892,5.637958633054168,0.1083582746424914
33.943515999999995,5.666574209216124,0.1080092133742704
33.948108,5.700053511758759,0.1075838315822724
33.95270399999999,5.729568522368366,0.1072304560325382
33.957288,5.762514944605789,0.1068002718095615
33.96188,5.789576021300741,0.10646288842175
33.96647599999999,5.819579770766929,0.1060867772973575
33.97106399999999,5.847906836051966,0.1057279525745905
33.97565199999999,5.875701021031793,0.1053592365951263
33.980248,5.905782813763499,0.1049460576720024
33.984835999999994,5.932389053418758,0.1045642203589258
33.989428,5.958462412768807,0.1041685806318659
33.99402799999999,5.981837468775913,0.1038022529482009
33.99861599999999,6.009543370858484,0.1033582989567241
34.003212,6.038393076816994,0.1028921092590331
34.007804,6.067853706346233,0.1023862084454575
34.01239999999999,6.0926949789230855,0.1019282203232694
34.01698,6.116636817052291,0.1014801279972332
34.02157999999999,6.141067394038078,0.1009987164186859
34.026176,6.164842906004511,0.1005140529298319
34.03078,6.187186103218083,0.1000280699155626
34.035368,6.208874235412299,0.0995392522900204
34.039972,6.230029487301305,0.0990392974462451
34.04456799999999,6.250896228313391,0.0985099564318443
34.049164,6.267143612373093,0.0980277700068283
34.05375999999999,6.2889878310983445,0.0974423378800168
34.05835199999999,6.307478681461297,0.0968765965745576
34.062943999999995,6.324170662928953,0.0963281932660345
34.06753199999999,6.33497729885414,0.0958508782107819
34.07211999999999,6.338999154789208,0.0954526947367957
34.076716,6.340322707381333,0.0950739742022919
34.081304,6.3442223786022565,0.0946845177533706
34.085891999999994,6.3481220498231785,0.0942955524038215
34.09047999999999,6.347935244396928,0.0939652767671185
34.095071999999995,6.344805766199441,0.0936696718682649
34.09967199999999,6.341309733859518,0.093396727745067
34.104268,6.341533624024331,0.0930889983410527
34.10886,6.345599621408027,0.0927422185723437
34.113443999999994,6.35199736799223,0.0923993449646929
34.11804,6.358150745148141,0.0920730162952459
34.122628,6.3627937642856764,0.0917912640431441
34.12722,6.364005371795396,0.0915726992166899
34.13181599999999,6.363828806000883,0.0913904956976832
34.13640399999999,6.363285686063934,0.0912306049540828
34.141012,6.366873184222786,0.0910623468765496
34.14559599999999,6.366662716611383,0.0909792501754811
34.150203999999995,6.368906182914634,0.090893363915476
34.15479199999999,6.37180471423724,0.0908163282506215
34.159384,6.382387459997612,0.0906635147415008
34.16398,6.403352723538694,0.0904197851204411
34.16857199999999,6.429348039623225,0.0901632702073067
34.173168,6.4524006829365215,0.0899406615971242
34.177748,6.47790726016447,0.0897174886715623
34.182352,6.507788824916512,0.0894753287527541
34.18694,6.548052907449263,0.0891503661983125
34.19154,6.593180716362692,0.0887827469581575
34.196127999999995,6.640229578885561,0.088402537421293
34.20072799999999,6.684335768637195,0.0880581912406813
34.205312,6.729585762264769,0.0877000102469184
34.20990799999999,6.775613005625844,0.0873464738549765
34.21449599999999,6.826259605939304,0.0869656930247417
34.219084,6.881892117347586,0.0865337928089241
34.22367599999999,6.944309408745986,0.0860499426562901
34.228272,7.011468241810916,0.0855366175897708
34.232859999999995,7.079360183160721,0.0849932865317885
34.237444,7.152604589747785,0.0843886923110793
34.24203599999999,7.224827377173055,0.0838035819134687
34.246632,7.300115022083706,0.0831937333471699
34.251224,7.37053894061368,0.082631256128264
34.25581999999999,7.434300263867683,0.0821290491557881
34.260411999999995,7.499571945140061,0.0816000936693265
34.26499999999999,7.565987430288379,0.0810567718293778
34.269603999999994,7.631092785397985,0.0805035218260531
34.27419199999999,7.692067522411786,0.0799569214189448
34.278788,7.740205807730228,0.079484867421149
34.283376,7.786545224153373,0.0790295038450033
34.287963999999995,7.830430706661867,0.0785781849640042
34.29257599999999,7.872761689703356,0.0781239235008263
34.297155999999994,7.912638738830192,0.0776731636209271
34.301748,7.951450027346607,0.0771977173737735
34.306335999999995,7.98331020971013,0.076741279854002
34.31092399999999,8.010917589263704,0.0762927546371717
34.31552,8.029408439626657,0.0758877234741031
34.320100000000004,8.040825999122571,0.0755053407110935
34.324696,8.049423070561398,0.0751408772044291
34.329276,8.048781428095452,0.0748196797540407
34.333876,8.04388698281956,0.0745021575070728
34.338463999999995,8.03191924667663,0.0742030738114167
34.34306399999999,8.021706237980368,0.0738605356708227
34.34765599999999,8.007362611188304,0.0735137342861847
34.35225599999999,7.986067878243348,0.0731780811605302
34.35684,7.962441396097885,0.0728327995403298
34.361428,7.933540491980682,0.0724962805293214
34.36602799999999,7.903085088396474,0.0721514120452868
34.370612,7.879536649516529,0.071756402720428
34.37520399999999,7.848259854750191,0.0713660987381356
34.3798,7.815306375802701,0.0709730721045343
34.384387999999994,7.77797790933112,0.0705835990207812
34.38897599999999,7.739994377840181,0.0701826188664825
34.39356399999999,7.697147119968565,0.0698078250095323
34.39816,7.653522612363448,0.0694257226027053
34.40275599999999,7.611819158367773,0.0690298443505896
34.407344,7.572281127409829,0.0686080036448937
34.411939999999994,7.5327430964518864,0.068181998911625
34.41652,7.490628946865145,0.0677537757024591
34.42111599999999,7.453011969516643,0.0673105624399334
34.42570799999999,7.417316045777583,0.0668536455944179
34.430288,7.383541175647964,0.0663817617268349
34.43488399999999,7.347600882480612,0.0659289623423718
34.43947599999999,7.317057195999148,0.0654598933237579
34.44406399999999,7.289866877879983,0.0649907990360417
34.448652,7.26627429755141,0.0645122617620799
34.45324399999999,7.253474930594611,0.0640104725827627
34.45784,7.24325168226661,0.063507020611381
34.46242,7.231762445348523,0.0630247109066855
34.46702,7.228123749030978,0.0625366894689777
34.471612,7.228860040237524,0.0620471551746864
34.476212,7.238468491206405,0.0615464161627559
34.48079599999999,7.251185941109293,0.0610650752373926
34.485396,7.271343236021656,0.0605599233928513
34.489984,7.300739244838789,0.060032021419065
34.49457999999999,7.331811937837072,0.0595112093654901
34.49916799999999,7.364194760874067,0.0590132249271562
34.503764,7.402873625044597,0.0585092998518302
34.508356,7.445028042291573,0.0580080847202473
34.512948,7.493067805081021,0.0574849536938504
34.51753999999999,7.548791782308232,0.0569398307708948
34.522136,7.609667996793039,0.0564049168717396
34.526723999999994,7.675818633249589,0.05587456522567
34.53131199999999,7.742868704153786,0.0553498021346914
34.53589999999999,7.808774971182043,0.0548397365006721
34.540496,7.873537434334362,0.0543479115178557
34.54509199999999,7.928572444725328,0.0539016647014004
34.54968,7.986183573745091,0.0534634366594672
34.554275999999994,8.041873649155413,0.0530352909029968
34.558856,8.095520486242147,0.0526240310237501
34.563448,8.146346835271792,0.0522244230984166
34.56804399999999,8.192798196777346,0.0518265076913816
34.57263199999999,8.23499675547295,0.0514232246841551
34.57724,8.27310883752138,0.0510458816368877
34.58182399999999,8.302392901256107,0.0507068891360469
34.58642,8.326035988876653,0.0503812823290451
34.591007999999995,8.346081338706611,0.050057128505999
34.595592,8.359464093260593,0.0497520990765024
34.600188,8.370559240062699,0.0494690395570029
34.60477199999999,8.36976151106572,0.0492364080067617
34.609368,8.353350983764917,0.0490588345525186
34.61396,8.33064441533058,0.0488821437886307
34.618559999999995,8.30049800188677,0.0487164807782087
34.62314799999999,8.26356680845284,0.0485712386685873
34.62774799999999,8.225613995857117,0.0484301934926388
34.632344,8.182919641594864,0.0482986303957226
34.63694399999999,8.138792972579752,0.0481499384494839
34.641535999999995,8.087348643269314,0.0480051468602692
34.646132,8.029119533968753,0.047879790581283
34.65072,7.960630091601633,0.0477691965452335
34.65531599999999,7.885478053958542,0.0476726932490165
