Time,Force,Position
34.877827999999994,3.246709103035231,0.1658587107452845
34.882424,3.4244824585524825,0.1634135647675905
34.887012,3.596193902732752,0.1610500278891884
34.891604,3.761022044393909,0.158716623283377
34.89618399999999,3.906907681574093,0.1570867311991699
34.90078,4.036915671758687,0.1558576217746602
34.905368,4.146793212137739,0.1550409253630861
34.909964,4.236340074731591,0.1546345600582036
34.914548,4.315816592606804,0.1542714017632423
34.919144,4.379503746383683,0.1541957291517883
34.923732,4.439294411861312,0.1539395663134089
34.92832,4.491180155658035,0.1535800265087931
34.93290399999999,4.534505912754494,0.1531125656122091
34.937496,4.57065985645492,0.1524873416047415
34.942083999999994,4.592124098484322,0.1519841645533739
34.946668,4.6056053755673005,0.1514679794492934
34.951263999999995,4.60898240611475,0.1510766656990751
34.955848,4.606840645262166,0.150822602112929
34.960436,4.613082305315333,0.150436981201048
34.965031999999994,4.626152886807246,0.1499377259464908
34.96961999999999,4.637879436443557,0.1495653726700709
34.974208000000004,4.6554132883568204,0.1491066164202489
34.978804,4.6754010741847365,0.1486238615605327
34.983391999999995,4.696454620623073,0.1481810548536339
34.987988,4.728301380433184,0.1475322665554449
34.99256799999999,4.764400943053245,0.1468261428129742
34.997164,4.804631123769107,0.1460594078537826
35.001752,4.857042691160975,0.1450276889606271
35.00635199999999,4.9102315082863415,0.1440165217919861
35.010936,4.96930567095418,0.1428678858534769
35.015536,5.029279268069665,0.1417381884178941
35.020128,5.089663560776216,0.1406484254858677
35.02472,5.154178471578569,0.13953174407167
35.02929999999999,5.216816470220111,0.1385381279229114
35.033888000000005,5.281786218062157,0.1375297837806464
35.038476,5.348432650085356,0.1365176650803322
35.043064,5.415978516556202,0.1354949883723683
35.047652,5.484013121883631,0.1344543012449781
35.05224799999999,5.54730618554453,0.1335351035747813
35.056832,5.606757141986545,0.1327109089455855
35.06142,5.669395140628088,0.1318141345469493
35.066012,5.7277803364596815,0.1309700462104623
35.0706,5.785099771680855,0.1301196754128259
35.075192,5.843274499901048,0.1292273203084473
35.07978,5.890900384177757,0.1284887454181715
35.084384,5.936683258110542,0.1277428885801327
35.088972,5.983976490061703,0.1269503643148531
35.093548,6.022397562250534,0.1262896427806275
35.09815999999999,6.05476696273412,0.1256996545981371
35.10274799999999,6.083372299264339,0.1251281304598911
35.107336000000004,6.10245041101287,0.1246604901099103
35.11192799999999,6.118419523827392,0.1242059056204844
35.116516000000004,6.127926269345607,0.1237960817379691
35.121112,6.134035505052892,0.1233667150121875
35.125699999999995,6.13866828455869,0.1228877252262852
35.130303999999995,6.139370673948349,0.1223767354073305
35.134891999999994,6.136675553527078,0.1218447108557576
35.139492000000004,6.124331023609972,0.1214152389971069
35.144071999999994,6.10936623361544,0.1209603097334269
35.148675999999995,6.089371391077457,0.1205438725148132
35.15326,6.063813615690814,0.120151306781798
35.15785199999999,6.039233318017335,0.1196867889061488
35.162431999999995,6.009745152514553,0.1192510057315076
35.167028,5.971384827249436,0.1189123349736388
35.171628,5.934534860002696,0.1185160647433038
35.17622399999999,5.892166101355922,0.1181883716181706
35.180812,5.8436234862897605,0.1179227478543696
35.185407999999995,5.793892925899032,0.1176304636248329
35.189995999999994,5.746039277669116,0.117250587733553
35.19458,5.69368845720096,0.1169186305765067
35.199168,5.646567917255918,0.1164728358734981
35.20376,5.600058300881604,0.1159758526421952
35.20835199999999,5.554325934240793,0.1154705460227622
35.21294,5.509493002047629,0.1149460327754377
35.217536,5.459429789331352,0.1145242909790958
35.222116,5.4083890989019086,0.1141680385395331
35.226708,5.360823961548912,0.1137691790623106
35.231303999999994,5.320698669205389,0.1132612046153014
35.23589199999999,5.281883506900582,0.1127618019242195
35.240488,5.247687701548157,0.1121940321597614
35.245076,5.214679841520301,0.1116447904912299
35.24968,5.183881545978807,0.1110954594020357
35.254272,5.153249576600086,0.1105868615037697
35.25886799999999,5.130712517250196,0.109978548688504
35.26347199999999,5.113205510443756,0.1093334442280292
35.268052,5.101383621200123,0.1086594972535001
35.272648000000004,5.09626846868109,0.1079386380852479
35.277227999999994,5.0937735762394825,0.1072478740457807
35.281824,5.091611336123423,0.1066480490230926
35.286404000000005,5.095789278589527,0.1060311007532421
35.291004,5.100422058095322,0.1054987068641514
35.295596,5.108696716840338,0.1049850437687885
35.30018799999999,5.12097980896701,0.1044623890009181
35.304779999999994,5.1387036492282,0.1039430278242996
35.309376,5.1654218339658655,0.1033271867364897
35.313964,5.193694518170537,0.102708753143701
35.31855999999999,5.221234094090335,0.1021525457230739
35.32315199999999,5.253314983696999,0.1016162814171503
35.327744,5.285562199466437,0.1011253304359646
35.332331999999994,5.324516151960475,0.1006109443453846
35.33691999999999,5.370176841179114,0.1000691785235229
35.341508000000005,5.419723779065263,0.0995423033372206
35.34609999999999,5.473645704475506,0.0989838621724532
35.350696,5.5259350871532265,0.0984985925361797
35.355288,5.579656784583807,0.0980396589100333
35.359880000000004,5.635055166195535,0.0975831348004464
35.364468,5.688410309483679,0.0971666733046913
35.369063999999995,5.744585940828911,0.0967237478463994
35.37365199999999,5.80304917992602,0.0962350113218735
35.37823999999999,5.862001157879714,0.0957241996237928
35.382836,5.925161797194727,0.0951530739311203
35.387424,5.988566805938032,0.0945795123061385
35.39202399999999,6.055158856880862,0.093973398846655
35.396608,6.118519724175538,0.0933837001610872
35.401196,6.182902210632008,0.0927981362357761
35.405788,6.2522706081833,0.0921610385145971
35.41038399999999,6.320983940715235,0.0915186295992273
35.414976,6.385033774846156,0.0908817051708928
35.419563999999994,6.451737770871393,0.0901855838712157
35.424164000000005,6.512512279905531,0.0895248635095419
35.428752,6.568745475252803,0.0888605895431662
35.433356,6.616595249694325,0.0882220132875851
35.43794799999999,6.661458209915984,0.0875755154748742
35.442544,6.70525540952722,0.0869019286461189
35.44712799999999,6.7442669260233,0.0862342391023985
35.451724,6.777715509670717,0.0855653620133666
35.456312,6.81099776715536,0.084863421662061
35.460908,6.847056371248465,0.0841103198979882
35.465508,6.8837258989122985,0.0833324291987488
35.47010399999999,6.916264808480329,0.0825635456076446
35.474692000000005,6.942096981323759,0.0818112760834638
35.479288,6.962654732195447,0.0810819361738955
35.483875999999995,6.971275465819423,0.0804248285548764
35.48846,6.976665015795246,0.0797647019194869
35.49305199999999,6.975347829046467,0.0791147057979829
35.497643999999994,6.96810115530659,0.0784766102577577
35.50224,6.961709774565733,0.0777926804461553
35.506828,6.953763894357873,0.0771021830614341
35.511427999999995,6.943364080235359,0.07641104565524
35.516003999999995,6.932431385807634,0.0757032633213217
35.520596,6.918800388036966,0.0750036756614452
35.525192000000004,6.906435378856383,0.0742748276937409
35.52978,6.898279031037119,0.0735019593843196
35.534372000000005,6.891510856522086,0.072701718700643
35.53896399999999,6.881922193949964,0.0719131726293465
35.543555999999995,6.876053453882579,0.0711046572125442
35.548152,6.873249571300574,0.0702725559037003
35.55274,6.86288365899495,0.0694854118387838
35.557332,6.848920008898735,0.0687092488970741
35.56191199999999,6.838676281307255,0.0679169433324233
35.566512,6.832929725954016,0.0671123983188669
35.5711,6.831147462533806,0.0662786521821276
35.57569599999999,6.839747716894304,0.0653928508224473
35.58028399999999,6.851046274597746,0.0644997293384081
35.58488,6.8647987662158405,0.0636124014295459
35.589472,6.879206322853291,0.0627354577111763
35.59406799999999,6.894024575081806,0.061886838570449
35.59865599999999,6.911174576510828,0.0610534562459737
35.603247999999994,6.930778511854502,0.0602320143149973
35.60783599999999,6.947972654732152,0.0594435697051771
35.612432,6.971462838743337,0.0586486100703931
35.61702,7.003047932783352,0.0578483943325461
35.62160399999999,7.027237323262521,0.0571166698753079
35.626192,7.047995302113875,0.0564285595090748
35.63078399999999,7.0709628454515885,0.0557585311138014
35.635375999999994,7.090743346589775,0.0551187866058471
35.63996399999999,7.100552025538318,0.0545382787039069
35.644555999999994,7.109871965630279,0.0539793500666705
35.649136,7.118703166865656,0.0534439900348501
35.653728,7.124469510615653,0.0529321761272414
35.658311999999995,7.125005573842538,0.0524614484492964
35.66289999999999,7.120311356546307,0.0520299070417741
35.667500000000004,7.10601187120287,0.0516344073961801
35.672076000000004,7.091223647002852,0.0512629283199665
35.676664,7.071327326993865,0.050922049271844
35.681268,7.049143399233,0.0506043389641119
35.685856,7.021074125929665,0.0503114162683512
35.69045199999999,6.990062179855096,0.0500303868119701
35.695032,6.9540643226857055,0.0497739437665878
35.699631999999994,6.919088084678108,0.0495079705059995
35.70421999999999,6.873484959461509,0.0492792409109115
35.70882,6.813412839817029,0.049100088899623
