Time,Force,Position
35.20176399999999,3.5223457287540043,0.1575091857657807
35.206371999999995,3.625404587326051,0.1572716602390068
35.21095999999999,3.714428809246431,0.1572327081689203
35.21556399999999,3.799223890542013,0.1568309330901791
35.220156,3.8713725084901576,0.1564861677336337
35.224748,3.9339836620248754,0.1561497004278959
35.22934,3.9869351664320174,0.1558168272113836
35.233944,4.033291879196969,0.1553735306855989
35.238532,4.077140276966899,0.1546725666401411
35.24312799999999,4.11206213389413,0.1539104630546851
35.247712,4.144231306398051,0.1529614700834869
35.25230799999999,4.168050959813111,0.1520570915557463
35.256899999999995,4.183487192322421,0.1513224461078822
35.261503999999995,4.196269262937416,0.1507156589563199
35.266096,4.219023155742054,0.149800606196901
35.270695999999994,4.248073089680227,0.1487444068893088
35.27528,4.27573485031417,0.1477631228503677
35.279864,4.305029153680634,0.146683564882298
35.284444,4.334201272332953,0.1456178344006461
35.289032,4.357077349851737,0.1447101032580071
35.29361599999999,4.37803237376108,0.1438569325955127
35.298196,4.398087963222774,0.1430386880596262
35.302788,4.420841856027413,0.1421648988150542
35.307371999999994,4.44388425970897,0.1413592863756473
35.311956,4.467337358981592,0.1405766268557806
35.316556,4.492589327149511,0.1397663669701694
35.321144,4.518496360336786,0.1389565347373355
35.32574399999999,4.546080077705211,0.1381347233470673
35.330336,4.567778449531167,0.13747865300715
35.334932,4.589110267214684,0.1368601990285544
35.339532,4.602513501032147,0.1364650343518724
35.344124,4.615672365421318,0.1360989654679154
35.34871999999999,4.632551152315225,0.1356545896835483
35.35329599999999,4.657480707789334,0.1349996025961639
35.357888,4.676158363578537,0.1345385723860861
35.36247199999999,4.691893346596506,0.1341572717268996
35.36707599999999,4.708161209919684,0.1337910592359896
35.371664,4.723695964957988,0.133492127118482
35.376252,4.741029588891589,0.1331629773523601
35.38083199999999,4.761716581187489,0.1327909592452119
35.385428,4.784080257664539,0.13239685504627
35.390016,4.804567021980777,0.1321084396605076
35.394608,4.825053786297014,0.1318259972157536
35.399188,4.8434973122896645,0.1316041280744475
35.403772,4.869502868005935,0.1312356884144003
35.408359999999995,4.896530042883998,0.1308528069425936
35.412952,4.929564748018676,0.1303410071132807
35.417544,4.957857911486826,0.1299237927145607
35.422136,4.991914235783299,0.1293937483488884
35.426724,5.030467732318011,0.1288025255297859
35.431312,5.071841716909812,0.1281534142815551
35.435904,5.114237320663407,0.1274925145298449
35.440487999999995,5.158309608598151,0.1268333506084766
35.44507599999999,5.198173235171576,0.1262964699016538
35.449684,5.239302850335086,0.1257183149191917
35.454272,5.282353519108037,0.1251133916725123
35.458864,5.330756653118248,0.1243908029253723
35.46344799999999,5.381325210166191,0.1236178145916352
35.46803599999999,5.431360886908922,0.1228394998943472
35.47263999999999,5.482129671936528,0.122018673592022
35.477236,5.534408814982511,0.1211495992393001
35.481828,5.587298881599222,0.1202305672977663
35.486416,5.636835579853632,0.1193459730602419
35.491015999999995,5.681097856136302,0.1185210607406229
35.49560399999999,5.71726522239014,0.1178178067806547
35.50020399999999,5.750201404995825,0.1171446954618062
35.50479599999999,5.7746761234302415,0.1166078328340852
35.509396,5.803237318511831,0.1159908794860016
35.513984,5.830366198840562,0.1153825010078962
35.518576,5.85373101521593,0.1147854871482097
35.52316799999999,5.875907886266728,0.1141673801447191
35.527764,5.895753008117022,0.1135609369245478
35.53235999999999,5.90504928602383,0.1130604800669754
35.53696,5.912502553586717,0.1125324591894865
35.541552,5.917746256663241,0.1120008894149222
35.54614399999999,5.917959907196315,0.1115051871284925
35.550732,5.910611528005771,0.1111170858626375
35.55532,5.903219007366599,0.110680421902382
35.559908,5.89517142170807,0.1102368384722435
35.5645,5.88430334799245,0.1098301848761639
35.569095999999995,5.873679643705122,0.1094080032159689
35.573688,5.865954470740402,0.1088940575513785
35.57828,5.859128732223329,0.1083691959348772
35.582868,5.8574110895152245,0.1077563863290973
35.58746399999999,5.854261132054261,0.1071317112220739
35.592052,5.84739125208856,0.1065482439297145
35.59664,5.843175534017176,0.1058848751453979
35.601251999999995,5.833807578688194,0.1052568046925331
35.60583599999999,5.818798647245036,0.1046968606324329
35.610432,5.799947608582992,0.1041853619752204
35.615019999999994,5.785305231282269,0.1035967383330308
35.61960799999999,5.768986169800396,0.1030144714945639
35.62421199999999,5.759329703594496,0.1023415998874004
35.62879999999999,5.749551052674448,0.1016753563413777
35.633396,5.739650217040256,0.1010139417964493
35.637976,5.728849946958416,0.1003546259472259
35.642576,5.721236719076103,0.0996329638039243
35.64715999999999,5.712357502603704,0.0989465572172465
35.65176,5.698614559750629,0.0983221545184371
35.656348,5.686548301078704,0.0976895498421274
35.660948,5.669618316026102,0.0971211847873483
35.665536,5.649134734631539,0.0966342043587438
35.670132,5.630816576274706,0.0961049272812117
35.67472,5.6112324293277895,0.0956074081065976
35.67931599999999,5.596922704352615,0.0950712016646395
35.683912,5.586332901882177,0.0944937127631863
35.688512,5.577053229450451,0.0939348361384172
35.693104,5.573947413438116,0.0933333518671339
35.697696,5.573539900768725,0.092706220129998
35.70227599999999,5.576607941175778,0.0920556987259315
35.70686,5.572280278021985,0.0915309236659955
35.711448,5.56860767988755,0.0910140258537997
35.71604399999999,5.56673395064841,0.0904856395259808
35.72063599999999,5.565515286428625,0.0899670969824776
35.725216,5.569038163875372,0.0894009236669571
35.729808,5.577180398274505,0.0887926510650213
35.734396,5.586877132140639,0.0881928261801602
35.73899599999999,5.594286258254898,0.0876380840487571
35.743592,5.612077902149865,0.0869854508930603
35.748184,5.6271712427018885,0.0863523259181123
35.75277599999999,5.64790555936809,0.0856696023928366
35.757364,5.669417125767794,0.084990024101354
35.761968,5.692361006920357,0.0843324128571893
35.76655999999999,5.714283268911126,0.0836896856239254
35.77114799999999,5.736205530901895,0.0830553575022033
35.775744,5.760948280949755,0.0824044436908136
35.780324,5.784791596549965,0.0817628809599019
35.784916,5.80683604325488,0.0811399231593361
35.789504,5.83374421634047,0.0804761106697834
35.794104,5.863472877483149,0.0797971726736685
35.798692,5.901130122491888,0.0790368393402169
35.80329199999999,5.940708421110066,0.0782638459612542
35.807888,5.980164535014099,0.0775102815954431
35.812487999999995,6.02052008336578,0.0767575640872775
35.817068,6.057566404803789,0.0760643290464994
35.82166399999999,6.0953899759753,0.0753835584181578
35.82625199999999,6.1342351663086045,0.074702946810084
35.830848,6.1799873213461725,0.0739660752603912
35.83544,6.218177446660119,0.0732927158349198
35.840032,6.25738919113586,0.0726088120803662
35.84462,6.295701501163953,0.0719403421840385
35.84920399999999,6.339244091715161,0.0712236515856961
35.85379199999999,6.381354367513509,0.0705029499598124
35.858388,6.424975001330233,0.0697481117089287
35.86298,6.463854093480427,0.0690254773687285
35.867568,6.49913544784003,0.0683228534235253
35.87216399999999,6.536948779379801,0.0675815060578508
35.876752,6.57512866506201,0.0668279264792449
35.881348,6.611509681848924,0.0660931049033573
35.88593199999999,6.643515711111744,0.0653696336771549
35.89052,6.66975857954624,0.0646866372374212
35.89512799999999,6.695468567675525,0.0639912557424643
35.899708,6.717703002728364,0.0633012641020651
35.904295999999995,6.739648926904284,0.0625852240400561
35.908892,6.763349578526871,0.0618255574170198
35.91348,6.785251361254163,0.0610747382956035
35.91807599999999,6.80085710284792,0.0603386457818029
35.922672,6.808001380270409,0.0596403338867499
35.927264,6.817188896016485,0.0589256262286306
35.931852,6.8303407036955885,0.0581901072950375
35.936452,6.836829916098721,0.0574825982397077
35.94103599999999,6.833713860454647,0.056822170530152
35.945636,6.824834643982248,0.0561855564744137
35.950228,6.814445069491472,0.0555814733544215
35.954823999999995,6.807120352486079,0.0549526324111658
35.959408,6.797874581871243,0.054329296110376
35.964004,6.783276346019147,0.0537547687070523
35.968591999999994,6.762426210482147,0.0532269974583537
35.973188,6.73389186050738,0.0527275932909915
35.97776799999999,6.705113141104324,0.0522370129572592
35.982352,6.677233856148913,0.0517426972781889
35.986944,6.647722028460979,0.0512856197881465
35.99153999999999,6.619764700240052,0.0508375599872625
35.99612799999999,6.585311102905925,0.050445874906016
36.000719999999994,6.547426093943982,0.0500910436779352
36.005312,6.506476227496659,0.0497537789554013
36.009904,6.463893818316814,0.0494508446641237
36.01449999999999,6.421067039708674,0.0491564025836962
36.019084,6.374153784453363,0.0488856169980149
36.02367999999999,6.317268707008409,0.0486661071420237
36.02826799999999,6.262959748192252,0.048449093150319
36.032856,6.2091836696813045,0.048248113218403
36.037452,6.155940471475568,0.0480635668390942
36.042036,6.10359670771748,0.0478764051517001
36.04663999999999,6.04794371704572,0.0477204753364679
36.051236,5.9869382611367,0.0476110482550796
