Time,Force,Position
41.878956,2.7673216353834538,0.1564034252870885
41.88354,2.849873250375785,0.1561389157355004
41.888148,2.9204776084886657,0.1560506204550418
41.892748,2.982443936635765,0.1559123418739724
41.89734,3.040635961197761,0.1554824505977438
41.901924,3.092355378831708,0.1549075208093787
41.90652,3.1350702123574385,0.1543645719869024
41.911112,3.1737663728697743,0.1536105324693696
41.915704,3.2098761751215723,0.152656818862297
41.920288,3.2427886955421066,0.151557769489672
41.924888,3.261388308065792,0.15087367019154
41.929472,3.2729485315393294,0.1502280060438034
41.934068,3.277802018288267,0.1497539833589534
41.938664,3.2805681252649896,0.1492879154998845
41.94326,3.2874207088888854,0.148651101341294
41.947856,3.296072161408077,0.1479547927633643
41.952456,3.304190733622058,0.1472305703687821
41.957048,3.3128421861412503,0.1465345504184507
41.96164,3.3177737161557053,0.1459636509662692
41.966228,3.318208073931921,0.1455303406410859
41.970816,3.3199084202982214,0.1450188579715026
41.975404,3.316867224997992,0.1446761509968465
41.979996,3.3175459522024986,0.1442046218468884
41.984592,3.3186353749980704,0.1437710860384608
41.989184,3.316659940308263,0.1434714993282183
41.993772,3.31395139733358,0.1432716209379774
42.007536,3.298273978317652,0.1432109959923912
42.039684,3.3180820154293835,0.1431949804766409
42.04426,3.3273309689658914,0.1431879988192943
42.048864,3.3390338564170525,0.143143537277492
42.053452,3.355478285534744,0.1429511573376541
42.058052,3.376297702176529,0.1426564504812311
42.062632,3.3986716182853183,0.1423493511241332
42.067232,3.4302842482988773,0.1417899262596025
42.071824,3.4662718658365304,0.1411580887455231
42.07642,3.507900459488362,0.1403878096388923
42.081,3.5514942481982628,0.1396351655272552
42.085596,3.594843667479872,0.1389125764596913
42.090192,3.639991955656777,0.1381597932368118
42.094792,3.694989881309181,0.1371110634028287
42.09938,3.748188938066289,0.1361120823477349
42.103976,3.793293084794565,0.1353152392725325
42.108568,3.8395410353987818,0.1345004257931869
42.113156,3.8881987784690217,0.1335656829653669
42.117736,3.941187367614727,0.1324964627512065
42.122328,3.996463564512312,0.1313537342614877
42.126912,4.050718142248102,0.130243230048694
42.1315,4.104972719983892,0.1291637170458559
42.136096,4.154974494909734,0.128164564360764
42.14068,4.200479097597339,0.127269440318306
42.14526,4.242263777780205,0.1264710607453354
42.149856,4.282493958496067,0.1256978076756796
42.154444,4.323090693354367,0.1249018679120855
42.159052,4.35739138707913,0.1242519708988858
42.163644,4.386417658832153,0.123706412195198
42.168232,4.40914788945164,0.1232859395977888
42.172828,4.431956163336646,0.1227903525252077
42.177416,4.455619730220671,0.1222168863756185
42.18202,4.475030494294748,0.1217000602520188
42.1866,4.487656478378707,0.1213488157643702
42.191192,4.501670635766896,0.1209389279034216
42.195772,4.520548519535763,0.1204191705689429
42.200376,4.533008177456948,0.1200169960786506
42.204964,4.546856008682364,0.1195603550520805
42.209564,4.552120191022366,0.1192806662944163
42.214148,4.55288720112413,0.1190735282890084
42.218744,4.556186188406063,0.1187724343559737
42.223336,4.556253992039843,0.118495347384013
42.227928,4.559264468444857,0.1181556554669974
42.232516,4.563785302868247,0.1177466982157149
42.237112,4.570227190901078,0.1172994926334466
42.2417,4.57576964448626,0.1168675174810405
42.246296,4.578491610014353,0.1164886734092412
42.250876,4.579536891361299,0.1161246563473761
42.255472,4.578905488527092,0.1157755049674905
42.26006,4.5783962704070325,0.115414178415672
42.26466,4.576987617839324,0.1150673937888207
42.269252,4.573413542233883,0.1147802372001639
42.27384,4.571760520237883,0.1144546487750652
42.27844,4.566509760451293,0.1141804382517883
42.283028,4.558071958465177,0.1139905552962625
42.28762,4.550533590926707,0.1137876239244355
42.292212,4.545038461711825,0.1135350987269151
42.2968,4.537500094173356,0.1133307766131631
42.301396,4.535069822443854,0.1130050329175292
42.305984,4.534194050181357,0.1126740938019854
42.310572,4.530253420433478,0.1124159915362819
42.315156,4.525046802095516,0.1122028425507056
42.319748,4.516242445966962,0.1120410593492193
42.324344,4.510014208467205,0.111851496430616
42.328932,4.503130905948094,0.1116524031086591
42.333528,4.496369788143126,0.1114421080138375
42.33812,4.48846486646222,0.1112655101638322
42.342712,4.481092825086524,0.1111087827376441
42.3473,4.476296902339626,0.1109247356620175
42.3519,4.473299848488024,0.1107154071853214
42.356496,4.471080044369924,0.1105049417369124
42.361088,4.471680728308915,0.1102473129172416
42.365684,4.473180846695553,0.1099784773519283
42.37028,4.4824873642341005,0.1095603704182359
42.374876,4.4942036742386735,0.1090627730212567
42.379472,4.501422812005006,0.1086274194843865
42.38406,4.509541384218988,0.108180373889509
42.388656,4.517782141147116,0.1077241059919518
42.393244,4.524224029179947,0.1072933294213447
42.397832,4.5291114177457725,0.1068625388635046
42.40242,4.5352647949016855,0.1063881881551043
42.407016,4.5435835950953285,0.1058571267608712
42.411608,4.554845068060208,0.1052711109135937
42.4162,4.559566130463262,0.1047861688300912
42.420784,4.565308812028108,0.1042821893420348
42.425376,4.573461286058978,0.1037081587844328
42.429972,4.588887278936549,0.1029818741832706
42.43456,4.609665737051379,0.1021384450400951
42.439148,4.633875606794026,0.1012187488797924
42.443756,4.655509357907875,0.1003203285458071
42.448344,4.674444805678782,0.0994523284494884
42.452936,4.692725188430331,0.0985835505053837
42.457524,4.711249940610172,0.0977022527837983
42.462112,4.724011531961689,0.0969146579146518
42.466708,4.739349241942004,0.0961185766067605
42.4713,4.756852374960051,0.0952749949019277
42.475896,4.775254942425746,0.0944268337722756
42.480472,4.792513706015503,0.0936076676479368
42.485064,4.811082599643972,0.0928130126987863
42.489644,4.832349796615384,0.0919930563051106
42.494252,4.855948742787303,0.0911861414512382
42.498844,4.882123807588021,0.0903732573085059
42.50344,4.909609002427451,0.0895933572927106
42.508036,4.94351242311456,0.0887476250460199
42.512632,4.977948724106882,0.087933345184099
42.517224,5.006788190433653,0.0872465642917809
42.52182,5.029375757075519,0.0866826011610924
42.526424,5.049675715965504,0.0861824903969003
42.531016,5.065400459351733,0.0857910024407738
42.535604,5.08537800554791,0.0853861166138351
42.5402,5.110752158429974,0.0849446747851449
42.54478,5.134738138007808,0.0845494217301287
42.549364,5.153616021776674,0.0842313154485295
42.553952,5.174825654746046,0.0839202571219051
42.558548,5.19489148383948,0.0836394695987148
42.56314,5.214346389362186,0.0834056361197557
42.56772,5.233801294884891,0.0831746464877099
42.57232,5.25877499180763,0.0829018549628715
42.5769,5.284648123178015,0.0826252788578262
42.581492,5.309377450672462,0.0823740181845391
42.586076,5.329609605928669,0.0821540599756535
42.590664,5.3489423267372285,0.0819443479236859
42.595272,5.36402224473584,0.0817471807661286
42.59986,5.377303293839156,0.0815642144582204
42.604448,5.386087170704231,0.0814089932384264
42.609044,5.399734773949984,0.0811996946915503
42.613636,5.414648365785821,0.0809594365703238
42.618232,5.427763088726365,0.0807323592227811
42.622808,5.438546062466399,0.0804947702852404
42.627408,5.446752917577637,0.0802670171803457
42.631996,5.448785916269486,0.0800691239503932
42.636596,5.4493866002084745,0.0798558354393491
42.641188,5.458815302461169,0.0795456679009316
42.645788,5.466933874675151,0.0792124775225942
42.650384,5.472720697688626,0.0788709060745792
42.654976,5.47683083652095,0.0785299954788438
42.65956,5.482084779229213,0.0781700379521227
42.664148,5.48308591912753,0.0778215554456451
42.668736,5.481999679253632,0.0774469525744418
42.673328,5.484222666293404,0.0770198825060805
42.67792,5.487589457209116,0.0765702001460615
42.682508,5.484538022277147,0.0761587925128337
42.687096,5.481486587345178,0.0757449594913634
42.691696,5.476636283517912,0.0753402847906828
42.696284,5.474606467747737,0.0749120090736451
42.70088,5.470244902777056,0.0744731438899855
42.705476,5.464739533930434,0.0740546063867535
42.710064,5.458212545922019,0.0736480443949326
42.714664,5.455405480418342,0.0732148035719688
42.719252,5.452842784342956,0.0727653702071228
42.723848,5.454000010772308,0.0722901556900682
42.728436,5.456833921382809,0.0718140708926461
42.733024,5.456969528650367,0.0713566148945504
42.73762,5.459803439260868,0.0708892661033754
42.742208,5.465213468500167,0.0704208204064394
42.746812,5.475487224120141,0.0699120637563945
42.7514,5.483839926130674,0.0694218139921797
42.755988,5.4901493898176215,0.0689540214981162
42.760596,5.497891168257428,0.0685048648430498
42.765196,5.503467523659499,0.0680902028854617
42.7698,5.515462104909252,0.0676511429103864
42.774392,5.53604033504442,0.0671548253963499
42.778996,5.563281160455559,0.0666203784694227
42.783584,5.594364093085581,0.0660640621533871
42.788184,5.631210186543927,0.0654784368976671
42.792772,5.672431267526366,0.0648947565622758
42.797372,5.718638259603627,0.0642754218410347
42.801956,5.767787924452121,0.0636375761928312
42.806552,5.818614273481768,0.0630108048882298
42.811144,5.869973502816625,0.0624089574350919
42.81574,5.921987797170838,0.0618274844487378
42.820328,5.977844198743934,0.0612314522886598
42.82492,6.032190242298655,0.0606811063485605
42.829508,6.084615232243933,0.0601478216577666
42.834104,6.136018603027418,0.0596301437399853
42.838692,6.18640035464911,0.0591308473087099
42.843284,6.237437171290158,0.058647516211611
42.847872,6.293093344883591,0.0581527762541175
42.852468,6.351692191248259,0.057647780596503
42.857048,6.410535407041218,0.0571351276993113
42.86164,6.464104200862436,0.0566362326474975
42.866232,6.512809268302976,0.0561717021353609
42.870824,6.5555068054869015,0.0557545298043413
42.875416,6.593340616290152,0.0553667808389463
42.880004,6.622590778207988,0.0550202860638356
42.884596,6.647221583173439,0.0546890136877223
42.88918,6.668010280920007,0.0543790797419969
42.893768,6.683402371980689,0.0540751719166412
42.898356,6.698383767450306,0.0537499974379515
42.902952,6.714631151510007,0.0534071613535431
42.90754,6.726259178617323,0.0530745761426473
42.912148,6.732368414324608,0.0527544538070354
42.916748,6.734224847221944,0.0524235593915607
42.92134,6.736203464833425,0.0520866487083317
42.925932,6.733684910206667,0.0517514421470685
42.930532,6.7254031947515855,0.0514378833819883
42.935112,6.714012480362494,0.0510994300064058
42.939712,6.698002409021019,0.0507696805981529
42.944292,6.671609819898834,0.0504680918890038
42.948892,6.64125293884362,0.0501853355167759
42.953488,6.604766342817645,0.0499400705179546
42.95808,6.5676246817723145,0.0496791064926587
42.962664,6.530072325135919,0.0493898416837877
42.96726,6.490843284318372,0.049090968343044
42.971848,6.450836993767324,0.0487816382022187
42.976444,6.408132399873332,0.0484689891061068
42.981032,6.357743591541576,0.0481796560111719
42.985628,6.30506717545794,0.0479127222307886
42.99022,6.240375698861075,0.0477116713379705
42.994804,6.165301704483499,0.0475339268622598
42.999396,6.091127144553571,0.0473531503019471
43.003988,6.0137655424241165,0.0471973473989507
43.008584,5.93730337474231,0.047036209749815
43.013164,5.856099665393973,0.0468840517091631
43.017748,5.772608348293758,0.046758848014475
43.022332,5.689361400621835,0.0466146531337814
43.026912,5.602438671893801,0.0465266631344112
43.03152,5.51155165123274,0.0464587502843
43.0361,5.423362933914623,0.046389802330508
43.10498,4.061761844153399,0.0463487118773279
