Time,Force,Position
36.461548,1.9747409501723248,0.1723483572836548
36.466128,2.068218202882316,0.1710710922327627
36.47072,2.1626626936737328,0.1688141158143272
36.475304,2.246836611766848,0.1671724278575616
36.479892,2.323438260504604,0.1657207268688959
36.484488,2.394877432353025,0.1640764816277658
36.489072,2.456046031503145,0.1626414411966534
36.493652,2.507354753546028,0.1615916104931667
36.498248,2.5491701526241104,0.1607847149462896
36.50284,2.5913860076615194,0.1596412025899498
36.507436,2.633102884210607,0.1582837917286651
36.512016,2.6730547936812883,0.1567963402303577
36.516616,2.7038460325127174,0.1556695542676422
36.521204,2.732794261000222,0.1545131484813929
36.525804,2.7595329250013667,0.1534518976055995
36.530396,2.7871268820015307,0.1523121012596177
36.534992,2.810756547068666,0.1514094410162796
36.539572,2.8364294504593883,0.1504361119459989
36.544168,2.8575271383463545,0.1497608507049169
36.548768,2.885986627977277,0.148947800195783
36.55336,2.909504347962005,0.148457982016833
36.557964,2.9376414248991187,0.1477915706980071
36.56256,2.964801024123067,0.1473035688426039
36.567148,2.9944145572616674,0.1467677551899459
36.57174,3.0276258281908595,0.1461349902862426
36.576332,3.059326741101675,0.1456120281447685
36.580916,3.099244748755467,0.1448192711227862
36.585504,3.1394071258375504,0.1439859269347422
36.5901,3.180346752653136,0.1431447470448454
36.594692,3.2185880761257777,0.1424138331078348
36.599272,3.25400891154133,0.1418201430377342
36.603872,3.2894297469568827,0.1412494233262451
36.608452,3.3281598092861064,0.1405159621409689
36.613044,3.36803367549127,0.1397299157823706
36.617628,3.4053314230676364,0.1390235137211057
36.622216,3.4355558797769654,0.1385162289159738
36.626808,3.468067944238173,0.1379127882438737
36.631392,3.496449390603577,0.1373982375960432
36.635984,3.524953021683128,0.1368580925563678
36.640584,3.544217938857909,0.1365899878250364
36.64518,3.5711670704704552,0.136078199051335
36.649772,3.5960729637594144,0.135646270700846
36.654364,3.6194243575813694,0.1352383038216133
36.658964,3.640732513079736,0.1349057664847815
36.663552,3.658442930787513,0.1346701803989948
36.668152,3.6792182059806695,0.1343236859198901
36.67274,3.694352505059648,0.1341444113371755
36.677336,3.7111634883197766,0.1339385842095553
36.681932,3.7252761682369617,0.1337947110712281
36.686524,3.741554271191879,0.1335710624069754
36.691112,3.753868082213768,0.1334732335510162
36.695708,3.7646273937686536,0.1333926775602961
36.700296,3.7725662172664487,0.1333894592051283
36.704892,3.779972160459034,0.1333665355754741
36.70948,3.787622473079909,0.1333168895006653
36.714072,3.799892142653171,0.1331540762389973
36.718664,3.8068873902546905,0.1330990134157695
36.723252,3.8141270072845024,0.1330177378664236
36.72784,3.824020786208629,0.1328040633286916
36.732424,3.836324357598779,0.1324774862519526
36.73702,3.8411439425308265,0.1322640184928834
36.741608,3.8456750165859552,0.1320015098183062
36.746208,3.846730537564638,0.1318024123305113
36.750788,3.8477419170946927,0.1315266706036569
36.75538,3.848098231605391,0.1312427286306844
36.759976,3.846122796915583,0.1309772762117828
36.764564,3.844758285796503,0.1306422771279386
36.769168,3.841306394905208,0.1302979873835372
36.773756,3.843862034270528,0.1297729274862555
36.778344,3.839999447788168,0.1293940109781201
36.78294,3.8386688384859777,0.1288935376943044
36.787528,3.8366831641644303,0.1283864785832871
36.792124,3.834697489842883,0.1278772151710483
36.796712,3.833611249968984,0.127352901347733
36.801308,3.8299488914662874,0.1268703607591473
36.805896,3.8199904918300542,0.1265177045544
36.810496,3.811053711355616,0.1261308508231207
36.815084,3.8016281920245945,0.1257979561056461
36.819676,3.789015630494047,0.1255741231384732
36.824272,3.7782019378587943,0.1253120325896865
36.828864,3.766777321652815,0.1251169136555752
36.833448,3.756907204913839,0.1249104050005472
36.838044,3.7485915876418674,0.124693499731562
36.842632,3.7417082851227534,0.124479077202692
36.847228,3.736501666784792,0.1242404538623526
36.851816,3.732971732627979,0.1239779566281837
36.8564,3.732550797405175,0.1236977930589189
36.860988,3.7352388611163794,0.1234016263526504
36.865588,3.7317972098568233,0.1232933882741653
36.870176,3.731708926959567,0.1231400135358151
36.874752,3.7321535243675217,0.1230097523937008
36.879348,3.733131002080687,0.122902613025639
36.883928,3.738850021460384,0.1226837396277688
36.888524,3.7426479872306384,0.1225143243944496
36.893112,3.746856648591959,0.122379101454258
36.8977,3.759282404696255,0.1220782799404168
36.902292,3.770442172210466,0.1218314588182779
36.906884,3.780580320562884,0.1216129813759723
36.911488,3.7917400880770953,0.1213630204761669
36.91608,3.804576539772456,0.1210979178478471
36.920672,3.82293178286785,0.1207161025903353
36.925276,3.8411648412490975,0.1203516538091458
36.929864,3.8584984651826986,0.1199979740494303
36.934456,3.875709904402153,0.1196614562423787
36.939036,3.892921343621608,0.1193294085187765
36.94364,3.9116872823080673,0.1189977624544943
36.948228,3.929553786546879,0.1186898772927285
36.952828,3.942800933833305,0.1184757077647181
36.957416,3.9612783616428446,0.1181076035115665
36.962008,3.984741700547207,0.1176205977680553
36.966592,4.00844940887986,0.1171143066001123
36.971188,4.032401486640803,0.1165889570397931
36.975776,4.050834773001715,0.1161722397767415
36.980372,4.069923124381983,0.1157668622227561
36.984972,4.094119571571219,0.1152327028991036
36.989568,4.1107539890368345,0.1148555544152309
36.994156,4.13327375204492,0.114348575492701
36.998752,4.160002176414326,0.1137293594697179
37.00334,4.188651654393173,0.113077442578056
37.007924,4.211904525686133,0.1125111961595818
37.012516,4.23384726694038,0.1119361082178265
37.017108,4.257055996784711,0.1113207899283669
37.021704,4.289214929656893,0.1105222631662109
37.026292,4.32263985111916,0.1096877025195092
37.030892,4.354265903686131,0.1088808648046515
37.035472,4.3817613381573,0.1081085736133673
37.040064,4.40782445787561,0.1073347034817459
37.04466,4.433354697288709,0.1065283870228944
37.049248,4.451855787283399,0.1058774286220512
37.053844,4.462917032268615,0.1053532191178546
37.058428,4.471035604482597,0.1048875731336464
37.063016,4.47825474224893,0.1044364755379069
37.067612,4.490459791110085,0.1038846322690947
37.0722,4.503397948256115,0.1032709664982972
37.076796,4.5099178795544645,0.1027524929431935
37.081388,4.52154590666178,0.1021214673398855
37.085984,4.528554576816711,0.1015641338399563
37.090572,4.530288824999901,0.1010638223019217
37.095168,4.532267442611382,0.1005472496511369
37.099756,4.537066548279952,0.0999851798213736
37.104348,4.539700230910791,0.0994778734996429
37.108932,4.536448567999159,0.0990754180553828
37.113524,4.525390505935616,0.0988116751972857
37.118112,4.513433009424425,0.0985575162302403
37.122708,4.502497132075027,0.0982821287627549
37.127296,4.492993569478489,0.0980175741171594
37.131888,4.482346203006012,0.0977830056114864
37.13648,4.479260866257153,0.0974398166662756
37.141064,4.482427429193201,0.0969645368971019
37.145652,4.491112783529283,0.0964221967146072
37.150244,4.505805668121979,0.0957756801185053
37.15484,4.519476933552882,0.0951489150773463
37.159432,4.530860591231908,0.0945903303796699
37.164024,4.540201010587347,0.09407321230842
37.168604,4.553916417466877,0.093521978433096
37.173196,4.563789717127525,0.0930287605603776
37.177788,4.57546188568347,0.0925197012819322
37.182368,4.591142487621071,0.0920089827716161
37.186972,4.600937744016203,0.0915898490369023
37.19156,4.615474542077865,0.0911161483483256
37.196152,4.63103295930132,0.0906242566649218
37.20074,4.6523545373531,0.0900501171790748
37.205316,4.6767409728902605,0.0894255913933279
37.209912,4.695242062884951,0.0888862515783858
37.214492,4.718240325117881,0.0883157908418642
37.219092,4.743526195102688,0.0876950420013068
37.22368,4.768934249801641,0.0870631299911282
37.22828,4.790378012567566,0.0865056096676298
37.232864,4.810433602029262,0.086002122249601
37.237464,4.827913072862157,0.0855167494533878
37.242052,4.839507198152584,0.0851165245790814
37.246644,4.851223508157156,0.0847058548658159
37.25124,4.862162568428228,0.0842943700739512
37.255836,4.87363450900451,0.0839048948695572
37.260436,4.884573569275581,0.0834977755897261
37.265032,4.901808670680186,0.0830491739285419
37.269624,4.917122718475349,0.0826242068160582
37.274216,4.930105017070006,0.0821923083413659
37.278804,4.947828857331195,0.0817074010550354
37.2834,4.959911721478205,0.0812854526386962
37.287988,4.973915639234656,0.0808456392509568
37.292588,4.988163926419398,0.0803935076550216
37.297176,4.996526868061671,0.0800124861320843
37.301776,5.014617262465296,0.0795199871356515
37.306372,5.026778169877824,0.0790456097930943
37.31096,5.034852600643176,0.0786307350370113
37.31554,5.0457475194656185,0.07819278517642
37.320128,5.055743003840413,0.0777622094182897
37.324716,5.065982857643498,0.0773166055747113
37.329312,5.0790431995036736,0.0768517527155407
37.3339,5.096067833296877,0.076342279863372
37.338508,5.116035139861316,0.0758041918784629
37.343088,5.134081392816313,0.0752837459814932
37.347676,5.152249830485455,0.0747549116758726
37.352276,5.170173898726307,0.0742483969405995
37.356876,5.182945729709563,0.0737582140657679
37.361472,5.201602906235289,0.0732133405052188
37.366048,5.223080570818103,0.0726512764439676
37.370648,5.246479289010359,0.0720793577428002
37.375228,5.273720114421497,0.071479813824806
37.379832,5.300061505384988,0.0708911679530233
37.384416,5.327546700224418,0.0702935126232053
37.389016,5.359895621444524,0.0696506173167801
37.393612,5.389424054607541,0.0690409109156216
37.398208,5.420384802523417,0.0684505076968938
37.4028,5.4565758309624055,0.0677994132019287
37.407396,5.493910663277333,0.0671408073053649
37.411984,5.531367680306408,0.0664776157890348
37.416584,5.567148013154331,0.065817286940433
37.421176,5.598186804335724,0.0651926317138396
37.425768,5.629103410802972,0.0645844937643024
37.430356,5.656055725337192,0.0640134712586283
37.434944,5.686195082070936,0.0634052152133895
37.439528,5.71862204655656,0.0627662174359514
37.44412,5.752314999632269,0.0621091122072318
37.448716,5.785885767993832,0.0614615894413752
37.453292,5.812793941079424,0.0608603605954952
37.457888,5.83675944139378,0.0602847653142661
37.462472,5.856349954184043,0.0597157723882294
37.467064,5.869155686984188,0.0591913760566164
37.471656,5.882983038946126,0.058662150731549
37.476244,5.8899034262038015,0.0581839187899654
37.480852,5.898089802051561,0.0576857428567279
37.485444,5.901534636232792,0.0572106553043283
37.490044,5.902281167071077,0.0567384293765464
37.49464,5.898041786814542,0.0563044652064955
37.499228,5.888938680177328,0.0559000778469524
37.503832,5.87971338882597,0.0555029018093281
37.50842,5.872164781655762,0.0551105128945967
37.513024,5.863838924752052,0.0547088215794838
37.517612,5.8517931453436045,0.0543186276060279
37.522208,5.8437116578681865,0.0539020183055765
37.526796,5.834364181802682,0.0535088183243547
37.531396,5.821296783232441,0.0531258458622436
37.535984,5.800300800796145,0.0527903402729655
37.540588,5.782125306416936,0.0524446312085724
37.54518,5.764971431199519,0.05208864547053
37.549776,5.750638044039192,0.0517234737711012
37.554368,5.738758590793521,0.0513701486082049
37.55896,5.733008852518607,0.0509688619123171
37.56356,5.720474334253576,0.0505978786548652
37.568152,5.708717065722049,0.0502297663815633
37.572744,5.692628951115057,0.0499067465231102
37.577336,5.677318086241565,0.0495879077484927
37.581924,5.665604959158666,0.049266500728234
37.586512,5.653647462647475,0.0489578248710751
37.5911,5.641567781422138,0.0486544133882674
37.595696,5.625768177692065,0.0483570093688482
37.600288,5.6078031509242585,0.0480820361424326
37.604884,5.590248819747517,0.0478347327210883
37.609476,5.569629631085395,0.0476077586410603
37.614064,5.547866638547334,0.047395742298609
37.618664,5.523160973238039,0.0471974822943008
37.623244,5.498988188233952,0.0470198172090228
37.627836,5.478657510448751,0.0468244437658129
37.632432,5.451297683245139,0.0466738383252161
