Time,Force,Position
38.546196,2.0447014079460004,0.1536306116442814
38.550788,2.142220995854537,0.1527379199770451
38.555384,2.224562143235467,0.1522731118813621
38.559972,2.298265260650617,0.1516587682320375
38.564564,2.360309632063234,0.1514829267570947
38.569156,2.4164584183016427,0.1512483516350814
38.573748,2.466178739060631,0.1508657774602107
38.578336,2.51396776657844,0.1501036986376085
38.582936,2.5498536786654245,0.1496960747043166
38.587516,2.577922951968759,0.1493521810661915
38.592116,2.602550574012538,0.1488769124420945
38.596696,2.6273342825873502,0.1481426245567459
38.601292,2.642712951094621,0.147771191077353
38.605888,2.6557598704013845,0.1474490245939132
38.61048,2.6732598204977585,0.1468686648771068
38.615072,2.6919035744700723,0.1462407502544466
38.619664,2.708992828975381,0.1456494629008553
38.624256,2.73111213602414,0.1449517301701016
38.628848,2.7573620611687018,0.1441652339656023
38.63344,2.785210627228896,0.1434737665787334
38.638024,2.8104491728434025,0.1430891011349312
38.642612,2.837452685536316,0.1428734246060305
38.647208,2.8714514458307483,0.1425485467974273
38.651804,2.9134670728884946,0.1421018743717296
38.656392,2.961412186937339,0.1415317481704065
38.660984,3.010423061596605,0.1410233892410574
38.665576,3.067284476856409,0.1403492006851941
38.670168,3.128276510212016,0.1396312242332271
38.67476,3.1938879005200085,0.1387534614481621
38.679348,3.2615866706002152,0.1378854251917557
38.683944,3.329041071252131,0.1370594885973911
38.688532,3.3943300488663137,0.1363741221451846
38.69314,3.461784449518229,0.1356068277901636
38.697732,3.529483219598436,0.1348143816945681
38.70232,3.593051371582842,0.1341490038297187
38.706916,3.65428777436674,0.1335371354949142
38.711504,3.714991296845428,0.1329102171276606
38.716108,3.7671892137042193,0.1324476718901693
38.7207,3.814845816876143,0.1320173135786673
38.725304,3.8591049102371393,0.1315682264941712
38.729888,3.902909166558443,0.1310087977773989
38.734492,3.945481336106551,0.1303566711482029
38.739072,3.98939753751026,0.129572705907649
38.743676,4.024275252988862,0.1289205634870626
38.748264,4.05064736284757,0.1284122178255798
38.752864,4.072722528447701,0.1278967100507695
38.757452,4.083349415656701,0.1276082714894985
38.762044,4.091722596930713,0.1272596314150404
38.76664,4.097231148699006,0.1269074126828308
38.771236,4.100363809818165,0.1264986378859054
38.775832,4.10394106834528,0.1259702405013062
38.780432,4.103343567327963,0.1254179936833624
38.785024,4.09538426456669,0.1249429646947986
38.78962,4.084682517013845,0.124446554373942
38.794208,4.068706347489258,0.1240382413380281
38.798792,4.052441667087752,0.1235820341319688
38.803372,4.03078038000036,0.1232267223969991
38.807964,4.010751635645489,0.1227745301833329
38.81256,3.993132683756642,0.1222201109425899
38.817148,3.9737148629724985,0.1216954767475654
38.821748,3.9508656305605374,0.1212980616614735
38.826336,3.924052106215551,0.1210043874573101
38.830932,3.894295909099327,0.1207788957385848
38.83552,3.867893080345404,0.1205114198580634
38.840108,3.846231793258011,0.1201314115728989
38.844712,3.825758451495185,0.119781735976855
38.849304,3.812602770027688,0.1192798765227523
38.853912,3.793850253894641,0.1189795319968315
38.858492,3.7737095644573615,0.1187477995010668
38.86308,3.755778439506445,0.1185144743427196
38.867676,3.7338049793569823,0.1184760968153541
38.872268,3.716372832894386,0.1184265844651431
38.876872,3.705891792584682,0.1182687345078845
38.88146,3.6983975664948416,0.1181097034557968
38.886068,3.697976631272037,0.117833070848844
38.890656,3.692858295831331,0.1177396552351018
38.895256,3.698000293457188,0.1174280680333886
38.899844,3.705762551160472,0.1171574773787621
38.904444,3.713568950312382,0.1169666455017182
38.909032,3.726038847865306,0.1167591711116339
38.913632,3.743128102370616,0.1164576108376932
38.918216,3.765902474438731,0.1161105385038601
38.922812,3.7898647918314143,0.1158011670338384
38.927408,3.817180477586398,0.1154621726376239
38.932004,3.8446624895041546,0.1151899316571689
38.9366,3.8765194889460055,0.1148564635346341
38.9412,3.909031553407213,0.11454889265557
38.945788,3.943997551783073,0.114211209944819
38.950384,3.9834607223971705,0.1138004201459027
38.954976,4.020636285259391,0.1134718095209652
38.959564,4.065740431987668,0.1129557653191046
38.964144,4.110067328982443,0.1124542874210498
38.968736,4.153006052672987,0.112028851628553
38.973332,4.194923157201738,0.1116352978272682
38.97792,4.234919208121047,0.1112954654682035
38.982504,4.279123920401676,0.1108326116882139
38.987092,4.319242156035131,0.1104917435171301
38.991684,4.36177018413461,0.1100775753557284
38.99628,4.403398777786441,0.1096802471118415
39.000868,4.445516110294856,0.1092474342251631
39.005464,4.487511258089123,0.1088329293976628
39.010052,4.527296841397031,0.108418605573043
39.014656,4.563606871628492,0.1080392517127833
39.019252,4.596563533497655,0.1076933190346955
39.02384,4.629231684489897,0.1073086863922165
39.028436,4.661855694033511,0.1068744144117022
39.033028,4.689083096891237,0.1065122879554577
39.03762,4.717698673053195,0.1060961366953262
39.0422,4.744637565034003,0.1056987332357222
39.0468,4.771410130852036,0.105247936125197
39.051392,4.791886655536535,0.1048842824346586
39.055988,4.8051677046398495,0.1046046753015796
39.060584,4.819059677313894,0.1042769560234388
39.06518,4.831397150520933,0.1039502767772165
39.069768,4.840259070651529,0.1036570181390952
39.07436,4.8483437410486205,0.103365748896505
39.07896,4.853441597225849,0.1030663922026475
39.083544,4.854941715612486,0.1028121222558654
39.088148,4.856031138408058,0.1025282538474482
39.092744,4.855688246450772,0.102237053849227
39.097332,4.854035224454773,0.1019269671762071
39.10192,4.851604952725272,0.1016174353276223
39.106512,4.853505527071236,0.1012093736137103
39.1111,4.854873221111989,0.1007811251456396
39.115688,4.8555858501333855,0.100344275751588
39.120284,4.850413133612311,0.1000039751890766
39.124876,4.844463167357735,0.0996605975373396
39.129464,4.837980320797949,0.0992972618347993
39.134064,4.830842409218805,0.0989238741440058
39.138648,4.8274244201444,0.0985051343662404
39.14324,4.822085377460554,0.0981118247672862
39.147828,4.826107233395622,0.0975958585252301
39.152408,4.828574589863686,0.0970819367613749
39.157,4.836027857426571,0.0964894435152861
39.161588,4.845524363313045,0.0958587109307421
39.166176,4.854121434751869,0.0952367417411604
39.170772,4.863251386495906,0.0946331388799874
39.175364,4.870704654058793,0.0940361788705182
39.17996,4.8790573560693264,0.0934337406562685
39.184548,4.883567950860977,0.0928839458773554
39.189148,4.888078545652628,0.0923355188702498
39.193736,4.892056260139068,0.0917666760250067
39.198336,4.894890170749568,0.0912300719494764
39.202928,4.901199634436516,0.0906753384317349
39.20752,4.907264728695171,0.0901411738901872
39.212116,4.921014037391592,0.0895128360996377
39.216708,4.938605453306896,0.0888344630105763
39.221288,4.953132011736818,0.0882051495544566
39.225884,4.965615331843154,0.0876088165088591
39.230472,4.976954848073552,0.0870470998853785
39.235068,4.993035905970479,0.0864309916365288
39.239656,5.005397041362668,0.0858596572422664
39.244244,5.011628461784099,0.0853810280249006
39.248832,5.012873971110706,0.0849778913405052
39.253432,5.01477454545667,0.0845878073909188
39.25802,5.020272857593225,0.0841733324751306
39.262616,5.02744785391093,0.0837551095039722
39.267208,5.038098403305081,0.083321244058908
39.2718,5.046827899089792,0.0829108622927659
39.276392,5.058133513503298,0.0824886485551127
39.28098,5.070216377650308,0.0820717247040778
39.285576,5.080544514350651,0.0817238687881315
39.290172,5.089728847175053,0.0814024276494154
39.29476,5.095970507228221,0.0811204538296354
39.299356,5.1010683634054494,0.0808625386493095
39.303944,5.099259254878415,0.0806934016941887
39.308536,5.095529092741939,0.0805449350877201
39.313128,5.099238775614936,0.0803332419615473
39.31772,5.108589434602114,0.080071369238133
39.322324,5.1131985519227605,0.0798551894360045
39.326912,5.114742811758026,0.0796830314826979
39.331508,5.119884809383883,0.0794909058036505
39.336092,5.136963824257453,0.0792117576289323
39.340692,5.153920654416879,0.078940466363661
39.345272,5.172920722899892,0.0786451000023074
39.349868,5.192287345525341,0.0783306644588163
39.354464,5.214841010350316,0.0779724356421984
39.359064,5.23739467517529,0.0776191744969618
39.363648,5.262524458629063,0.0772622075168267
39.36824,5.289453110978132,0.0768984334162691
39.37284,5.315360144165405,0.0765499918269065
39.377432,5.347396892323442,0.0761265621089227
39.382036,5.38327574770036,0.0756747823686781
39.386628,5.421075656686721,0.0752098717051908
39.391208,5.460141554263165,0.0747167358406801
39.395804,5.500106886287259,0.0742157483734174
39.400392,5.5446915752637365,0.0736916692440667
39.40498,5.583635288126038,0.0732173017970516
39.409568,5.6179596440359525,0.0727780850357472
39.414164,5.65919096465013,0.0722742311982811
39.418748,5.702709893016186,0.0717329201940339
39.423328,5.7409543994105,0.0712130743139507
39.42792,5.773147234099572,0.0707137519789546
39.432508,5.808649295702316,0.0701678920751164
39.4371,5.8377331314573775,0.0696570385063819
39.441692,5.861831056117619,0.06919887925128
39.44628,5.88310849272077,0.0687656346108921
39.450884,5.901809810695124,0.0683370947641974
39.455476,5.918057194754825,0.0679048824311005
39.460064,5.929929591290432,0.0674808561072306
39.464668,5.9420463572543305,0.067042533228765
39.46926,5.951464819875287,0.0666186778679399
39.473852,5.9525440030391215,0.0662359738101241
39.478432,5.95014763312651,0.0658574313049071
39.483032,5.947751263213895,0.0654791777155003
39.487612,5.950340804396106,0.0650596563231734
39.492212,5.948310988625931,0.0646629792177056
39.496804,5.950367649502929,0.0642283708495518
39.5014,5.955366983151163,0.0637731579708998
39.505992,5.954480971256927,0.0633634950431571
39.510588,5.952573340200897,0.0629644589583998
39.515196,5.952342393326017,0.0625674055370169
39.519788,5.950434762269988,0.0621666997908649
39.524376,5.945217904300287,0.0618093298448075
39.528976,5.946419272178265,0.0614301095277863
39.533564,5.947620640056244,0.0610487720054709
39.53816,5.946001519877134,0.0606805220734419
39.542748,5.946059083879174,0.0603159876855691
39.547332,5.944850659291129,0.0599738051337995
39.551912,5.952225883588498,0.0595884619140068
39.556488,5.959601107885866,0.0592041237757466
39.561084,5.965055278573793,0.0588314725592679
39.565664,5.977949294271195,0.0584307679930974
39.570256,5.996484286082774,0.0580095846709998
39.574848,6.0168181467896495,0.0575886128955827
39.579436,6.03085596636299,0.0571805983465805
39.584028,6.045915405098126,0.0567647570939196
39.58862,6.0570105519002295,0.0563781429311664
39.593208,6.065285210645246,0.0560040464264977
39.597804,6.073682054104409,0.055621132216198
39.602392,6.0868204392301,0.0552233263745814
39.606984,6.102124247393525,0.0548055605445311
39.61158,6.117960935862161,0.0544071153528696
39.616176,6.135307982349173,0.0539736952937148
39.620764,6.148157856597947,0.0535467057520827
39.625364,6.165094207493893,0.0530904284699503
39.629952,6.182152743103988,0.0526258604403001
39.634556,6.194714106475841,0.0521637165950036
39.639148,6.21160631592316,0.0516588637282007
39.643748,6.217871638161478,0.0512040006129394
39.648344,6.220539222609205,0.0507492956594831
39.65294,6.222063003180994,0.0503073859447518
39.657536,6.219089611514542,0.0498685683158064
39.662124,6.209331439857973,0.0494603118585893
39.666724,6.193687922658934,0.0490799876347158
39.67132,6.175756797708018,0.0487231250551917
39.675908,6.158969476633039,0.048351675818173
39.680504,6.140505471376912,0.0479705953523337
39.685092,6.118854423921256,0.0476146518921953
39.689676,6.097081191751456,0.0472630689568733
39.694268,6.06570269153445,0.0469454353684867
39.698864,6.026517792165533,0.046658942153618
39.703456,5.986555643063113,0.0463626097765877
39.708048,5.941363213437579,0.0461043096471854
39.71264,5.895804229669609,0.0458644649417728
39.717224,5.844237715645024,0.0456557197913867
39.721816,5.790505778582705,0.0454642876370219
39.726408,5.738450525701537,0.0452769675791207
