Time,Force,Position
36.09424799999999,2.677729049697866,0.1555555160816883
36.09884,2.77362633450562,0.1551784666485678
36.103432,2.864483327138184,0.1545776197739663
36.108036,2.946213550948385,0.1540912989453419
36.112632000000005,3.015341452859777,0.1538616150023096
36.11722399999999,3.0770973133954755,0.1535115335141429
36.121816,3.130703882821975,0.1530399178884424
36.126408,3.177960030034573,0.1523999128238024
36.13099199999999,3.209548997862982,0.1520729005728776
36.13558,3.2389181615732907,0.1514658689470079
36.172292,3.167404129381025,0.1511651628956184
36.181488,3.1318745318047387,0.1511120884082528
36.186076,3.1226153386364914,0.150859833491769
36.19067199999999,3.1153213405263136,0.1506209651504081
36.195268,3.1066391691119057,0.150479794643584
36.19986399999999,3.0996336818786467,0.1502962875651132
36.20445599999999,3.095204313274186,0.1500418294605614
36.218228,3.075430177979345,0.1498934996243896
36.222808,3.074564645348586,0.1497211998150197
36.227408,3.0703898858041567,0.1497205535574405
36.23199199999999,3.0676474410125847,0.1497147470208584
36.236588,3.069035614316815,0.1496171509050675
36.241168,3.0716117329456134,0.1495487476475261
36.24576,3.084448184640974,0.1491127413171709
36.250364000000005,3.098061886069837,0.1486686587701756
36.25496,3.1102874141944703,0.148323998864998
36.259548,3.130319341471014,0.14767706370446
36.26414,3.1494518342999105,0.1470547508077493
36.268728,3.1617995471386893,0.1466969951991006
36.273324,3.181054224681731,0.1460614394143206
36.277912,3.1982656639011853,0.1455302469117904
36.28250799999999,3.2158436572630777,0.1449621240478746
36.2871,3.233910389481552,0.1443301675742111
36.29168799999999,3.250955502538233,0.1437453021040502
36.296284,3.2650579428236792,0.143269554357691
36.30086,3.2786275028039142,0.1427758087801493
36.305452,3.294484670536028,0.142172271636098
36.31004,3.318270422134199,0.1412673527497042
36.314628,3.341034554570576,0.1404369889584684
36.319236,3.3649424908828927,0.1395542431266065
36.323824,3.3910158502329413,0.1385851696572881
36.328428,3.415534710115986,0.1376418364326137
36.333020000000005,3.4413195585891154,0.1366423594260227
36.33761199999999,3.459298007910334,0.135913856223508
36.342204,3.47649920749805,0.1351972934556496
36.346796,3.4949663956758505,0.1344140021926811
36.351388,3.509347107206477,0.1338019941511717
36.35598,3.528224990975344,0.1330885990566781
36.36058,3.553643285306036,0.1321885977391729
36.365168,3.575219472417845,0.1314241194284268
36.369772,3.594874605920213,0.1307158559642753
36.37436,3.613385935546642,0.1300682537093302
36.37895999999999,3.632185776049991,0.1294755923441904
36.383548000000005,3.653683919896283,0.1288291147492295
36.388144,3.678901986247313,0.1280849423404954
36.39272799999999,3.706451801798848,0.1273360272851588
36.39731999999999,3.7308145751508577,0.1267095810729044
36.40190799999999,3.752767556036843,0.1262107668268511
36.4065,3.769978995256298,0.1258371227061902
36.41108799999999,3.787967684209255,0.1254643769430285
36.415684,3.8058341884480655,0.1251143427972168
36.42026,3.823578507972732,0.1247784934525306
36.42486,3.840956273354961,0.1244896633104814
36.429448,3.863564319260303,0.1240296075609638
36.43404,3.887849049346795,0.1235523676895194
36.438632,3.9140548330427287,0.1230388917718469
36.443224,3.938461747843366,0.1225602110827955
36.447816,3.962335782338793,0.1220774815729315
36.452404,3.987109251281868,0.1215947095316377
36.456996,4.0124156005301534,0.12113465644506
36.46158,4.038865753654378,0.1206311747528066
36.466168,4.061473799559719,0.1202122290463034
36.470764,4.084570584321645,0.1197465734810964
36.475356000000005,4.106112869616565,0.1192971917758506
36.479956,4.125079036282688,0.1188852421986555
36.484556,4.139670215424715,0.1185412829887052
36.489148,4.154627948709182,0.1181580308954221
36.49374,4.167009563364849,0.1178101993164082
36.498328,4.180534981896457,0.1174178266053482
36.50292399999999,4.186987109561026,0.117136427615804
36.507504,4.19278417220624,0.1168496082772883
36.512104,4.198825604279744,0.1165384484422491
36.51669199999999,4.199836983809799,0.1162827380331383
36.521292,4.200726178625708,0.1160422887340821
36.525876,4.198262005079318,0.1158383669343866
36.530472,4.192200093742335,0.115694996310902
36.53506399999999,4.188303605443085,0.1154848796443273
36.53966,4.179787760191451,0.1153602421402391
36.544256,4.165098058520427,0.1153244538101326
36.548856,4.153062518743719,0.1151737807226995
36.553448,4.142170782842949,0.1149840917849689
36.55803999999999,4.136631512179439,0.1146406619382388
36.562628,4.130192807068281,0.1143113290824979
36.567212,4.120034179452386,0.1140478084152439
36.5718,4.111918790160077,0.1137324105557509
36.576396,4.107523323372507,0.1133504125217621
36.580988000000005,4.106725594375526,0.1129162283756331
36.585576,4.106172234806838,0.1124568984872289
36.590172,4.108439363295238,0.111947262894525
36.59476,4.118024152078968,0.1113139774467212
36.599352,4.126465136986758,0.1107210454971392
36.60394,4.13568337162805,0.1101294163335371
36.60852799999999,4.149276593793436,0.1094797835986164
36.613124,4.160826577635235,0.1088846188424265
36.61770799999999,4.176751549001127,0.1082392968388478
36.622312,4.19435320454817,0.1075816613336386
36.626908,4.212487740400424,0.1069538109137562
36.631496,4.233198394881475,0.1062996689302634
36.636092000000005,4.258161852172473,0.1056046865283475
36.64068,4.27789502894036,0.105047416545832
36.645288,4.295340597956367,0.1045624828242278
36.649868,4.312297428115792,0.1041326709569972
36.654468,4.329909323294573,0.1037160983306043
36.659052,4.347809729350273,0.1033360543763208
36.663644000000005,4.370984557377716,0.1029099498209084
36.66823599999999,4.390850158491485,0.1025759203715145
36.672832,4.40585203322458,0.1023352696615544
36.677416,4.423307841872326,0.1020842153216525
36.682012,4.442562519415367,0.101818660328734
36.68660799999999,4.466192184482503,0.1015210202548391
36.691196000000005,4.491376349016643,0.1012258450097162
36.695784,4.519503186322018,0.100887015533199
36.70037599999999,4.547630023627392,0.100552227473043
36.70496,4.580498402599297,0.1001544803891118
36.709544,4.610424108799968,0.0998113773553957
36.71413199999999,4.6392060111247,0.0994999521601302
36.718728,4.668354467591867,0.0991648121906735
36.72332,4.696481304897243,0.0988512982323101
36.72789999999999,4.724974696345054,0.0985142265965196
36.732496,4.758331814173543,0.0981024448888645
36.737076,4.79475378948741,0.0976349737269166
36.741668,4.832197383963074,0.0971589058068037
36.746264,4.869885347867028,0.0966680147433252
36.750852,4.913292331150677,0.0960373374845257
36.755448,4.948604404405495,0.0954985761865914
36.760036,4.987470074002276,0.094868548174205
36.764624,5.032221089141528,0.094153853218725
36.76922,5.07668359340386,0.0934109681477011
36.77381199999999,5.11280681820907,0.0927626335455361
36.77841599999999,5.1391584488043005,0.0922021858308601
36.782996,5.1641999493608175,0.0916241942233815
36.78759599999999,5.183722658517301,0.0911084080272615
36.79218399999999,5.203611921816222,0.0905696019062259
36.796784,5.213729590905163,0.0901061533390037
36.801372,5.223680933831329,0.0895948616167927
36.805972,5.234243200328224,0.0890382360329859
36.810568,5.240963359606236,0.0885309108698162
36.815164,5.249193876902623,0.0879725840685974
36.819748,5.255381155875425,0.0874501201568563
36.824344,5.254250774552898,0.0869924596585682
36.828932,5.251688078477513,0.0865235980783812
36.833528,5.242829341268592,0.086102339385575
36.83812,5.231394485430872,0.0856915002427821
36.84271199999999,5.21779420655542,0.0853220274938147
36.847304,5.202272874070526,0.0849715987236987
36.85189199999999,5.182132184633248,0.0846611440880244
36.856480000000005,5.157494322957732,0.0843816938744278
36.86107199999999,5.131468287977984,0.0841422977133666
36.865668,5.115169705759588,0.0837856833476993
36.870248,5.104512099655371,0.083372729723805
36.87483999999999,5.091278374922356,0.0829665184636862
36.879432,5.078944084636991,0.08255208528276
36.884016,5.065465990475684,0.0821612906414396
36.8886,5.057140133571974,0.0817490306784086
36.893192,5.050490960849413,0.0813337008417231
36.89778799999999,5.043597418698561,0.0809361662786974
36.902368,5.0407903531948834,0.0804803504913142
36.906956,5.035695679939328,0.0800715045261594
36.911552,5.029168691930914,0.0796455607425576
36.916132000000005,5.031103168093767,0.0791435404728143
36.92073599999999,5.035491578171273,0.0786473862481016
36.925324,5.044377160487018,0.0781231130228039
36.929924,5.058903718916941,0.0775549492998596
36.934512,5.072408658185072,0.0770035771200634
36.939112,5.091676758281525,0.0763957179004336
36.943704,5.1164636497780105,0.0757531222136674
36.9483,5.143171594883938,0.0750962020252217
36.952896,5.171267713294096,0.0744047608793033
36.957488,5.193356301447639,0.0737934295278838
36.96207199999999,5.21634432404883,0.0731878994234756
36.966668,5.242563530298174,0.0725910705741842
36.971256,5.27070379015696,0.0719802009838381
36.975848,5.299865669177541,0.0713609841524872
36.980436,5.330415721502352,0.0707089595796146
36.98501999999999,5.360843589113016,0.0700723454331558
36.989612,5.393314695047269,0.0694178391612935
36.99419999999999,5.4246419971055815,0.0687925125245057
36.998792,5.462099014134656,0.0681072653901394
37.003388,5.503931018687823,0.0674196035877252
37.007972,5.543064719898047,0.0667545326442243
37.012552,5.5795001177653285,0.0661068530078244
37.017144,5.616179885060899,0.06544976237815
37.021736,5.646974306814001,0.0648477484343198
37.026324,5.678013097995395,0.0642334169098688
37.030936,5.709051889176788,0.063628049222251
37.035524,5.737270192301093,0.0630450316221493
37.04012,5.765366310711251,0.062475242432046
37.044708,5.793218059693118,0.0619265878440285
37.0493,5.824256850874511,0.0613449159658957
37.053896,5.84953248122758,0.0608013509071612
37.05848399999999,5.876074100170734,0.0602382650161751
37.06308799999999,5.901716284666241,0.059680860199194
37.067684,5.927480653875893,0.0591210137526501
37.072288,5.954022272819047,0.0585735109899921
37.07688,5.977621218990967,0.0580466953845237
37.08148,5.995701373762853,0.0575380446203931
37.08606,6.00814055242056,0.0570516176909464
37.09066,6.0135505816598585,0.0566235779479494
37.095248,6.016384492270359,0.0561954042728787
37.099848,6.020240022042654,0.0557618626985158
37.104432,6.021397248472005,0.0553306732282716
37.109028,6.02357609406315,0.0548941446237057
37.11361599999999,6.025099874634938,0.0544414186213283
37.11820399999999,6.026623655206726,0.0539895833490649
37.122788,6.023039339969546,0.0535777818806591
37.12738,6.018311220856427,0.0531807201089681
37.131968,6.010762613686219,0.0527927712342758
37.136552,5.999494084011273,0.0524137825171581
37.141144,5.9842612624033,0.0520585057732116
37.14574,5.971071679118913,0.0516850634465363
37.150336,5.952118935006203,0.0513351110361552
37.154928,5.932266756445845,0.050984195556836
37.159516,5.909349720400106,0.0506548049648769
37.164104,5.883490011583133,0.0503400868489176
37.1687,5.860817344965684,0.0499938840082636
37.173292,5.84534015392942,0.0496444258315837
37.17788,5.837180623188484,0.049284541781667
37.18248799999999,5.827100038838106,0.0489289963684542
37.187076000000005,5.812932977840553,0.0486007429116779
37.191684,5.7896935291010045,0.0483294666892109
37.196276,5.768785829561963,0.0480777836961261
37.200872,5.741870599766306,0.0478612932286415
37.20546,5.718308738332949,0.0476574980285469
37.210044,5.694380322757155,0.0474743699147161
37.214648,5.6728616996473855,0.0472526211441708
37.219228,5.650321457375822,0.047036886509881
37.22382,5.622673119295292,0.0468554143724177
