Time,Force,Position
36.450696,2.156686265816812,0.1611330428931927
36.455288,2.2823736495576785,0.1606937147474653
36.459884,2.399955883637975,0.1600999934552263
36.464472,2.5105767719336423,0.1591231097915961
36.469052,2.6142363144446787,0.1581321258740423
36.47366,2.710035076723437,0.1570923304809146
36.478248,2.7975623631788524,0.1558603300845898
36.48284,2.875962880811904,0.1547847301397627
36.48744399999999,2.950388866880189,0.1535808954081262
36.492032,3.015688084126112,0.1525033369481949
36.496636,3.0682627947590797,0.1516786802357041
36.501232,3.111055671550327,0.1509244149732598
36.505836,3.140635302872038,0.1504573834905971
36.51042399999999,3.1616651871252253,0.1501781795871093
36.51502399999999,3.17606637791933,0.1499788326185851
36.519612,3.1839610599684973,0.1498266377337178
36.524212,3.1880475366156715,0.1496318885918747
36.52879599999999,3.1893474270226454,0.1493448277862339
36.53338399999999,3.1872498076186915,0.1490511832524406
36.53798,3.17922270122364,0.1489129485722328
36.54716799999999,3.160592369804738,0.1486962195395786
36.55175599999999,3.1512992748196007,0.1486318022182015
36.556344,3.14380504872976,0.148512528645645
36.56094,3.135577714355045,0.1484941982638741
36.56552799999999,3.128127629713832,0.1484641101373845
36.570112,3.126973586206154,0.1482381103625432
36.5747,3.127129672737189,0.1480242143416652
36.5793,3.1287180740210827,0.1478083984471753
36.583888,3.1319831594861265,0.1475558925112273
36.58848,3.138723798027616,0.1472098165306588
36.593072,3.1490621743596967,0.1467606511343142
36.59766,3.160422169853571,0.1462555785885116
36.602252,3.1728037845092385,0.1457094536088139
36.606836,3.184041595288967,0.1452220163447298
36.611428,3.1986327744309966,0.1446578348610403
36.616036,3.2126130300022964,0.1441839354895517
36.620624,3.2272483505929537,0.1437274567111891
36.625228,3.2427831056312586,0.1432437193042808
36.629816,3.2612605334407982,0.1426585204115533
36.634408,3.2737304309937225,0.142316238444364
36.638992,3.290941870213177,0.1418080326586133
36.643584,3.307786755290195,0.1413529513930145
36.648176,3.3300282470531006,0.1407587402387505
36.652764,3.3525141082442964,0.1401298377271277
36.657364,3.3767988383307883,0.1394602201297187
36.661956,3.3960976573224584,0.1389893900194271
36.666552,3.416662464904213,0.1384544956607505
36.67114399999999,3.4360393271614007,0.1379021608833514
36.67574799999999,3.4561934391520905,0.137351158701714
36.68034,3.478390789466367,0.1367379160522943
36.684936,3.495968782828259,0.1362558052224456
36.689528,3.5181661331425365,0.1356508104889467
36.694124,3.5421623523521086,0.1350160797293958
36.69872,3.5691012443329155,0.1342898031331761
36.703316,3.597428309617954,0.1335040629233048
36.707912,3.626121929045429,0.132680863707073
36.712512,3.6546933637587578,0.1318878157816544
36.717104,3.68289824432965,0.1311361137022562
36.721696,3.706239398519866,0.1305336162814476
36.726284,3.732767594909608,0.1298101239935325
36.73087999999999,3.7595401607276417,0.1290738386073783
36.73546799999999,3.786923650116404,0.1282754706570149
36.740064,3.810709401714574,0.1275760588995039
36.744656,3.834495153312745,0.1268766471419928
36.749244,3.857381470463268,0.1262066027777892
36.753836,3.882433210651523,0.1254595158433755
36.758428,3.905808266658629,0.1247451943850637
36.76301999999999,3.926895714913856,0.1241232308844169
36.767608,3.947205913435581,0.1235142296905439
36.772204,3.962530200862484,0.1230498796401159
36.776788,3.980919345774767,0.1224925446212516
36.781376,3.996610187344107,0.1219957358149464
36.785964,4.006537868085123,0.1216426088036076
36.79055999999999,4.01556611437849,0.1213112539231379
36.79514799999999,4.018586830415242,0.1211476836760653
36.799756,4.0198086775567,0.1210184584490547
36.804348,4.022174328574096,0.1208490583404187
36.80894399999999,4.028626456238665,0.1205659834562268
36.813524,4.036999637512676,0.1202351653992644
36.81812399999999,4.044884079930105,0.1199569807091577
36.822712,4.04868204570036,0.1197945578317231
36.827312,4.051991272614032,0.1196836151339975
36.8319,4.05427888036591,0.1196016716409694
36.8365,4.059386976174878,0.1194609722202322
36.841084,4.065394506431493,0.1193066727910001
36.84568,4.072057101707465,0.1191635992194908
36.850272,4.0812958156122345,0.1189900852400738
36.854868,4.093355017574094,0.1187601258180704
36.859464,4.104270415660014,0.1185699832702417
36.864052,4.118372855945459,0.1182860356664328
36.868632,4.134807045431412,0.1180009791251428
36.87322,4.153817353546163,0.1176886533382139
36.877812,4.177813572755736,0.1172553737359591
36.88240799999999,4.199888738355867,0.1168636248745588
36.886996,4.229892487822055,0.1162912698327457
36.891596,4.264393409526483,0.1156565964774349
36.896188,4.293131170402586,0.1151429073074807
36.90076799999999,4.315450705431007,0.1147428664875975
36.90535599999999,4.339691294068872,0.1143076186732277
36.90994,4.364542806277464,0.113818998267909
36.91452399999999,4.393602979847375,0.1132192229250855
36.91912,4.422008088397931,0.1126122255703242
36.923708,4.452334250557928,0.1119720336116981
36.928296,4.481760978270277,0.1113579427389411
36.932892,4.506323979601949,0.1108405980766177
36.93748,4.5303541006284105,0.110310187635479
36.94207599999999,4.5528297221878695,0.1097927881176554
36.946656,4.575549713175618,0.1092614643328002
36.95125199999999,4.599657877467597,0.1086773182194314
36.955832,4.622622237883636,0.1081303307009688
36.960428,4.642111045223231,0.1076276386287317
36.965016,4.662088591419408,0.1070937026195562
36.969616,4.68026726872029,0.1065878649760593
36.9742,4.696647077125876,0.1060993377804947
36.978796,4.704321051931902,0.1057686720994902
36.983404,4.705821170318541,0.1055075821498882
36.987996,4.712551569228292,0.1051275400458079
36.9926,4.724023509804573,0.1046709155971924
36.997196,4.732919331752056,0.1042391913410714
37.001784,4.739116850356595,0.1038410590823496
37.00638,4.742616065618192,0.1034774706506598
37.010972,4.747259084755727,0.1030840428606577
37.01556399999999,4.748426550816816,0.1027229780367734
37.020152,4.745219029353812,0.1024036238828146
37.02473199999999,4.7463423539662735,0.101978879320235
37.029328,4.745544624969294,0.1015859785639369
37.03392399999999,4.738983735143992,0.1012845823598697
37.038516,4.726904053918656,0.1010555431815899
37.04310399999999,4.714047122959816,0.1008251017009169
37.047704,4.703599984467001,0.1005220444883842
37.05228399999999,4.691598346507182,0.1002171409376097
37.056864,4.673955732433184,0.0999914618635745
37.06145999999999,4.6592557911304215,0.0997144597837153
37.066048,4.651218445103632,0.0993392226339513
37.07065599999999,4.647267575724015,0.0988817740505988
37.075252,4.646914444134989,0.0983840428548496
37.07984,4.64415152007994,0.0979588756052704
37.08443599999999,4.640366976863097,0.0975556330654535
37.089024,4.640424540865137,0.0970974094296525
37.09362,4.643835473229477,0.0966235647509791
37.0982,4.6488009050608206,0.0961525762306898
37.1028,4.653766336892165,0.0956848799766924
37.107392,4.663351125675894,0.0951661536365551
37.111984,4.676655836964361,0.0946023681942534
37.116568,4.689838363538682,0.0940538987783155
37.12116799999999,4.705597008741801,0.093492667718978
37.125756,4.730716552563836,0.0928201578268453
37.13034799999999,4.764297560557137,0.0920488841617222
37.134944,4.798289264141504,0.0913139059491334
37.13953999999999,4.831670044155143,0.090639086851185
37.14414,4.868404192531081,0.0899552377034303
37.148724,4.908736078697611,0.0892396286168419
37.153316,4.944981488216968,0.0886012880467306
37.157908,4.98044964800282,0.0879787425389807
37.1625,5.020537164741059,0.0873248479720799
37.167088,5.061646300641091,0.0866642910544667
37.171676,5.101078752359973,0.0860059799158504
37.17627199999999,5.13756853130762,0.0853873153364392
37.18086399999999,5.17009401832224,0.0848308743079527
37.185456,5.200165571422207,0.0842805683309723
37.190052,5.228560440341023,0.0837364458032161
37.19463199999999,5.254134821202751,0.0832230426064027
37.199224,5.276233648988033,0.0827326084233698
37.20382,5.296411423163873,0.0822662998287181
37.20839999999999,5.316467012625568,0.0818133893906054
37.212996,5.33406866817261,0.0813636077286038
37.217576,5.345252097871971,0.0809688496632346
37.222164,5.350017301723654,0.0806270268718019
37.226768,5.352450756374829,0.0802756660396904
37.23136,5.348954724034905,0.0799358617659145
37.23596,5.342227508046827,0.0795920119122215
37.24054,5.332557619287515,0.0792817534887093
37.24514,5.322232665508846,0.0789578914783403
37.24972,5.307288354777792,0.0786696543113459
37.254308,5.287724687094352,0.0784165781374039
37.25889999999999,5.266362150515618,0.0781725602399987
37.263496,5.249985525031705,0.0778678409430067
37.26807999999999,5.235529953157234,0.0775436221012169
37.272664,5.2233619890346406,0.0771743184389012
37.277268,5.21479176270264,0.0767863290873413
37.281856,5.210963078037167,0.0763597156991722
37.286444,5.2079116431052,0.0759350089026591
37.29104,5.202450415707206,0.0755597002353443
37.295628,5.201608545261599,0.0751550133331154
37.300216,5.201011044244281,0.0747352952451059
37.304804,5.201068608246322,0.0743277050729101
37.309396,5.205989898629039,0.0738750124133855
37.313984,5.214264557374055,0.0734229478653677
37.318564,5.227036388357309,0.0729524962095414
37.323148,5.24700369492175,0.0724494792705235
37.327736,5.271223804296136,0.071946649363361
37.33232399999999,5.298508771155902,0.0714073096050603
37.336932,5.328614226072757,0.0708494373822029
37.34152,5.35937474600897,0.0703032932237003
37.346128,5.390790330964539,0.0697735262303652
37.350716,5.422083731205962,0.0692551179667915
37.35531199999999,5.451988958143155,0.0687821498695731
37.359908,5.487124465603461,0.0682523786989987
37.36449199999999,5.522548483940686,0.0677660220293328
37.369084,5.556173633382618,0.0672938239554187
37.373664,5.584157806710367,0.0668615678997112
37.37825999999999,5.61802732558059,0.0663861856172884
37.382848,5.659825428316868,0.0658442872426772
37.387444,5.697126358814908,0.0653240485441361
37.392028,5.734305104598802,0.0648178639931666
37.396628,5.773649273420427,0.0642882553333798
37.40122,5.808007531147231,0.0638069594048026
37.40581199999999,5.838890235797589,0.0633297725031398
37.4104,5.864131964333769,0.0628845585091221
37.41499199999999,5.886675389527005,0.0624512919501713
37.41958,5.905621076929648,0.0620301429667904
37.424176,5.920846841827556,0.0616255665458838
37.428764,5.934151553116022,0.0612341764072228
37.433356,5.950398937175724,0.0608232420115695
37.437936,5.965336191196712,0.060388301213223
37.44253199999999,5.979496195484198,0.0599485661793747
37.44711999999999,5.9873601586381495,0.0595208551402117
37.45169599999999,5.987173353211898,0.0591625248324574
37.456292,5.982733744975699,0.0587979716609799
37.46088,5.973674779787114,0.058448097756648
37.465468,5.966414683493825,0.0580935853599119
37.47006,5.953391426372213,0.0577728894381301
37.474648,5.932683954812835,0.0574941276770214
37.479252,5.910954864091664,0.0572220749170131
37.48384,5.890125207818141,0.0569484274193552
37.488436,5.8664750634875285,0.0566849561151606
37.49303199999999,5.845645407214004,0.056409292709864
37.49761999999999,5.82763623899757,0.0561212802275382
37.502216,5.815268046895314,0.0558109542429314
37.506804,5.802899854793058,0.0555001005369528
37.5114,5.792330531586096,0.0551867401205725
37.515976,5.788423803655108,0.0548447472791535
37.520576,5.788359182943003,0.0544858257564508
37.525164,5.786617878049747,0.0541230860970629
37.52976399999999,5.784265649585763,0.0537951813916379
37.534356,5.780647432531693,0.0534881600178523
37.538952,5.783691810753597,0.0531531732860971
37.54354399999999,5.790822665622674,0.0527860140705158
37.54814,5.800896193262985,0.0524017599571313
37.552728,5.817265762036832,0.0520133770618886
37.55732,5.833635330810679,0.0516261181237458
37.561908,5.849882714870379,0.0512456957569078
37.566504,5.869972206148964,0.0508486881808246
37.571092,5.895580488827581,0.0504445767354413
37.575676,5.916447229839668,0.050057920815957
37.58026399999999,5.937069601423463,0.0496857913670362
37.584856,5.954749300236022,0.0493291905199021
37.589448,5.970630130153287,0.0489748911499743
37.594024,5.982791037565813,0.0486310229964869
37.598616,5.990987653045312,0.048307914498287
37.60319599999999,5.995586530734219,0.0479849872514105
37.60778799999999,5.995077312614159,0.0477001323418236
37.612372,5.986761695342187,0.0474504500743098
37.61696,5.976158470318336,0.0472283605352244
37.621568,5.962856941951544,0.0470044550493982
37.626156,5.950577032746545,0.0467721855109988
37.630744,5.931512343551428,0.0465668108704904
