Time,Force,Position
7.608276000000004,14.60533612836896,0.1512654325554808
7.612860000000005,14.764051160534445,0.15061068905146
7.617448000000003,14.889490301058627,0.1499888777978969
7.622044000000002,14.979410083638262,0.1494397947603876
7.626636000000005,15.028580227750236,0.1490149380891832
7.631228,15.050780760986187,0.1486186195695322
7.635823999999999,15.0518292252548,0.1482799911503232
7.640412000000005,15.050467897057397,0.1479715304596786
7.645004,15.053647882546858,0.1476507161274626
7.649584000000004,15.050209414208974,0.147402468361228
7.654176,15.053189171718772,0.1471074562848777
7.658772000000006,15.054203734170498,0.1468093995342922
7.663360000000004,15.053297243012787,0.1465274960034415
7.667948000000003,15.049037383492772,0.1462629388685759
7.672544000000002,15.042367731506731,0.1460288838960606
7.677132,15.036886024845264,0.145800806217686
7.681728,15.032958817650796,0.1455685466617136
7.686324000000006,15.033406597980424,0.1453118646229566
7.690920000000005,15.036508540204366,0.1450186125659004
7.695500000000003,15.046395262418429,0.1446722133720366
7.700100000000006,15.06184491748115,0.1443070434397002
7.704688000000004,15.075539845097204,0.1439737866646779
7.709288000000001,15.089401098876031,0.1436567976155156
7.713884,15.107515155464808,0.143318936322846
7.718484000000004,15.13102581873947,0.142948142975966
7.723076000000006,15.155846612052846,0.1425808893748853
7.727668000000001,15.183776404300229,0.1422076033275776
7.732260000000004,15.21853511798636,0.1418033269703729
7.736856000000003,15.257546634482438,0.1413797831606306
7.741444000000001,15.301832572950255,0.1409274322378903
7.746040000000001,15.349471879780376,0.1404625749280018
7.750628000000006,15.402385608582238,0.1399726308730707
7.755212,15.457753271298753,0.1394758903567777
7.759792000000004,15.514186694625687,0.1389909670278829
7.764392000000001,15.57013137909604,0.1385221922791102
7.768980000000006,15.629673801356985,0.1380349526838246
7.7735720000000015,15.687950235027843,0.1375653366603928
7.778168000000001,15.745082864822765,0.1371126759286931
7.782756000000006,15.806468297427632,0.1366443940146336
7.787356000000003,15.865199568138184,0.1362142747899143
7.791944000000001,15.92470808858224,0.1357853887993153
7.796528000000002,15.983072805150355,0.135369138730981
7.8011240000000015,16.04335857532791,0.1349421360284799
7.805712,16.102744911057822,0.1345219498403042
7.810308000000006,16.1581669548547,0.1341327612733522
7.814892,16.2177976600129,0.1337115061957517
7.819480000000006,16.27215394319936,0.1333177680740554
7.824076000000005,16.320869250271638,0.1329621892351903
7.828664000000003,16.36995111148636,0.1325998536684709
7.833256000000006,16.416701223500567,0.1322436045465269
7.83784,16.462629944332647,0.1318742570276026
7.842440000000003,16.500585939850044,0.1315449833114062
7.847024000000005,16.534411317271633,0.1312300692480827
7.851624000000001,16.564350446025717,0.1309223400099765
7.85622,16.595267052492968,0.1305909681231581
7.860812000000003,16.623319029454496,0.1302605946264393
7.865404000000005,16.651326864967398,0.1299136575546415
7.870000000000003,16.672627963755698,0.1295904537340542
7.874596000000004,16.68950993357128,0.1292704247151079
7.879188000000006,16.701972774414138,0.1289522436067703
7.883792,16.71247042019893,0.1286295665300861
7.888380000000005,16.724967162858675,0.1282753152929191
7.892972,16.735743079888646,0.12791057459259
7.897556000000002,16.74671922489828,0.1275231853681235
7.902148000000004,16.76071608594466,0.1270971354381627
7.906736000000002,16.768416905857514,0.1267020427586416
7.911324,16.77816096409395,0.126292418615653
7.91592,16.784140958377023,0.1258845748905363
7.920516000000006,16.786234703992584,0.1254830387592487
7.925104000000005,16.79008317705481,0.1250567380843417
7.929704000000001,16.788046304574568,0.1246672932507967
7.934292000000006,16.789440843722147,0.1242470317879106
7.938884000000002,16.793778055640956,0.1238086433231362
7.943472,16.8002806905975,0.1233525246912465
7.948064000000002,16.80048728442051,0.1229246472131107
7.952676000000004,16.79595233657699,0.122522339523132
7.957264000000002,16.790395769571674,0.1221271984623392
7.961872,16.78868130978524,0.1217094257230294
7.966464000000002,16.78749973030402,0.1212970456813772
7.971071999999999,16.787217585270444,0.1208800538356532
7.975660000000005,16.78387058275149,0.1204837638463368
7.980252,16.781955894985398,0.1200899603379638
7.984856000000001,16.777264860610842,0.119728065769792
7.989444000000006,16.77274015239906,0.1193808898820443
7.994036000000001,16.768503955064197,0.119045742150592
7.998628000000004,16.7646784533204,0.1187184735111016
8.003236000000001,16.762774005186042,0.1183812305976583
8.007812000000001,16.770518966547524,0.1180093282093054
8.012404000000004,16.778185884643484,0.1176574435922751
8.016996000000006,16.782954271416838,0.1173403122342167
8.021588000000001,16.79197546100014,0.1170103626898697
8.026180000000004,16.800918607317925,0.1167012315081954
8.030776000000003,16.81039463394092,0.1163983284995632
8.035372000000002,16.824900713107365,0.116083887914973
8.039968000000002,16.849589082074857,0.1157421633235142
8.044560000000004,16.881106372481092,0.1153808460387572
8.049156000000004,16.91867533459257,0.1150029026176008
8.053748000000006,16.961152164533356,0.1146184269619588
8.058336000000004,17.005838558960505,0.1142370519816085
8.062924000000002,17.054289017341016,0.1138571950885171
8.067512,17.108913332140915,0.113457522597567
8.072100000000006,17.16035060474129,0.1130817555038763
8.076696000000005,17.21448618068461,0.1126961925277569
8.08128,17.26747795275199,0.1123210214712157
8.085872000000002,17.31932592094343,0.1119569854673429
8.09046,17.376814865249045,0.1115693474326454
8.095048000000006,17.432793451536288,0.1112013112962649
8.099644000000005,17.481087823385767,0.110872894106637
8.104232000000003,17.534368106330064,0.1105185139692537
8.108820000000001,17.591734865921534,0.1101413670955681
8.113428000000006,17.65408753660783,0.1097402949663327
8.118012,17.718727815045998,0.1093239578181697
8.122604000000003,17.78295739789311,0.1089021186550473
8.127196000000005,17.844488677397273,0.1084931446693461
8.131788,17.900090469910342,0.1081005557553514
8.136384,17.960800358232376,0.1076836571555159
8.140980000000006,18.012271532649642,0.1073036653095822
8.145576000000005,18.061410957866396,0.1069279299048017
8.150164000000004,18.10797426445436,0.1065597274462852
8.154764,18.1532274410036,0.1061882825243745
8.159356000000002,18.19524943390469,0.1058222501261394
8.163960000000003,18.23739361151993,0.1054541351278298
8.168548000000001,18.28068159301111,0.1050792590400761
8.173148000000005,18.328056051149456,0.1046843510853167
8.177744000000004,18.37837318205904,0.1042780604275668
8.182332000000002,18.424437510158683,0.1038827780146825
8.186916000000004,18.47405543460028,0.1034631809450738
8.191512000000003,18.529925258726788,0.1030105887417557
8.196116000000004,18.584118398672143,0.1025639262570376
8.200712000000003,18.638433723331648,0.1021177832945801
8.205292,18.68723025659112,0.1016929224595283
8.209880000000005,18.73524954011709,0.1012706345382695
8.214472,18.78584494227185,0.1008460521804019
8.219060000000006,18.83398641051197,0.1004253078928878
8.223640000000003,18.88507055152332,0.0999940787677332
8.22824,18.927038163344047,0.0995929761336065
8.232832000000002,18.97771160876433,0.0991584289496461
8.23742,19.02298844749873,0.0987397118730029
8.242012000000003,19.074517185918022,0.098291891854035
8.2466,19.126412478479768,0.0978385300400588
8.251192000000003,19.184193116583977,0.0973646291089401
8.255788000000003,19.244505731868355,0.09687322140204
8.260376,19.30657307459941,0.0963655287994423
8.264972,19.3661864834158,0.0958629384195445
8.269560000000006,19.422690893298192,0.0953622692590807
8.274148000000004,19.482260160665955,0.0948503376786623
8.278744000000003,19.536432821347837,0.0943538597086972
8.283332000000001,19.58712992895327,0.0938664568330196
8.287928,19.63717197153935,0.0933786294218814
8.292516000000006,19.685004449639067,0.0928898318878664
8.297112000000006,19.735491089633097,0.0923823577634043
8.301704,19.78262436126483,0.0918796501804581
8.306292000000006,19.827670253124342,0.0913740185697178
8.310880000000004,19.878845859954623,0.09084518651855
8.31548,19.92679028313675,0.0903193252276407
8.320064000000002,19.97906555239434,0.0897734376194163
8.324656000000004,20.027454572984414,0.0892286346416707
8.329252000000004,20.079807885507527,0.0886703060073943
8.333840000000002,20.123821918573515,0.088135919528403
8.338436000000002,20.167958136353644,0.0876013516104725
8.343032000000001,20.20363288996251,0.0870921388317851
8.347620000000006,20.23967419771381,0.0865786751347252
8.352208000000005,20.27199558296037,0.0860765333153263
8.356784000000005,20.30366190318757,0.0855730752083368
8.361384000000001,20.333407169805337,0.0850760029408668
8.365972000000006,20.35775582973721,0.0845900645793198
8.370564000000002,20.381205055221447,0.0841056018824923
8.375160000000001,20.404654280705675,0.0836222507431258
8.379748000000006,20.423606333951664,0.0831471588621716
8.384348000000003,20.44178113746416,0.0826722807393263
8.388928,20.456113833757765,0.082209271825999
8.393520000000002,20.473511387536757,0.081735620588329
8.398116000000002,20.485800845506773,0.0812810256752602
8.402704,20.49052827375317,0.0808463281049869
8.407304000000003,20.494478452266065,0.0804109653292521
8.411884,20.49266546995064,0.0799912169276231
8.416472000000006,20.48970868375927,0.0795777227972024
8.421076000000006,20.489039505319784,0.0791537985276606
8.425664000000005,20.488614696308584,0.078724789458468
8.430268000000005,20.486635387830383,0.0782945542251052
8.434848000000002,20.485922067942266,0.0778558315426702
8.439448000000006,20.480345021673475,0.0774306476622078
8.444040000000001,20.473868540957035,0.0770066165451955
8.448640000000005,20.465593191345302,0.0765851357887377
8.453228000000003,20.459605449485444,0.0761523421572013
8.457820000000005,20.45758199955862,0.075708147040857
8.462408000000003,20.459767210993107,0.0752483413125519
8.466992000000005,20.461541726836533,0.0747814287014816
8.471588000000004,20.466503284879483,0.0743018994872483
8.476176000000002,20.47326371181773,0.0738209248893712
8.480768000000005,20.480024138755976,0.0733398810711037
8.48536,20.48408626235128,0.0728627397396084
8.489940000000004,20.49247923202205,0.0723680379119066
8.494524000000006,20.503692689749908,0.0718681430365581
8.499112000000004,20.511841289992383,0.0713772042028367
8.503708000000003,20.521666574416013,0.0708858057456576
8.508300000000006,20.530470239677847,0.0703977648917839
8.512892,20.533510744111357,0.0699230728312003
8.517484000000003,20.540393355763744,0.0694405577111717
8.522064,20.549197021025577,0.0689549165575441
8.526656000000003,20.55992173989685,0.0684657404945671
8.531244000000001,20.57334476211107,0.0679740368175525
8.535828000000002,20.58766721877294,0.0674817495102945
8.540424000000002,20.6019896754348,0.0669895504081788
8.545016000000004,20.61324727461129,0.0665066563781887
8.549620000000004,20.621440016302387,0.06603334461996
8.554212,20.62812239997512,0.0655725608829976
8.558800000000005,20.63341661034362,0.0651212927740291
8.563408000000003,20.63846645128383,0.0646746614657338
8.568000000000005,20.637753131395712,0.0642386454126304
8.572592,20.63614037705995,0.0638029373476347
8.577172000000004,20.63428325329589,0.0633712555764622
8.581772,20.63320337926534,0.0629418101228269
8.586360000000006,20.62954738660598,0.0625121719589467
8.590964,20.63051075089902,0.0620767661376349
8.595552000000005,20.632740103782137,0.0616344011635694
8.600152000000001,20.638811563884136,0.0611860939935879
8.604744000000004,20.640918732053112,0.0607450729366109
8.609340000000003,20.638817238860767,0.0603170304917119
8.613932000000005,20.632629269021244,0.0598996886145184
8.618524,20.62541968001993,0.059485203862365
8.623116000000003,20.61473453794217,0.0590702384467082
8.627716,20.60392721115027,0.0586573007391535
8.632308000000002,20.59401931880601,0.058243671508476
8.636908000000005,20.58591029535705,0.0578287417277428
8.641496000000004,20.577923456622237,0.0574113459530605
8.646088000000006,20.566461064810973,0.056993065043995
8.650668000000003,20.552833249961974,0.0565809756493222
8.655252000000004,20.5369178273611,0.0561774755589659
8.659844,20.525499576998467,0.0557714562634724
8.664424000000004,20.51719032556984,0.0553722973854019
8.669004000000001,20.513256061665302,0.0549740626927756
8.673592000000006,20.50319208279001,0.0545898353101085
8.678184000000002,20.49317224536335,0.0542192736499812
8.682776000000004,20.47918811600365,0.0538556316252891
8.687364000000002,20.46357144391144,0.0535043968840782
8.691956000000005,20.439004568791376,0.0531692772413457
8.696548,20.421510984538347,0.0528334222803631
8.701140000000002,20.40581626918061,0.052496577054081
8.705744000000003,20.38476908858562,0.0521738485027932
8.710336000000005,20.360168311648668,0.051865615646912
8.714940000000006,20.335489491446197,0.0515729116868214
8.719520000000003,20.30635764045411,0.0512947141055433
8.724120000000006,20.27072952034883,0.0510352590027492
8.728700000000003,20.231547803901584,0.050790132259338
8.7333,20.18754650252229,0.0505654728729179
8.737884000000001,20.143711527305776,0.050352204166027
