Time,Force,Position
3.741416000000001,14.537573278747905,0.142733012925175
3.746012,14.7107502486312,0.1417801274914877
3.7506,14.851683185666731,0.1409004580594932
3.755208,14.9698654128193,0.1400638700887318
3.759796,15.073680350994652,0.1392286701750227
3.764396,15.160473838298472,0.138429949952144
3.768980000000001,15.235398111988358,0.1376331389062944
3.773572,15.294533021579907,0.1368901594601833
3.7781800000000008,15.346017618550585,0.136166768561059
3.782776,15.393938379547556,0.1354238389956337
3.787364,15.432287774314212,0.1347115486404525
3.7919560000000008,15.461598683155762,0.1340364360066179
3.796544000000001,15.483792159681643,0.1333838724413674
3.80114,15.49004018557816,0.1328190454995209
3.805728,15.487904790568924,0.1322890472048339
3.810316,15.471867183253904,0.1318266870463846
3.814904,15.440172636186436,0.1314602477096303
3.819496000000001,15.400627548518427,0.1311311850767279
3.824092,15.350411432192791,0.1308576523761115
3.828672000000001,15.294920893895412,0.1306088646004012
3.833268,15.244782820835294,0.130309044424012
3.837856,15.191413564127018,0.1300168248396215
3.842448000000001,15.137144872971096,0.1297277386004609
3.847036000000001,15.08443068128218,0.129433978007259
3.8516239999999993,15.028529447393735,0.1291666026473121
3.856232,14.972261659362855,0.128907398378689
3.860816,14.918980685551835,0.1286441910978043
3.865412000000001,14.86844215653239,0.1283844537639892
3.870008,14.823833114504042,0.1281001775001309
3.874608,14.783398832020124,0.12782036341893
3.879208,14.752491774317896,0.1274981331246552
3.883788000000001,14.726370399730827,0.1271641867319646
3.888392,14.70262491579289,0.1268450931735483
3.892976000000001,14.68791791778006,0.1264977132046777
3.897576000000001,14.681227786530544,0.1261313958945064
3.902164000000001,14.687540433139166,0.125709216631741
3.906764000000001,14.709431976234717,0.1252213588851677
3.911348,14.7380743975035,0.1247294148104027
3.915948,14.78295078027857,0.1241760101460004
3.920540000000001,14.835721845102809,0.1236113059823681
3.925132,14.8885811928243,0.1230901185700781
3.929724,14.951789156509612,0.1225524693833609
3.93432,15.02019349890115,0.1220173614715947
3.938908,15.099313011398944,0.1214586746272353
3.9435,15.183506717888818,0.1209048192381998
3.948080000000001,15.27547292171371,0.1203464255253869
3.952672,15.372102623939618,0.1197889409970004
3.95726,15.475561247604272,0.1192125322491817
3.961852,15.578941828003408,0.1186649877520676
3.966444000000001,15.686330841784203,0.1181162186286423
3.971036,15.79298674728012,0.1175945957747733
3.975628,15.906593758928931,0.1170564981817702
3.980216,16.026496811711276,0.1164973539766157
3.984808000000001,16.15179647117951,0.1159221695766917
3.9894,16.275297261752446,0.1153606838376852
3.993992,16.397898617877736,0.1148117172894269
3.998588,16.513959563441198,0.1143011024248212
4.003176,16.633451920632474,0.1137670780608116
4.007776,16.744849367794924,0.1132725731712657
4.012368,16.849950773823842,0.1128070456200098
4.016960000000001,16.950799377042806,0.1123551174234051
4.021556,17.045063428251318,0.1119218564802258
4.026144,17.138261718849407,0.1114823316507789
4.030736000000001,17.224342577131832,0.1110568529464053
4.035316,17.311523097841565,0.1106091960962424
4.039916,17.392485620683285,0.1101691502536025
4.044504,17.467640841248052,0.1097441734274626
4.049104,17.539276367287744,0.10931722483376
4.0536840000000005,17.610579241001894,0.1088668244563458
4.058284,17.677707355171606,0.1084113422168293
4.062868,17.740416340368597,0.1079547847961283
4.0674600000000005,17.790244732421602,0.1075333721621887
4.072068,17.8284585199207,0.1071340218443136
4.076664000000001,17.857878190922985,0.1067451116295816
4.08126,17.884022536828486,0.106344628021426
4.085856,17.905625569047118,0.1059444444030773
4.090440000000001,17.924852710616616,0.1055286454206628
4.095036,17.935940800708657,0.1051239268667254
4.099615999999999,17.945796804027502,0.1046954119996547
4.104208,17.95544233973494,0.1042372099666218
4.1087880000000006,17.964510853688545,0.1037569539552142
4.113379999999999,17.97071473813643,0.1032717649128186
4.117972,17.969434636126216,0.1027979810320987
4.122564000000001,17.96120342796311,0.102340496172043
4.127155999999999,17.946509852503688,0.1018889416280088
4.131743999999999,17.929606712557913,0.1014341847738243
4.136336,17.911759996715862,0.1009654701780777
4.140924,17.887495055026125,0.1005176567361531
4.145512,17.85681188748871,0.1000907461015524
4.150112,17.82085429797955,0.0996758107792219
4.154704000000001,17.78256495926989,0.0992592157793897
4.159292000000001,17.746318858883814,0.0988302207069401
4.163884,17.715713734611917,0.0983787698062529
4.168483999999999,17.68678529452117,0.0979238506110375
4.173088,17.660310788345075,0.0974663013894771
4.1776800000000005,17.631793043845395,0.0970182133471845
4.182271999999999,17.605973602688657,0.096561853359946
4.186859999999999,17.585550768217807,0.0960902384642787
4.191459999999999,17.56631587907152,0.0956268592411142
4.196047999999999,17.548268935249805,0.0951717828333419
4.20064,17.532431555914446,0.0947198095594949
4.2052320000000005,17.520069729655535,0.0942609026149992
4.209823999999999,17.51453682483537,0.0937908598763113
4.2144200000000005,17.510558419482212,0.0933196699183274
4.219016,17.51034407808242,0.0928529427539173
4.223604,17.51413817006428,0.0923859231366018
4.2281960000000005,17.519120207370708,0.091928023334558
4.232787999999999,17.53052047052482,0.0914518071283477
4.23738,17.544252482879436,0.0909765403078038
4.241960000000001,17.565590666406298,0.0904929429423795
4.246544,17.592369598067677,0.0900136624241467
4.251132,17.623401332539004,0.0895300198502209
4.25572,17.658563685106138,0.0890468750244847
4.260312000000001,17.697978840483216,0.0885610265909516
4.264892,17.73612800727021,0.0880869548088333
4.269476000000001,17.778529976867148,0.0876091371683202
4.274056000000002,17.824163130112243,0.0871341386870704
4.278632000000002,17.869185359786606,0.0866751605487972
4.283228000000001,17.916783708089774,0.0862154593831103
4.287804000000001,17.96552586026888,0.0857509679108132
4.292380000000001,18.01733286993336,0.0852759323936955
4.296983999999998,18.06811826043605,0.0848075877493913
4.301563999999999,18.11939238979533,0.084332232967191
4.306159999999998,18.17937235275416,0.0838306736261325
4.310748,18.23906380483607,0.0833207184760349
4.315339999999999,18.29666787714577,0.0828058145752986
4.319924,18.3564373724932,0.0822825160490014
4.324524,18.413875118640124,0.0817594411815749
4.3291080000000015,18.474744276414867,0.0812190182116772
4.3337,18.52927325160745,0.0806764792435478
4.338287999999999,18.57656260977021,0.0801317108087489
4.342876,18.62266402260841,0.0795803505124845
4.3474520000000005,18.66156995986543,0.0790435890458681
4.352036000000002,18.694912964273787,0.0785047195009832
4.356615999999999,18.72526915446228,0.0779598001005728
4.361208000000001,18.750062411802112,0.0774109462501162
4.365791999999999,18.768393301845634,0.0768602726333844
4.370367999999999,18.78079470489806,0.0763122499921472
4.374952,18.78636718651174,0.0757683655622256
4.379539999999999,18.788219745620683,0.0752327060216874
4.384119999999999,18.78287682914844,0.0747079630538677
4.388712000000002,18.775202163475697,0.0741796508921225
4.393295999999999,18.76200870640292,0.0736614814771264
4.397895999999999,18.74125321960652,0.0731613717579437
4.402488000000002,18.716411256162942,0.0726750170544136
4.407076,18.686705566338706,0.0722003822023154
4.4116800000000005,18.651969823970997,0.0717249503134804
4.416271999999999,18.615313027993857,0.0712530741720958
4.420864000000002,18.570972017578946,0.0707986494032816
4.425443999999999,18.528596202222108,0.0703537984821687
4.430043999999999,18.495214731341747,0.0698971884958367
4.434619999999999,18.45558136077648,0.0694623097518101
4.439219999999999,18.4179912285348,0.0690193325662809
4.443812000000001,18.383387910512987,0.0685834684134259
4.448404,18.35483626419642,0.0681449377029389
4.452988000000001,18.331969735442648,0.0677108446695906
4.457571999999999,18.313766705089897,0.0672850062736864
4.462152,18.29634092447064,0.066858937451943
4.466747999999999,18.28263506635613,0.066425792750283
4.471323999999999,18.271505326870415,0.0659919773133757
4.475919999999999,18.2655278246423,0.065557211964955
4.480508,18.26098263716704,0.0651275251279283
4.485099999999999,18.259668633339928,0.0647012987128263
4.489692000000002,18.260930748141625,0.0642749271822626
4.49428,18.268977642933432,0.0638339648930518
4.49888,18.284464382734715,0.0633820739931812
4.503468000000002,18.305103359793595,0.0629312589306644
4.508056,18.331138943538363,0.0624774214009275
4.512647999999999,18.366291056473752,0.0620150547496756
4.517232,18.40234260385679,0.0615529848072338
4.5218440000000015,18.43226443626907,0.0611107726195721
4.526432,18.46987048311911,0.0606542598730853
4.531020000000002,18.505188922217275,0.0602088443796427
4.535612,18.538586307706,0.0597682258108526
4.540199999999999,18.56814158597584,0.0593362984042558
4.544796000000002,18.59794123367397,0.0589017676923295
4.549375999999999,18.62402095886737,0.058472666113785
4.553968000000001,18.655252921318365,0.058045666187106
4.558548000000002,18.68742845966563,0.0576350130949549
4.563148000000002,18.72230230135584,0.0572247607603695
4.567736,18.757053958331905,0.0568184019046611
4.572336,18.79323793006083,0.0564190891170001
4.576927999999999,18.831220770685043,0.0560204635479292
4.581524000000002,18.86973649161447,0.0556295610813787
4.586112,18.904043551182586,0.0552532881238754
4.590703999999999,18.938883491055904,0.0548856178400307
4.595292000000001,18.968370965691967,0.0545362414415042
4.599888,18.99352759425256,0.0542029071467571
4.604476000000002,19.012798877270694,0.0538814861156242
4.609064,19.03117072584117,0.0535608856452119
4.613652000000002,19.05056419357344,0.0532378634823134
4.61824,19.067914422982124,0.0529208965322141
4.622827999999998,19.08694133657196,0.0526056135727423
4.627420000000001,19.09726241656224,0.0523023626838214
4.632012,19.103619204619488,0.0520062300470189
4.636603999999998,19.09832748630594,0.0517274210216908
4.641196000000001,19.08739479187821,0.0514530449643078
4.645783999999999,19.069266621869307,0.0511795688835695
4.650376000000001,19.041122488222125,0.0509089079380788
4.654972000000001,19.000552598470648,0.0506526604399459
4.659548000000001,18.948700756490812,0.0504055076472591
