Time,Force,Position
3.415391999999999,13.722956731691918,0.1450445840346792
3.419991999999999,13.949275885197004,0.1446976277660162
3.424579999999999,14.148991981968509,0.1443603434080634
3.429179999999999,14.329544867015894,0.1439635483986215
3.4337719999999994,14.48431608651182,0.1435919972977868
3.4383679999999988,14.617314073837951,0.143234046395797
3.4429479999999995,14.734668543965045,0.1428258656785218
3.44754,14.831926466103482,0.1424180058635965
3.452131999999999,14.912651676226975,0.1420308619715495
3.4567239999999995,14.987647627339037,0.1416520820381992
3.4613119999999995,15.06529774034541,0.14124144233056
3.465895999999999,15.1357523777706,0.1408795289344288
3.470483999999999,15.203342385690071,0.1405216638787447
3.47508,15.262138277112731,0.1401964436722623
3.47968,15.313738692954203,0.1399171453427184
3.484271999999999,15.364028978756968,0.1396376809483965
3.4888639999999995,15.414808003416312,0.1393468557169644
3.493452,15.463665974466217,0.1390712463643032
3.4980519999999995,15.521762659420888,0.1387372670751701
3.5026399999999995,15.57854921433685,0.1384018992960675
3.507232,15.632471139747093,0.1380703022264815
3.5118279999999995,15.681485197328032,0.1377592253669147
3.5164159999999995,15.732542493232556,0.1374329930242468
3.521023999999999,15.784377038870584,0.137107172237942
3.525611999999999,15.84414016837467,0.1367239027551497
3.530199999999999,15.899894864497098,0.1363545485162298
3.534796,15.951807453400642,0.1360151021406921
3.539387999999999,16.003964411732483,0.1356714502710835
3.5439799999999995,16.05624355477846,0.135327740077978
3.548572,16.109544316986238,0.1349790338552696
3.5531679999999994,16.15744847250813,0.1346617919928434
3.557748,16.21046072383898,0.1343065061325901
3.5623439999999995,16.264494594331634,0.1339454140188992
3.5669319999999995,16.322370572043166,0.1335610180993631
3.571524,16.384821765258454,0.1331340789744924
3.576108,16.446740078168535,0.1327055806718628
3.580703999999999,16.505182838002167,0.1322944832962012
3.585291999999999,16.565546651445242,0.1318722133997137
3.589888,16.61769337014534,0.1314966646820439
3.594472,16.668407774092575,0.1311218556020027
3.599067999999999,16.713725571353926,0.1307745742712809
3.603652,16.759165553329428,0.1304253351375213
3.608248,16.79998617835254,0.130102644696308
3.612836,16.841295542232235,0.1297697839629447
3.617431999999999,16.872344573045368,0.1294969276442651
3.622019999999999,16.90735789579153,0.1291986560413398
3.626616,16.941061088498973,0.1288976362835215
3.631207999999999,16.96961204394883,0.1286171489180849
3.635795999999999,16.991989142979293,0.1283646208667634
3.640388,17.006804212286134,0.1281562473040714
3.644976,17.021863651021267,0.127941974893712
3.649571999999999,17.03218154808987,0.127756322984611
3.654164,17.036203404024935,0.1276007070132868
3.658752,17.033929218826472,0.1274752089752029
3.663364,17.023071384742593,0.1274003046273022
3.667947999999999,17.008737997582262,0.1273392480299912
3.672552,16.995670599012026,0.1272646743630061
3.677132,16.98104870097478,0.1271923366126789
3.68172,16.970635464298855,0.1270879037999997
3.686316,16.95944497788943,0.1269845104371061
3.690908,16.952340968127174,0.1268521220067406
3.695504,16.944337523917273,0.1267239310813801
3.700092,16.942097240535695,0.1265618749455699
3.704692,16.936014849935233,0.1264225481555622
3.70928,16.932875132106012,0.1262646272799695
3.71388,16.924993872610255,0.1261334816173042
3.718468,16.9171126131145,0.1260022997977564
3.723068,16.911685287533395,0.1258647188664762
3.727663999999999,16.91189893806647,0.1256967203379406
3.732256,16.919386107446247,0.125476273828753
3.736844,16.923930604054785,0.1252737964309191
3.741436,16.926676231768035,0.1250792927500505
3.746027999999999,16.936084454757246,0.1248474196236799
3.750615999999999,16.9492126002512,0.1245962873956214
3.755208,16.970269329611217,0.1242947397834806
3.7598,16.99222549341887,0.1239894216471082
3.764384,17.016757775855325,0.1236767251520255
3.768984,17.04423273106302,0.1233474741344647
3.773572,17.07068606710892,0.1230266281983336
3.778167999999999,17.100859325659552,0.1226882536632873
3.78276,17.130010965048392,0.1223576648488225
3.78734,17.159406973865522,0.1220217412694164
3.791931999999999,17.185205244892067,0.1217028784541851
3.7965199999999992,17.21100351591861,0.1213839686385092
3.801112,17.24088826359232,0.1210396474002257
3.8056959999999993,17.272449695447186,0.1206910533246522
3.810276,17.303888942587903,0.1203459431296744
3.814872,17.340314100823452,0.1199722498609037
3.819464,17.37277496712596,0.1196233804519108
3.824064,17.404747094571896,0.1192885554922846
3.828655999999999,17.448123358960327,0.1188976448884126
3.8332479999999993,17.494686665548283,0.1184847626651068
3.83784,17.538307299365012,0.11809025139565
3.842419999999999,17.58462623652468,0.1176872353411234
3.847019999999999,17.632377488437207,0.1172892135819497
3.8516,17.683848662854473,0.1168764471257975
3.8562,17.727757807548116,0.1165007304183233
3.860783999999999,17.770278778937524,0.1161419252231574
3.865376,17.813210445918003,0.1157922903095103
3.869956,17.85499830902254,0.1154537042873986
3.874552,17.90050609463182,0.1151005741744263
3.87914,17.946668945260452,0.1147506815227535
3.883723999999999,17.992343057032503,0.1144125223933816
3.888311999999999,18.04557919852817,0.1140417869086969
3.892899999999999,18.09652773227196,0.1136914479546561
3.897487999999999,18.14490014738696,0.1133484420400923
3.90208,18.19531580082554,0.1129946804907921
3.906675999999999,18.23882448955986,0.1126788763580189
3.911263999999999,18.28527585106541,0.1123486456961741
3.915856,18.33070559340917,0.1120262246843902
3.920444,18.364731198810432,0.1117576717232989
3.925036,18.404031226183424,0.1114753366977859
3.9296279999999992,18.447295545489453,0.1111740120240824
3.9342159999999993,18.48606269255724,0.1108894116055059
3.938827999999999,18.520332667386786,0.1106216837207187
3.943408,18.548839481388008,0.1103810193315823
3.947996,18.58515269454114,0.110103213405472
3.952591999999999,18.62081084267492,0.1098240906075328
3.9571799999999993,18.658223718255368,0.1095249996122568
3.961776,18.695880963264106,0.1092220149700373
3.9663679999999992,18.728552297178016,0.1089453289985614
3.97096,18.76326686941552,0.10865879988102
3.975548,18.7994917996714,0.1083569019865248
3.980148,18.824556962413062,0.1080984944888186
3.984735999999998,18.84806762568773,0.1078413267781419
3.989335999999998,18.876564200057214,0.107560134424019
3.993924,18.9040391552649,0.1072854190075923
3.998524,18.936744390995703,0.1069816638737553
4.003108000000001,18.969938365583097,0.1066690990276969
4.0077,18.998879537360537,0.1063655809064493
4.012287999999998,19.03215155521344,0.1060356848016964
4.0168800000000005,19.05835028219931,0.1057270793136108
4.021467999999999,19.08311669443232,0.1054181170739086
4.026060000000001,19.109926344988917,0.1050991944950957
4.030647999999999,19.137102549687945,0.1047732297885104
4.035239999999998,19.17065283878603,0.1044120380939693
4.039819999999999,19.20174919396946,0.1040556591157066
4.044408000000001,19.23333428800948,0.1036903430716271
4.048995999999999,19.261854524564114,0.1033417936269533
4.053576,19.287798642489957,0.1029992533194211
4.058167999999998,19.316519107024256,0.10263207553718
4.062756,19.34470669125334,0.1022617306851679
4.067343999999999,19.37559257882537,0.1018856714171967
4.071947999999999,19.4181269727682,0.1014638257396953
4.076536000000001,19.46180517058696,0.1010357797649365
4.081128,19.50662717228166,0.1006034488255983
4.085715999999998,19.55553565062354,0.1001542463295148
4.090299999999999,19.602767444784263,0.0997097091721552
4.094895999999999,19.65065430396435,0.0992702041116691
4.099488000000001,19.70532594313456,0.0988062258648668
4.10408,19.762573700933554,0.0983406027858303
4.10866,19.82186469705614,0.0978669792191705
4.11326,19.88078913903629,0.0974032151221483
4.117843999999998,19.94175681934002,0.096932701175156
4.122447999999999,20.00452336853905,0.0964597689300856
4.127032,20.06422506025271,0.0960036467948839
4.1316120000000005,20.1258478055758,0.0955436101966292
4.136192000000001,20.187592735613045,0.0950834527463378
4.140784,20.252524707849805,0.0946097856100883
4.145375999999999,20.31872266867666,0.0941282607050658
4.149971999999998,20.388640552008248,0.0936398880302489
4.15456,20.456637381730395,0.0931601247589461
4.159151999999999,20.522424646966176,0.0926801551836568
4.163740000000001,20.583470370535437,0.0922189364070712
4.168340000000001,20.643861029085333,0.0917568479533171
4.172927999999999,20.701309014863995,0.0913078992105451
4.177523999999998,20.756303066728,0.090863392390724
4.182108,20.813218172201456,0.0904153396308801
4.186688,20.8678015284744,0.0899680614217994
4.191279999999999,20.91956439669025,0.0895311182292166
4.195879999999999,20.96695227738202,0.0891027813928739
4.200471999999998,21.013440723626136,0.0886776498531642
4.205068000000001,21.06131734317448,0.08824414107861
4.209655999999999,21.10649565937988,0.0878176867380928
4.214264,21.151018910565927,0.087390311139351
4.218851999999998,21.19758540007556,0.0869571717474646
4.22344,21.2439075201569,0.0865309239166233
4.228036,21.289208021076448,0.0861099507284624
4.232620000000001,21.33181021865305,0.0856957220601119
4.237224000000001,21.37903177318204,0.0852736970691664
4.241816,21.425353893263384,0.08485656306537
4.2464200000000005,21.4749852402584,0.0844260172371414
4.251000000000001,21.526537640862852,0.0839927204058541
4.255600000000001,21.57526955341022,0.0835673872217695
4.260187999999999,21.62772138846232,0.0831362603619112
4.264783999999999,21.6796403432092,0.0827017033668832
4.269372000000001,21.73258091711789,0.0822662493075367
4.2739720000000005,21.785521491026568,0.0818334367213759
4.278563999999999,21.8403831185447,0.0813976121099005
4.283155999999998,21.89626636522462,0.0809602757757494
4.287755999999998,21.95713552299936,0.0805100791173218
4.292352000000001,22.021968972707132,0.0800508159431983
4.296948,22.08283813048187,0.079604899881363
4.301548,22.15061425296088,0.0791429660038101
4.306139999999999,22.21826819072573,0.0786850422893243
4.310724,22.28322382514765,0.0782330805301185
4.315311999999999,22.34609207979735,0.0777768131274282
4.319896,22.41394624554188,0.0773091560616772
4.324483999999998,22.48216696542884,0.0768372365370204
4.329080000000001,22.54589051307756,0.0763739608540165
4.333672,22.60421745404039,0.0759195779247843
4.338259999999998,22.660378971965493,0.0754758877593763
4.342859999999998,22.714985990423585,0.0750329594391962
4.347448,22.77212498606185,0.074577366239747
4.352039999999999,22.82770948223311,0.07412277972174
4.356628000000001,22.883538347832665,0.0736658356513808
4.361215999999999,22.93282680287039,0.0732211864964998
4.365811999999998,22.97888407425997,0.0727763893837672
4.370391999999999,23.023386846182536,0.0723313953148706
4.374976,23.0647806191711,0.0718837473582466
4.379572,23.10053341604548,0.071447291897413
4.384159999999998,23.12986798707217,0.0710204980383105
4.388752,23.159036231936103,0.0705833546397673
4.393335999999998,23.17512365567638,0.0701673666086076
4.397932000000001,23.191044753253877,0.0697415896046697
4.402511999999998,23.20643297052616,0.0693114500824743
4.4071,23.217856895865424,0.0688904808105939
4.4116800000000005,23.219020488138124,0.0684847502905593
4.416271999999999,23.21789647265894,0.0680884413105743
4.420863999999998,23.214973588284455,0.0676937938965981
4.425452,23.21090690003404,0.0673033283144911
4.430028,23.201443605097733,0.066917134806421
4.434611999999998,23.187771648800112,0.0665434758347659
4.4392,23.170013215855317,0.0661802897323017
4.443787999999998,23.14739105652984,0.0658263539166219
4.44838,23.125301777509573,0.0654775723583936
4.452963999999998,23.1070546057082,0.0651217426571551
4.457556,23.086519826154937,0.0647744075536474
4.462136000000001,23.0636974388498,0.064435755707315
4.466723999999999,23.04091919299329,0.0641093706390776
4.4713080000000005,23.01675277383255,0.0637905898992717
4.475888000000001,22.994140854138813,0.0634738468716261
4.480471999999999,22.973494129503145,0.0631665202316737
4.485056,22.959021261286864,0.0628561183505101
4.489643999999998,22.93895155840504,0.0625652140792026
4.494236000000001,22.91737149750483,0.0622840179100607
4.498823999999999,22.89836755523343,0.0620024745164822
4.503419999999998,22.8883579574385,0.0617152576971277
4.508008,22.87822617492943,0.061429601403989
4.512604,22.870670511049155,0.0611442942451042
4.517191999999998,22.86593533522597,0.0608553881746283
4.521791999999998,22.86647458137453,0.0605651278052557
4.526375999999999,22.867791077256584,0.0602759390601625
4.530967999999998,22.871683691767444,0.0599871477843825
4.535556,22.875209752135863,0.0597036284916429
4.540147999999999,22.87399427083776,0.0594261302096108
4.544727999999999,22.872290050683063,0.0591564328904629
4.549323999999999,22.87418356831897,0.0588850059150434
4.553903999999999,22.877998139564305,0.0586109141034786
4.558495999999998,22.88410031856152,0.0583287654443139
4.563084,22.89518840865356,0.0580373290537054
4.567671999999998,22.90729811790739,0.0577439343227216
4.572251999999999,22.91695389324657,0.0574481987390737
4.576832,22.925710234138105,0.0571530835706428
4.581416000000001,22.939452486124463,0.0568484572162588
4.585999999999999,22.951518053929668,0.0565423222011902
4.590588,22.962684187287227,0.0562365707259411
4.595195999999998,22.96947533312069,0.0559313734682374
4.599784,22.979453521153683,0.05561808550202
4.604379999999999,22.98738847086308,0.0553094952656663
4.608971999999998,22.99634503973428,0.0549993277413273
4.613551999999999,23.002847674690827,0.0546865435935897
4.618144000000001,23.01037192880916,0.0543716134535565
4.622723999999998,23.01327682597511,0.0540594662215556
4.627323999999998,23.01732552701701,0.0537430304777972
4.631907999999999,23.023417466382487,0.0534220154037782
4.636503999999999,23.021170126290844,0.0531057660485836
4.641092,23.01184949533216,0.0527887742827486
4.645683999999999,22.9968878882593,0.0524760478105225
4.650264,22.97268756728168,0.0521679160329887
4.654859999999999,22.937083109361545,0.0518700925514692
4.659444000000001,22.89313937198429,0.0515761358175049
4.664035999999999,22.842533039331062,0.0512872408158735
4.668620000000001,22.785630665544303,0.0509978245116362
