Time,Force,Position
4.769855999999999,5.37178842960557,0.1190087500525189
4.774444000000001,5.440074461071356,0.1189916692365512
4.779044000000001,5.513468588346108,0.1188649836092427
4.783631999999999,5.58747363919159,0.1186923450924938
4.788227999999998,5.664910101664886,0.1184333735254361
4.792820000000001,5.7405035537942615,0.1181519563175115
4.797420000000001,5.812988006989628,0.1178835997614855
4.802016,5.8770890392792445,0.1176898017773718
4.806616,5.939180735062163,0.1174182370650034
4.811200000000001,5.9955873132822735,0.1171852898087626
4.815792,6.044465763595653,0.1169601939160479
4.820379999999998,6.084305727983928,0.1167988988669991
4.824976000000001,6.120093117541918,0.1166100951650226
4.829568,6.1478636403365945,0.1164552354453043
4.834168,6.177466933843456,0.1161734072496296
4.838755999999998,6.20391708696768,0.1158520203638562
4.843344,6.225659600242263,0.1154983328755513
4.847931999999998,6.243227353972417,0.1151238136997037
4.852528000000001,6.259973716520439,0.1147073686897672
4.85712,6.273444753971679,0.1142578752207708
4.861707999999998,6.280331239412465,0.1138484575664304
4.866300000000001,6.282021346147028,0.1134372496330036
4.870879999999998,6.280969008090018,0.1130092148852206
4.875472,6.276807671099001,0.1125865521044725
4.880059999999999,6.265817412669236,0.1122137107014778
4.884652000000001,6.251962524733754,0.1118288901732126
4.889248,6.235487376720847,0.1114151761288009
4.893835999999999,6.219989706421104,0.1109358681841733
4.898444,6.20395915581615,0.1104394022316221
4.903031999999998,6.186085594867273,0.1099114893235095
4.90762,6.171931956423133,0.1093390717357425
4.912211999999999,6.157245437673782,0.1087490832176582
4.916804000000001,6.139860615581488,0.1081829238616502
4.921396,6.1287276931741,0.107506106883546
4.925983999999998,6.114652097995478,0.1068703107306807
4.930583999999998,6.102375371712151,0.1062169883094216
4.935172,6.09243039462933,0.1055628101461866
4.939772,6.080197809794631,0.1049525293650245
4.944363999999998,6.065144736902843,0.1043741737006034
4.948963999999998,6.053200662945066,0.1037926580895308
4.953556000000001,6.04563157651138,0.1031770842995999
4.958152,6.031688405678642,0.1026694111270007
4.962739999999998,6.018033745722823,0.1021924002746112
4.967332000000001,6.005278520214652,0.1017049555736397
4.971936000000001,5.997919901392368,0.1011671241493737
4.976528,5.988684370409271,0.1006987790080155
4.981119999999999,5.983335088093684,0.1002296934729144
4.985712000000001,5.974965089741345,0.0998555714519594
4.990291999999998,5.969171210017804,0.0994648237084681
4.994884000000001,5.969184632571217,0.0990520469241049
4.999471999999999,5.966011012925103,0.0986956642127725
5.004063999999998,5.966845826660645,0.0983338181116454
5.008656,5.9745095618349335,0.0979371922345822
5.013232,5.979030396258325,0.0976446460819032
5.017832,5.985882979882221,0.0973535277164692
5.022408,5.9914695749160325,0.0970946128982159
5.026995999999999,5.990804270264937,0.096934215044677
5.031599999999999,6.001298733128053,0.0966651858903716
5.036188000000001,6.015679444658679,0.0964006737359527
5.040784,6.030837405922807,0.0961392635981707
5.045371999999999,6.045262258902063,0.0959268348155463
5.04996,6.0735451827384725,0.0955883271750154
5.054564000000001,6.102360986880093,0.095267244111818
5.059151999999999,6.135063039689224,0.0949540040752771
5.063743999999998,6.164211496156392,0.0947158213425986
5.068323999999999,6.204641904851918,0.0943723756587498
5.072919999999998,6.245072313547444,0.0940347518780545
5.077508,6.292287502233086,0.0936222033013784
5.082108,6.341956624833381,0.0932144204248688
5.086695999999998,6.385740401891207,0.0928776675201461
5.091295999999998,6.431445232558473,0.0925226619788573
5.095879999999999,6.472652890987501,0.0922009502902575
5.100471999999998,6.507808877711283,0.0919120445437613
5.105071999999998,6.543820157434088,0.0915723711436332
5.109664,6.583507218213,0.0911646495068668
5.114255999999999,6.6235608331343485,0.0907378072075414
5.118847999999998,6.669988532454751,0.0902164631800364
5.123436,6.705500833689232,0.0897804753526077
5.128020000000001,6.738148505417998,0.0893280090868065
5.132612,6.768586612660401,0.0888673772755334
5.137199999999998,6.799224947882468,0.0883532938391065
5.141792000000001,6.823156546379935,0.0878644758138242
5.146383999999999,6.848065622590568,0.0873239498406112
5.150975999999998,6.869577188990272,0.0867521408371915
5.155555999999999,6.894231656140874,0.0860963539486849
5.160151999999998,6.902696303233815,0.0855320705379465
5.164731999999999,6.90960645085975,0.0849666097576728
5.169320000000001,6.91250816510403,0.0844015051180082
5.173924000000001,6.909113838214775,0.0838703369540392
5.178512,6.906452619610393,0.0832961530701246
5.183107999999999,6.901704021233797,0.082701960444044
5.187703999999998,6.902307888094461,0.0820395461253833
5.192292,6.902134505221621,0.0813713618567998
5.196896000000001,6.9029827415105744,0.0806940007283617
5.201483999999999,6.897823447542914,0.0800787691750845
5.206087999999999,6.890865284679956,0.0794708632074567
5.210683999999999,6.881208818474056,0.0788763857565889
5.215276000000001,6.876293893934685,0.0782463075034166
5.219855999999998,6.868314111909934,0.0776448227497569
5.224455999999998,6.860867210190394,0.0770588315064161
5.229035999999999,6.850233266271328,0.0765107341487062
5.233635999999999,6.8374338993145285,0.0759888703777868
5.23822,6.820303686282263,0.0755205027653754
5.242811999999999,6.801418745803332,0.0751001483261761
5.247400000000001,6.780001828144231,0.0747257670513195
5.251996,6.769622493285194,0.0742913849778297
5.256592,6.760020408159661,0.073860474962056
5.261187999999999,6.751850637786986,0.0734424007845265
5.265768,6.748544593794987,0.0729869416077688
5.270363999999999,6.75051297177473,0.0725198553833648
5.274948,6.751626056755452,0.0720971896139148
5.279548,6.747386676498916,0.0717377558762868
5.284135999999998,6.75124220627121,0.0713521109467796
5.288732000000001,6.754731181901067,0.0709877144648604
5.293324,6.763738948930957,0.0706009047995288
5.297911999999998,6.779042757094384,0.0701969579327379
5.302496,6.799620987229551,0.0697870645285343
5.307076,6.822530966565225,0.06939290258266
5.311663999999999,6.855701278967461,0.0689549926196133
5.316259999999998,6.890914829693285,0.0685030386548664
5.320848,6.929726118209699,0.0680433774106848
5.325456000000001,6.973034578964354,0.0675746384476413
5.330043999999999,7.022883450280835,0.0670789908951113
5.334635999999998,7.080416536035081,0.0665457935335813
5.339228,7.145267282084656,0.0659958089002389
5.343819999999999,7.212571962048881,0.0654641718228709
5.348415999999999,7.279876642013108,0.0649380768738698
5.352995999999999,7.347181321977336,0.0644174601799032
5.357591999999999,7.41706212057036,0.063908042157401
5.362171999999999,7.485021865553944,0.063417512478095
5.366771999999999,7.56438574748003,0.0628845247600866
5.371363999999998,7.649512790234439,0.0623281296885135
5.375960000000001,7.729898291322319,0.0618024185119101
5.380552,7.813348649895579,0.0612631979874646
5.385147999999999,7.895655204592902,0.0607466013800969
5.389736000000001,7.974364021499631,0.0602460599832795
5.394328,8.051396154225207,0.0597542487448819
5.398928,8.125197103302634,0.0592586059287436
5.403519999999999,8.194500880141819,0.0587811780368956
5.408108,8.263804656981005,0.0583105018910226
5.412691999999998,8.332208999372543,0.0578459942904259
5.417284,8.399058842297077,0.0573796738028043
5.42188,8.461533697697517,0.0569187161815231
5.426467999999998,8.515424904212543,0.0564922347473856
5.431047999999999,8.559422331803443,0.0560802868509923
5.435640000000001,8.594303230203717,0.0556852822917475
5.440216000000001,8.629428498032285,0.0552831330131029
5.444795999999998,8.66185546251791,0.0548846391602233
5.44938,8.686842581994059,0.054505044927063
5.453967999999998,8.711052451736707,0.0541238426909229
5.45856,8.719483197012758,0.0537769730253291
5.463151999999999,8.724316204498217,0.0534349169343075
5.467736,8.727594712516673,0.0530845496859847
5.472340000000001,8.722289571649718,0.0527592224865722
5.476932,8.708645151325637,0.0524478396575366
5.481523999999999,8.692835307963824,0.0521522818918167
5.486112,8.671917368793045,0.0518841048512493
5.490712,8.650632875479829,0.0516302433731156
5.495295999999998,8.624484655785936,0.0513924762367711
5.499903999999999,8.596293197768453,0.0511651306317827
5.504492000000001,8.567202305303326,0.0509375802084808
5.509092000000001,8.532881132315085,0.0507401049670739
5.513675999999999,8.49717178602261,0.0505614883063745
5.518268000000001,8.462484058891931,0.0503761661924212
5.522855999999999,8.428451396780611,0.0501985654126721
5.527451999999999,8.399815341355175,0.0500183253260672
5.53204,8.368769493463716,0.0498628603685022
5.536631999999999,8.338134341163325,0.0497264400914452
5.541220000000001,8.311096926653523,0.0495882505009462
5.545807999999999,8.282016273820132,0.0494595950548804
5.550392,8.261152715729718,0.0493232924067847
5.554983999999999,8.236080496277985,0.049211960663519
5.5595680000000005,8.211418972417318,0.0491200485371308
5.564148000000001,8.191376805509035,0.0490215899310974
5.568744000000001,8.174277311371986,0.0489114006333567
5.573331999999999,8.155256763625495,0.0488059907798725
5.577920000000001,8.13533678143136,0.0487001127713367
5.582503999999998,8.113251376199491,0.0486096333697752
5.587088,8.09055504739689,0.0485447843806908
5.591700000000001,8.066959284146646,0.048479399863539
5.596292,8.040176478696873,0.0484346669898159
5.6008960000000005,8.019156834075424,0.0483735346309723
5.605487999999999,8.000180427777563,0.0483013981120719
5.610079999999998,7.983902324822647,0.0482286292538822
5.6146720000000006,7.971221959658319,0.0481554197341065
5.619252000000001,7.953800052827462,0.0480925504449954
5.623848000000001,7.936500330710752,0.0480241625553763
5.628424000000001,7.922265466079421,0.0479399682035075
5.633024000000001,7.9039441248009155,0.0478766709371939
5.637611999999999,7.884356794932327,0.0478289124791356
