Time,Force,Position
4.816532000000002,5.284505595770258,0.1358905989815514
4.8211239999999975,5.323045669751558,0.1357540477300141
4.825711999999996,5.365017155360676,0.1355188652197753
4.830308000000002,5.410952932902823,0.1352046854880542
4.8348960000000005,5.458521253177491,0.1348230325023739
4.839492,5.505923247289387,0.1344056879576849
4.844079999999998,5.553158915238511,0.1339548742821769
4.8486759999999975,5.600106072310713,0.1334718906639482
4.853268,5.650851195153171,0.1328741661310218
4.857867999999996,5.699753307651705,0.1322465221637788
4.862456000000002,5.748078398396401,0.1315554015880977
4.867060000000002,5.79353885963538,0.1308645973483848
4.871651999999997,5.839810472424748,0.1300489632528295
4.876247999999997,5.877820849022513,0.1293175303099882
4.880831999999998,5.909246673609822,0.1286513853240775
4.885427999999997,5.93793005340556,0.1279740268566137
4.890015999999996,5.963870988409726,0.1272942317538902
4.894612000000002,5.987558217478902,0.1265752048953179
4.899191999999999,6.002206960622973,0.1259299248531106
4.903776000000001,6.008716652289585,0.1253451972939577
4.908367999999996,6.011462280002832,0.1247687044566319
4.912956000000001,6.006357367115536,0.1242881788865651
4.917544,5.994667902217788,0.1238590337046202
4.922139999999999,5.978314938919024,0.1234484933733475
4.926735999999998,5.958730791972107,0.1230575688613297
4.9313239999999965,5.933094973319945,0.1227296995138675
4.935919999999996,5.905249590181422,0.1223983062894849
4.940508000000001,5.877115696165979,0.1220314353042641
4.9450999999999965,5.845384064359944,0.1217054438509146
4.949691999999999,5.816062225019934,0.1213102008645201
4.954276,5.7882507436983,0.1208563736720678
4.958872,5.760272936213891,0.1203578629151281
4.963464000000002,5.732172944015338,0.1198636027604201
4.968063999999998,5.710491177664466,0.1192826828233608
4.972659999999998,5.690608280208889,0.1186767272486749
4.977252,5.674567489972195,0.1180095813598673
4.981843999999995,5.657382895859563,0.1173683815947661
4.986435999999998,5.636766890119112,0.1168068107343956
4.991028,5.622324740798051,0.1161770185203622
4.995607999999997,5.614833697629882,0.1154774614082564
5.000208000000001,5.610573838109866,0.1147606907716312
5.004787999999998,5.609545162238008,0.1140270592001266
5.009395999999995,5.614323788643101,0.1132534910518288
5.013987999999998,5.618124937335027,0.1125463849436796
5.018583999999997,5.62233678161802,0.1118617873356855
5.023175999999999,5.630679243996815,0.1111464502121556
5.027771999999999,5.637922043948299,0.1105099455742751
5.032359999999997,5.646230604510205,0.1099078688449966
5.036955999999996,5.654583306520739,0.1093576487996896
5.041551999999996,5.66387958442755,0.1088525213705335
5.046148000000002,5.6670902888122265,0.1085111631875489
5.050739999999998,5.673942872436123,0.1081831199155755
5.055327999999996,5.68468170472753,0.1078510123742709
5.059919999999998,5.693132929267058,0.1075770322148535
5.0645079999999965,5.704693152740596,0.1073013081123526
5.069096000000002,5.716541887091053,0.1070635413054139
5.073687999999997,5.730600185927871,0.1068336126412223
5.0782839999999965,5.747889668412843,0.1065914050140851
5.082872000000002,5.7648125967553785,0.1063768079387499
5.087463999999997,5.7834122092790645,0.1061577854844743
5.092044000000001,5.80201182180275,0.1059412287265361
5.096635999999997,5.8213886840599365,0.1057270163475989
5.101219999999998,5.840643361602979,0.1055243493147145
5.105807999999996,5.8655390152602,0.1052557451684913
5.110403999999996,5.895054025869805,0.1049406476158011
5.115000000000002,5.925468470927058,0.1046190383617936
5.119588,5.956127285412602,0.1042783618167666
5.124179999999996,5.986786099898147,0.1039405261894253
5.128771999999998,6.016789849364335,0.1035938529424864
5.133364,6.042418611306429,0.1032803381453269
5.137943999999997,6.076342511257017,0.1028272170304391
5.142544000000001,6.107568107864662,0.1024034276580347
5.147131999999999,6.1365841399859455,0.1019770469733759
5.151731999999996,6.163024053478432,0.1015673291321529
5.156323999999998,6.184311729713322,0.1011907921214289
5.160911999999996,6.1986482997953205,0.1008622059311722
5.165492,6.208976436495663,0.1005418108093432
5.170083999999996,6.217461562852081,0.1001894964035769
5.174683999999999,6.222060440540988,0.0998356586837882
5.179279999999999,6.222773069562384,0.0994835980787657
5.183872000000001,6.221031764669129,0.0991385796331227
5.188471999999997,6.215404211108361,0.0987916132721766
5.1930520000000016,6.207933647203672,0.0984120292309892
5.197635999999996,6.195921769612114,0.0980218973375624
5.202224000000001,6.177080970581811,0.0976651968471955
5.20682,6.156274976493438,0.0972811612500257
5.211411999999996,6.132604352899348,0.0968752548869934
5.216000000000001,6.104925295923599,0.0964709669325659
5.2205960000000005,6.07618047833743,0.0960298580735975
5.225175999999998,6.0518886915408725,0.0955019121626428
5.229768,6.018480375553691,0.0950482384289528
5.234352000000001,5.9819630606325,0.0945870818925126
5.238931999999998,5.943769061530159,0.094127550436792
5.243544,5.905042182122608,0.0936465811327084
5.248131999999998,5.870523964076376,0.0930940697470134
5.2527199999999965,5.8406251029825285,0.0924949212243626
5.257311999999999,5.813424545231625,0.0918715919039304
5.261899999999997,5.7876563022335805,0.0912556644400109
5.266503999999998,5.768184100369071,0.0905910943874496
5.271084000000002,5.748100974933833,0.0899639228630575
5.275680000000001,5.729816718393892,0.0893213260440582
5.280259999999998,5.712720407178517,0.0887023021952454
5.284863999999999,5.695668237411772,0.0881316053003657
5.289451999999997,5.678538024379506,0.0876161466505395
5.294052000000001,5.666437863890692,0.0870856736416217
5.298636000000002,5.658346136783534,0.0865572421707589
5.303232000000001,5.659004384724563,0.0859856506188855
5.3078239999999965,5.662893816313747,0.0854118142758507
5.312419999999996,5.67042512714215,0.0848651303237742
5.317008000000001,5.677878394705036,0.0843807931897928
5.3215999999999966,5.694736702335466,0.0838659718808466
5.326188000000002,5.717280127528702,0.0833521909492262
5.330779999999997,5.7438319861035945,0.0828458270924663
5.3353679999999954,5.776313331669585,0.0823291916718835
5.339951999999997,5.806917765074763,0.0818852039546758
5.344543999999999,5.838587959090362,0.0814805132073136
5.349131999999997,5.874510955915909,0.0810730206175142
5.353724,5.91366513638961,0.0806736969745444
5.358311999999998,5.955028881349672,0.0803017138373072
5.362907999999997,6.003588101890918,0.0798993717200778
5.367495999999996,6.0560335710996736,0.0795177423708502
5.372092000000002,6.112976212546668,0.0791173464225986
5.3766880000000015,6.176337079841345,0.0786872805868224
5.381276,6.246360542411994,0.0782120763932765
5.385871999999999,6.318960123611441,0.0777417732592646
5.390459999999997,6.392869834849599,0.0773023687960791
5.395047999999996,6.465391372783528,0.0769081910318245
5.399644000000002,6.5422878982415495,0.07650851832924
5.404235999999997,6.620083858147218,0.076109904766836
5.408831999999997,6.696858198891095,0.0757241721231708
5.413412000000001,6.774121278491553,0.0753241863732414
5.418011999999997,6.854327030863247,0.0749100045199504
5.422599999999996,6.936331652130237,0.0744980110799581
5.427199999999999,7.017314654235433,0.0741051480997019
5.431784,7.105204621044892,0.0736648302560747
5.436383999999997,7.196648184196315,0.0731789823018441
5.440979999999996,7.283472390395352,0.072723709887473
5.445575999999996,7.367065412946236,0.0722686368209314
5.450172000000002,7.448448871010758,0.0718109271266858
5.454763999999997,7.522636853494098,0.0713854492041622
5.459364000000001,7.593960206471721,0.0709426072933553
5.46396,7.66282962553469,0.0705027936903404
5.468547999999998,7.722704700121181,0.0700960764597991
5.473143999999998,7.774484864678842,0.0697186367655483
5.477731999999996,7.8195582925119025,0.0693423621734769
5.482320000000001,7.860090406658096,0.0689446582456533
5.486908,7.89865732574622,0.0685246882924745
5.491503999999999,7.9351368650621295,0.0680898195997784
5.496096000000001,7.970795013195908,0.067619078586928
5.500679999999996,8.00857444291879,0.0670941009139807
5.505271999999998,8.041201635384077,0.0665769809274425
5.509859999999996,8.068265895000703,0.0660471347448806
5.514455999999996,8.087846168159228,0.0655098485794658
5.519036,8.104317442383742,0.0649607687348137
5.523615999999997,8.109873318522338,0.064441987827982
5.528207999999999,8.112075826298632,0.0639242259832576
5.532803999999999,8.115788692093304,0.0633789892337671
5.537391999999997,8.121544796211563,0.0628218137931855
5.541983999999999,8.120638305053847,0.0622920825099405
5.546576000000002,8.119976183324425,0.0617508702415644
5.551180000000002,8.117515192699708,0.0612134035320139
5.5557719999999975,8.112600268160337,0.0606694725336032
5.560367999999997,8.116635546648816,0.0600783396383363
5.564956000000002,8.125534551517973,0.0594650189829206
5.569555999999999,8.139830163073016,0.0588455448270172
5.574135999999996,8.153759220485624,0.0582422175427554
5.578739999999996,8.161925117069906,0.0576607692150886
5.583331999999999,8.165227287273511,0.05710141225734
5.587927999999998,8.167918533906388,0.0565707677548455
5.592511999999999,8.166156749749655,0.0560818091807021
5.597107999999999,8.162107357841045,0.0556140889195524
5.601711999999999,8.153727119856969,0.0551789095089356
5.606307999999999,8.1484558808069,0.0547597052347214
5.610908000000002,8.141141403433243,0.0543510826542218
5.615504000000001,8.13856846772612,0.0539258729113034
5.923172000000001,1.718620141270345,0.0535662326679996
