Time,Force,Position
5.104596000000001,6.695103700008678,0.1289565046727746
5.109172000000001,6.658230070576792,0.1288827415925627
5.113768,6.612063346159768,0.1287478644075591
5.118348000000001,6.561389209872768,0.1285221169737345
5.122944,6.503020619516261,0.1282723604513665
5.127524000000001,6.438922770148322,0.1280177262775385
5.132124000000001,6.373715018721331,0.1276908722580219
5.136711999999999,6.303555258016403,0.1273431033573412
5.141307999999999,6.236294028634081,0.1268932369048763
5.145892,6.167478299784755,0.1264427710345106
5.150483999999999,6.098173832078848,0.1260205775142462
5.155083999999999,6.0299351249833615,0.1256196344851158
5.159676000000001,5.96325091735488,0.1252081162137292
5.164276000000001,5.901352392841557,0.1247713766345039
5.168868,5.846282789766979,0.1242596754957604
5.1734480000000005,5.791912393160386,0.1237931636242853
5.178031999999998,5.746824851907191,0.1232351507334216
5.18262,5.7039910165889856,0.1227165594786221
5.187211999999999,5.665864821120421,0.1222221559755026
5.191796,5.634733873253376,0.1216958589289907
5.196379999999998,5.612108531006227,0.1210824402340514
5.200976000000001,5.589771699635996,0.1204951459121722
5.205559999999998,5.569155693895546,0.1199376444072432
5.210152000000001,5.547928764584367,0.1194188522157294
5.214744,5.53418582173129,0.1188370725553585
5.219331999999998,5.529681592782983,0.1181205793845478
5.223935999999998,5.5249329944063845,0.1174168462312965
5.228524,5.515609180526032,0.1168260510031208
5.233132000000001,5.5005222058173535,0.1163280000607149
5.23772,5.482736927765734,0.1158595499649882
5.242307999999998,5.466339823018344,0.1153389206002822
5.246911999999998,5.450431457127537,0.1147774678925543
5.251508000000001,5.434523091236728,0.1142108741103116
5.256111999999998,5.419880713936005,0.1135992209174759
5.2607040000000005,5.399475175806959,0.1130799476670877
5.265295999999999,5.37547189988732,0.112602271400821
5.269876,5.345949832567649,0.1121981154421616
5.274471999999999,5.315650515514474,0.1117914090838693
5.279052,5.285717752603738,0.1113517325419564
5.283648,5.249000209702885,0.111025965184483
5.288232000000001,5.2108944934978005,0.1107460126280688
5.292828,5.173566027026219,0.1104603621681439
5.297419999999999,5.140201852487664,0.1100957015879449
5.302011999999998,5.108269992701969,0.1097334862515797
5.306612000000001,5.071596591249743,0.109440437361787
5.311212000000001,5.028549105398466,0.1092837175178111
5.315804,4.98513506540475,0.1091547906890651
5.320388000000001,4.944541513468125,0.1089850905333621
5.324976,4.906524080160297,0.1087894515883446
5.329563999999998,4.868795157729387,0.1086330410583434
5.334147999999999,4.833153615070695,0.1084874175005481
5.338743999999998,4.798700017736568,0.1083648595499464
5.343336000000001,4.767111049908159,0.1082569428291257
5.347923999999999,4.743250437966145,0.1080757718786402
5.352515999999998,4.7269959971963775,0.1078366757095369
5.357095999999999,4.718225542884713,0.1075498910814635
5.361688000000001,4.711175914202826,0.1073102010002915
5.366284,4.710466468103103,0.1070559370113785
5.370871999999999,4.716752269604899,0.1067989130054411
5.375467999999998,4.7364074031072665,0.1063972936767601
5.380051999999999,4.763546523067737,0.1059572285327419
5.384643999999998,4.802422432296259,0.1054587155523504
5.389247999999999,4.847394154678651,0.1049861223785601
5.393836,4.899483309376708,0.1045123108908141
5.398436,4.959344961409788,0.104041850623108
5.403032,5.029266718529767,0.1035209446922
5.407632,5.110803080203652,0.1029546445948763
5.412212,5.200478493354996,0.102369037548105
5.416812,5.2961275349460655,0.1018086188478867
5.421399999999998,5.403102670214121,0.1011690881818188
5.425999999999998,5.5173174225119865,0.100535554902945
5.430584,5.637750172677869,0.0999161720835742
5.435175999999999,5.76717726732023,0.0992397682273555
5.439768000000001,5.893950200068275,0.0986625473291319
5.44436,6.021378197835677,0.098109734028721
5.448947999999998,6.151748868374314,0.0975403171137634
5.453531999999999,6.286861080579482,0.0969252842880272
5.458123999999998,6.418375554994058,0.0963543505300776
5.462716,6.546536661046334,0.095814494196698
5.467299999999998,6.670977844593873,0.0953362013082397
5.471883999999999,6.795252701978638,0.0948453790645868
5.476479999999999,6.9044815431816815,0.0944624383366883
5.481072000000001,7.006226397926622,0.0941147913253864
5.485664,7.102774873965339,0.0937586428280241
5.490251999999998,7.195270775173772,0.0933716351693816
5.494851999999998,7.277051506275948,0.0930127373479563
5.499435999999999,7.347950741109094,0.0926514806010541
5.504024000000001,7.413897966664306,0.0922661445169777
5.508607999999999,7.471539814579287,0.0918583858262011
5.513196000000001,7.518588677102156,0.0914716336362501
5.517788,7.552590620318261,0.0911036182273083
5.522379999999998,7.579186620341783,0.0907089068654799
5.526968,7.58942647414487,0.0903783981189486
5.531559999999999,7.594059253650666,0.0900059019899869
5.536144,7.591941154983235,0.0896097905116171
5.540744,7.578086267047754,0.0892399988211869
5.545324000000001,7.554537828167809,0.088872021406164
5.549924000000001,7.526037380009931,0.0884661570859709
5.554503999999998,7.489764434517031,0.0880424307762765
5.559103999999998,7.445841176403256,0.0875936023431366
5.563687999999999,7.388137890697843,0.0871849595864291
5.568283999999999,7.333699690457475,0.0866827244657646
5.572876000000001,7.269856450149561,0.0862013275530215
5.577472,7.196608169774105,0.0857389260792111
5.582059999999999,7.116653152674051,0.0852788549046156
5.586655999999998,7.035388005535279,0.084793767549671
5.591244,6.952201804787069,0.0843137157207593
5.595839999999999,6.862186682600113,0.0838391173741028
5.600415999999999,6.768818192050856,0.0833575999576166
5.605004000000001,6.671851963711008,0.0828843543523492
5.609596,6.578972212018334,0.0823489929549052
5.614180000000001,6.481473103373275,0.0818313460192852
5.618776,6.390758774718334,0.0812384991661287
5.623352000000001,6.301721130244542,0.0806291386834203
5.627943999999999,6.2123169316283136,0.080028086833125
5.632528000000001,6.1262661013743855,0.0794106653500427
5.637115999999999,6.043446454768612,0.0787840397839984
5.641711999999998,5.961814753487405,0.0781721636947524
5.646304000000001,5.886767604216653,0.0775504041365656
5.650908000000001,5.815117964756829,0.076963835329162
5.6555,5.7546722342598455,0.0763412202081294
5.660087999999998,5.694026275783197,0.0757719811077747
5.664680000000001,5.648426333488271,0.0751403037822235
5.669276,5.615706984337336,0.0744785098321675
5.673867999999999,5.589083448340272,0.073846393197702
5.678456000000001,5.571087702677249,0.0731943469715568
5.6830560000000006,5.5593099548822416,0.0725701543832057
5.687632000000001,5.556448508298198,0.0719624692496994
5.692232000000001,5.570065392648734,0.0713266930709849
5.696828,5.595785620409757,0.0706729377295118
5.701428,5.624536803839273,0.0700967819093839
5.706012000000001,5.668211818736364,0.0694922805594026
5.710604,5.717083212339679,0.0689431495611728
5.715191999999998,5.770251550201571,0.0684468809553884
5.719788000000001,5.832947112845151,0.0679464066641064
5.72438,5.904148281108628,0.0674538759723492
5.72898,5.980912382220765,0.0669909940161778
5.733560000000001,6.06810314256224,0.0665258776192701
5.738143999999998,6.158525086551869,0.0660827716862867
5.742732,6.256386875550973,0.0656139020526917
5.747328,6.355680979302935,0.0651751861386521
5.751919999999998,6.467689350036112,0.0647094514644117
5.756523999999999,6.576755047998055,0.0642818104753718
5.761115999999998,6.685454191817561,0.0638874987331109
5.765704,6.797873258141804,0.063483894365256
5.770295999999998,6.912868443094845,0.0630982642594077
5.774884,7.0320722894092045,0.0626838473926938
5.779471999999998,7.149477266828269,0.0622811501746448
5.784079999999999,7.255844661447269,0.0619270476933266
5.788667999999998,7.358736502989822,0.0615860797454595
5.793264000000001,7.462483637531394,0.061209120573684
5.797856,7.557236427596488,0.0608613779299303
5.802443999999998,7.64311705789925,0.0605260700779076
5.807032,7.724989254820355,0.0601768345519776
5.811632,7.80158702976972,0.0598391782720743
5.816223999999998,7.872255317727984,0.0595014900748225
5.820812,7.940181160894679,0.0591354361028643
5.825408,7.998824148707975,0.0587634570108612
5.829988,8.053214333711322,0.0583912369353265
5.834588,8.099631793399986,0.0580300358876958
5.839175999999998,8.138198712488109,0.0576702983064385
5.843775999999998,8.157755323461483,0.0573423924193995
5.848368000000001,8.171015893301321,0.0570223326486947
5.852964,8.177814095844852,0.0566792859092107
5.85754,8.176106692768483,0.0563247957118469
5.862136,8.164627695482137,0.0559764654025424
5.866723999999998,8.13941281205278,0.0556514773542564
5.871316,8.113909417746505,0.0553005369461355
5.875903999999999,8.08697370868737,0.0549328646717946
5.880492,8.051943089599405,0.0545699914151621
5.885079999999999,8.007429387178378,0.0542333281619072
5.889675999999998,7.959195762252616,0.0539021753257849
5.894268,7.91018488759335,0.0535622419647121
5.898859999999999,7.862684370952461,0.0531911852476541
5.903455999999999,7.810564497359186,0.0528259774047408
5.908031999999999,7.75460251654703,0.0524705744817591
5.912616,7.693532439925907,0.052141849518831
5.917207999999999,7.628131517229317,0.0518434247887588
5.9217960000000005,7.559132856742135,0.0515428853985982
5.926387999999999,7.488868207664868,0.0512557572314512
5.930976000000001,7.4211796772164,0.0509692115311719
5.935579999999998,7.359542818473174,0.0506870857774735
5.940163999999999,7.30150369752054,0.0504005389803266
5.944763999999999,7.244530337178328,0.0501442024041011
5.949355999999998,7.19360864854136,0.0498933493281218
5.9539480000000005,7.144896524390753,0.0496619985628697
5.958544,7.104401494983122,0.0494190900138125
5.963131999999998,7.053934643385848,0.0492218223437517
5.967731999999998,7.003756302665494,0.0490516341523477
5.972311999999999,6.961428502545676,0.048889635387334
5.976911999999999,6.925152374131104,0.0487369851443651
5.9815000000000005,6.888509691574097,0.0486006533358384
5.9861,6.859839734331771,0.0484679114827363
5.990680000000001,6.82659456158569,0.0483820111896012
