Time,Force,Position
4.903148,4.769041187159945,0.1310669264053621
4.907724,4.709250521682314,0.130944920056323
4.912312000000002,4.659475819842956,0.1306516133763059
4.9169,4.609090194432867,0.1304095480970991
4.921488000000002,4.565533490461527,0.1300759169725376
4.926072,4.527006839033636,0.1296757213133038
4.930656000000001,4.495309109044491,0.1291791723098389
4.935252,4.472649864980454,0.1285841459613763
4.939843999999999,4.452855250422137,0.1279890142572106
4.944443999999999,4.441810610912005,0.1272545763198446
4.949036000000001,4.43170954729815,0.126565392707346
4.953619999999999,4.421774809847069,0.1259252404998454
4.958204,4.414704701901703,0.1252890046763686
4.962784000000001,4.407434365976677,0.1247366427092858
4.967384000000001,4.394733521548873,0.1244149855867959
4.971964000000002,4.39066046745511,0.1239704155185511
4.976543999999999,4.392150346210009,0.123483821686337
4.981140000000002,4.3943394314328925,0.1230727511109526
4.985728,4.398738081142136,0.1226634299836999
4.990319999999999,4.40984346757598,0.1221802753471673
4.994904,4.4278999601627165,0.1216064849604547
4.999492000000002,4.446122778912225,0.121086337871173
5.004084000000001,4.46169143576742,0.1206734967003164
5.008671999999999,4.479469657108974,0.1202556008546182
5.013256,4.496636954879802,0.1198954367587651
5.017860000000001,4.509229037146873,0.1196848349267391
5.022447999999999,4.522109630290862,0.1195199627433687
5.027040000000001,4.536011842596645,0.1193342553372621
5.040816000000001,4.562770985861267,0.1193320265934769
5.045412000000001,4.577905284940245,0.1192438435359613
5.049999999999999,4.594594083486228,0.1191517242001896
5.054599999999999,4.6157800542704495,0.1189924274128182
5.059192000000001,4.646693477816024,0.1186303975177086
5.063788000000001,4.676096543343223,0.1183456364973819
5.068364000000001,4.707054108337426,0.1180624096707914
5.072947999999999,4.735069000560394,0.1178382580157898
5.077523999999999,4.761040654459775,0.1176624263611755
5.082116000000001,4.785990689197362,0.117516268365346
5.086703999999999,4.808775300897217,0.1174332024342783
5.091279999999999,4.838100323158899,0.1172504972224254
5.095872000000002,4.874620821001761,0.1169731552076802
5.10046,4.918336794425808,0.1166073444197757
5.105051999999999,4.96499544062109,0.1161893546600827
5.109640000000001,5.01921611653999,0.1156448775509229
5.114227999999999,5.0731924230306005,0.1151242508359269
5.118816000000001,5.12157189485566,0.1147479662126215
5.123400000000002,5.173016224166101,0.1142991547915312
5.127992000000001,5.228058291267132,0.1138060114891872
5.132584,5.283511053959229,0.1133418301282566
5.137172000000001,5.334877340004152,0.1129787309971872
5.141772000000001,5.386610180191511,0.1125964570282106
5.146355999999999,5.437443585931222,0.1122353445514117
5.150952000000002,5.488399176385079,0.1118870886399863
5.15554,5.536123583190783,0.1115541231634459
5.160136,5.582293490529482,0.1112308500969899
5.164724000000001,5.633449308963002,0.1108224838387133
5.169320000000001,5.687669984881903,0.1103602787074623
5.173903999999999,5.741357780495592,0.1098911708963465
5.178503999999998,5.790548403871044,0.1094724549088557
5.183096000000001,5.832299182237021,0.109159273441414
5.187679999999999,5.870285896649633,0.1088521851093363
5.192268,5.900299885747559,0.1086262524637093
5.196859999999999,5.929536625111984,0.1084057464459167
5.201464,5.954642746380607,0.1082100313309992
5.206055999999999,5.979826910914747,0.1079598306906475
5.210644,6.008276160913931,0.1075892819925309
5.215231999999999,6.038113584217345,0.1071805739214533
5.219807999999999,6.065208562729187,0.106755403666692
5.224400000000001,6.090582715611251,0.1062921035386668
5.228980000000002,6.113869488721099,0.1058156886783694
5.233563999999999,6.132781274306855,0.1053767581803183
5.238156000000002,6.147684626510954,0.1049499621097819
5.242735999999999,6.148729907857898,0.1046748871630211
5.247311999999999,6.150141743347279,0.1043746735205382
5.251907999999999,6.149221829636154,0.1040764360398728
5.256492,6.143271863381579,0.1038056375772467
5.2610800000000015,6.13127022542176,0.103577038180554
5.265672,6.114771415223701,0.1033896592350369
5.270256000000002,6.102359081672816,0.1031361692269329
5.274859999999999,6.09055767169266,0.1028413697796509
5.279435999999999,6.077734642550713,0.1025624561357636
5.284035999999999,6.067321405874788,0.1022256504553597
5.288611999999999,6.053676985550706,0.1018968305904043
5.293215999999999,6.043097422712008,0.1015202180116851
5.297804000000001,6.032273490445017,0.1011598402870946
5.3024,6.024025676806823,0.1007850266709371
5.306984000000002,6.013856809559188,0.1004338305717981
5.311580000000001,6.00524244177856,0.1000837720973087
5.316180000000001,6.000103627074376,0.0997130200819193
5.320772,5.99586424681784,0.0993346512369883
5.325360000000002,5.992646485723098,0.0989399334599823
5.329948,5.99008378964771,0.098552112204807
5.334524,6.00084628412427,0.0980137824568777
5.339112000000002,6.017782635020217,0.0974391620269496
5.3437,6.035496235649666,0.0968658124310323
5.348288000000002,6.059383692698505,0.0962569500780577
5.352880000000001,6.09316492867147,0.0955786367895555
5.357460000000001,6.132342771330321,0.0948614622489906
5.362043999999999,6.168455756503793,0.0941908902243628
5.366624,6.207022675591916,0.0935202272279296
5.3712,6.246122474985251,0.092868850888769
5.375795999999999,6.288453458026738,0.0922235733422582
5.380384000000001,6.33491505916403,0.0915731628957706
5.384967999999999,6.377290183654147,0.0909846379178923
5.389571999999999,6.420320373163621,0.0904108777089918
5.394171999999999,6.460163520473568,0.089890880356437
5.398776,6.504748209450046,0.0893353592953015
5.403352,6.5492107137123785,0.0887947447850685
5.407947999999999,6.590974914631769,0.0882781713187424
5.412536000000001,6.634537984446452,0.0877558161754609
5.417136000000001,6.682842595927666,0.0871995717232464
5.421723999999999,6.734989314627765,0.0866122042901491
5.426319999999999,6.784071175842483,0.0860745471199725
5.430916000000002,6.827223550066101,0.0855615176757032
5.435516000000002,6.872541347327455,0.085023608934336
5.440099999999999,6.9154052106741535,0.0844981942404037
5.4446840000000005,6.952339587029756,0.0839965934209746
5.4492840000000005,6.986942214184851,0.0834944293728084
5.453875999999999,7.026897306577206,0.082929480881872
5.458464000000001,7.069140006721439,0.0823393663072965
5.4630600000000005,7.110316946255249,0.0817216776267497
5.467647999999999,7.146341648531464,0.0811210609224178
5.472240000000001,7.178357917426022,0.0805187215041001
5.476823999999999,7.212661794072459,0.0798849212875325
5.481408,7.245899910108475,0.0792259743650967
5.485992000000001,7.281014938305304,0.0785164459069446
5.49058,7.309956110082744,0.0778341142428297
5.495172000000002,7.336565532659676,0.0771475584522663
5.499751999999999,7.361498271055458,0.076462464516922
5.504336,7.38589812914603,0.0757680565136198
5.508936,7.408621303055453,0.0750836229611466
5.5135200000000015,7.425414989973777,0.0744057822602524
5.518132,7.441020731567534,0.0737078498431774
5.522720000000001,7.452784365942407,0.073031470405152
5.527308,7.462871316136132,0.0723592349034515
5.531903999999999,7.468216724663325,0.0717150564891404
5.536496000000001,7.469475656543343,0.0711052576583235
5.541092000000001,7.46689248120448,0.070517365593567
5.545668000000001,7.456991645570287,0.0699591867334767
5.550268000000001,7.437852096031325,0.0694394900191479
5.554851999999999,7.419489796225865,0.0689218528256319
5.55946,7.404070169191641,0.0683830631061324
5.564044000000001,7.39159321492865,0.0678235779548615
5.568644000000001,7.377317391770365,0.0672688520380424
5.57324,7.360631776146056,0.0667475438528198
5.577831999999999,7.338715879998632,0.0662717161019435
5.582407999999999,7.316677799137063,0.0657989487733064
5.587003999999999,7.292596479951907,0.0653398344738466
5.591607999999999,7.271335648823841,0.064866615025287
5.596200000000001,7.246110525762747,0.0644179746952913
5.600779999999999,7.215777306892684,0.0640083244692144
5.605372000000001,7.188675271670775,0.0636055794200534
5.609959999999999,7.160185063144636,0.0632269405197192
5.614555999999999,7.139134699627972,0.0628191241692654
5.619148000000001,7.1175955972547245,0.0624345872562732
5.623744,7.09683374461498,0.0620516144806899
5.628324000000001,7.081835052803559,0.0616383688343898
5.632911999999999,7.074031836573321,0.0612111617168852
5.637504000000002,7.072280292048326,0.0607841160249652
5.642092,7.080422526447458,0.0603394952390365
5.646676000000001,7.090119260313593,0.0599060985262661
5.6512720000000005,7.098305636161353,0.0595056951915496
5.655859999999999,7.104859469276591,0.059144006596583
5.660452000000001,7.113867236306481,0.0587915294606761
5.665044,7.1256954913934605,0.0584294067445236
5.669632000000002,7.14676246038521,0.0580446821268272
5.674239999999999,7.173226036062847,0.057655570334497
5.678832000000002,7.206885087321665,0.0572597825967762
5.683428000000001,7.242220822761636,0.0568727136086689
5.688004000000001,7.284096968763432,0.056469969790344
5.692604000000001,7.327894168374669,0.0560583069412781
5.697191999999999,7.376432909652437,0.0556362499673127
5.701791999999999,7.427669954273148,0.0552146087664944
5.706380000000001,7.478784814179713,0.0548061907817216
5.710980000000001,7.531698542981576,0.0543989998828343
5.715563999999999,7.587554944554672,0.0539802931733373
5.720156000000001,7.642023172823537,0.0535895126596037
5.724756000000001,7.693138032730102,0.0531960209822964
5.729352,7.741188035151287,0.0528248666053437
5.733939999999999,7.780654388687059,0.0524834446116737
5.738532000000001,7.8153792005563,0.0521568766255835
5.743115999999999,7.852269435463273,0.0518150009283659
5.747712000000002,7.887482986189097,0.0514687313646122
5.752288000000002,7.917954995248388,0.051136748823039
5.756880000000001,7.950348057917123,0.0508019194954169
5.761476,7.9714591683575,0.0504949519483945
5.766064000000002,7.985008249074259,0.0502082356994275
5.770656000000001,7.990218050333893,0.0499362383823873
5.775243999999999,7.988643071603412,0.0496880782051455
5.779836000000001,7.978240074559226,0.0494747790563518
5.784424,7.966038208619743,0.0492608117953002
6.137991999999999,2.437865850159365,0.049164524748478
