Time,Force,Position
5.081928000000001,3.0667463517417217,0.1139437461756382
5.095687999999999,3.4293080987745017,0.1139187889781948
5.1002800000000015,3.5375562793427067,0.1137834724574074
5.104863999999999,3.6397425485739294,0.1134651860923077
5.109448,3.731614103658221,0.1130545380842874
5.114028000000001,3.812027140719645,0.112548964650932
5.118615999999999,3.8804148776360976,0.1121272742653301
5.123200000000001,3.946138213026496,0.1115695058143791
5.127787999999999,4.008419897157339,0.1109007537194328
5.132380000000001,4.053768413313908,0.1103717486486072
5.136959999999998,4.091100062707163,0.109894445433963
5.141539999999999,4.120947725642316,0.1094827186801886
5.146115999999999,4.143922325690095,0.1090781195597142
5.1507000000000005,4.166808642840618,0.108532448812281
5.155287999999999,4.176237345093312,0.1080382017264602
5.159872,4.175806170238769,0.1075432552185893
5.164456000000001,4.168624117210998,0.1070312747508638
5.169044,4.156367870191149,0.106486250052623
5.173635999999998,4.138715016485412,0.1060179931068704
5.178211999999999,4.112845068036699,0.1056807752922364
5.182804000000001,4.084765555101626,0.1053305800838134
5.187387999999999,4.050223674870244,0.1050100749016176
5.191987999999999,4.0067654934279,0.1047317042654323
5.196572,3.9537800872038673,0.1045531685348793
5.201163999999999,3.8916781517892094,0.1045184258072684
5.205743999999999,3.831986008840577,0.1043673238284053
5.210335999999998,3.769673605814518,0.1041649851407123
5.214915999999999,3.7047409427110334,0.1038895935372677
5.219504000000001,3.633468097025385,0.103609310035017
5.224087999999998,3.5617845557486723,0.1032793415471485
5.228676,3.4893237647384567,0.1029437625518531
5.233260000000001,3.4217267001089176,0.1024790562822462
5.237839999999999,3.3517198430133543,0.1021159331288985
5.242432000000001,3.279669747594204,0.1017832816810888
5.247008000000001,3.2141600627368803,0.101315406652026
5.2516,3.148938888756476,0.1008993234642214
5.256184000000001,3.0914460706624656,0.1003843433013785
5.260771999999999,3.036451327931735,0.0999354016430439
5.265360000000001,2.990983809982694,0.0993624313098004
5.269947999999999,2.9482587368252253,0.0988366265496364
5.274528,2.9112187812305623,0.0982788752162977
5.279132000000001,2.87782070487512,0.0977494983118074
5.283719999999999,2.851417876121196,0.0972190227516324
5.288323999999999,2.8318881102546465,0.0967038997805891
5.292912000000001,2.822418449474997,0.0960943655046418
5.297515999999998,2.812626376001538,0.0956269490767939
5.302095999999999,2.808030681234304,0.095193577158804
5.306691999999998,2.8041341929350545,0.0948740373690287
5.31128,2.8072329522373245,0.094567137400494
5.31588,2.8157724596741094,0.0942725376990491
5.320464000000001,2.833184126873228,0.0938601702072172
5.325056,2.8503955660926823,0.0935832877913989
5.329640000000001,2.877867338378701,0.0931126725816972
5.334232,2.903706567932197,0.092749483959616
5.338823999999999,2.9298343083626124,0.0924633475578599
5.343416000000001,2.9625024593548543,0.0920614444405709
5.348004,2.993782437042866,0.0917462787240352
5.352588000000001,3.031236271150267,0.0913624296922614
5.357171999999999,3.0610058908199025,0.0911457285626418
5.361764000000001,3.096538671317862,0.0908107813390319
5.36636,3.13015039820638,0.0905186704339834
5.370936,3.1658053634184853,0.0901761567304208
5.375536,3.1999058291635865,0.0898325010098975
5.380119999999998,3.238214956270007,0.089383281794648
5.384719999999998,3.2720269111381883,0.0889949803532364
5.389303999999999,3.3049394315587217,0.0886127369495572
5.393892000000001,3.3420606133405752,0.088127509559509
5.398475999999999,3.3791817951224283,0.087638627503212
5.403071999999998,3.411150739646686,0.0871942615243664
5.407655999999999,3.439888500522789,0.0867576470242769
5.41226,3.46196366612292,0.0864516872778508
5.416851999999999,3.483750320846132,0.0860871463036997
5.421444000000001,3.497974945845724,0.085854389183738
5.426023999999998,3.512810494416044,0.0855499992098785
5.430620000000001,3.5244148593382096,0.0852458926629436
5.435207999999999,3.5309111284514074,0.085063773880107
5.439812,3.535852898097601,0.0848743476623635
5.444399999999998,3.536908419076284,0.0846698128951215
5.448996000000001,3.5442158397398744,0.0843152814103654
5.453579999999999,3.545227219269929,0.0840281177557192
5.458175999999998,3.5476267721042136,0.0836798190841134
5.462764,3.5483496407573494,0.0833389381577374
5.467355999999999,3.5500941285722782,0.082977453708325
5.471936,3.542477717768292,0.0827429347280636
5.476516,3.537681795021394,0.0824685574240719
5.481096000000001,3.5359507297598767,0.0821296437721249
5.485688,3.525758200327092,0.0819070333068632
5.490279999999999,3.5186305283796875,0.0816215626686508
5.494868,3.513057355899288,0.0813440082736916
5.499451999999998,3.5110819212094797,0.0810343961839112
5.504027999999998,3.513970212900347,0.0806490894514637
5.508611999999999,3.5178801237530086,0.0802455523543518
5.513207999999999,3.525387772396261,0.0798107874952575
5.517792,3.5364931588301056,0.0793496122102443
5.5223960000000005,3.5520957175021897,0.0788544943707867
5.526976000000001,3.5710075030879453,0.0782769903079343
5.531564,3.593761395892584,0.0776523939556589
5.536155999999998,3.618969222611874,0.0770426950596309
5.540748000000001,3.640867822417493,0.0765246217758579
5.545348000000001,3.667263594461352,0.0759729703033125
5.549928000000001,3.6941922468104194,0.0754591612360962
5.554528000000001,3.722675398626492,0.0749617018769086
5.559111999999999,3.7519358001760663,0.0744778373868354
5.563715999999999,3.7913343500780594,0.073905311005123
5.568307999999998,3.83445282248479,0.0733125628112549
5.572892,3.879370163786816,0.0727258877971174
5.577483999999998,3.9316051653841697,0.072082244378885
5.582076000000001,3.9799980597626408,0.0714924744958699
5.586680000000001,4.031577996340639,0.0708494837449645
5.591272,4.079315825699753,0.0702587752781152
5.595867999999999,4.120513244497042,0.0697356318710606
5.600463999999999,4.161344109151894,0.0692529641728587
5.605039999999999,4.201642093501534,0.0687507387673176
5.609624,4.240019024241733,0.0682788916299424
5.614211999999998,4.277374335820139,0.0678329503528993
5.618811999999998,4.314607462684401,0.0674082946348295
5.623391999999999,4.350818970386867,0.0670097235460814
5.627984000000001,4.384454359460536,0.0666212721512562
5.632580000000001,4.419233552410144,0.0662112809425326
5.637156000000001,4.453479865054541,0.0657826618563065
5.641735999999998,4.4873154821078725,0.0653244983639326
5.646319999999999,4.518819349960698,0.0648508504595025
5.650908000000001,4.550567587241815,0.0643655186188439
5.655491999999999,4.5760197833893965,0.0639123694763606
5.660084000000001,4.596197557565237,0.0634756514229535
5.664672,4.6081582369981,0.0630761854714938
5.669276,4.617009917496956,0.0626553974121181
5.673867999999999,4.628271390461835,0.0621831214525389
5.678467999999999,4.637856179245564,0.0617129408840567
5.683047999999999,4.649606391067026,0.0612105931449615
5.687647999999999,4.664054906231431,0.0606983878178326
5.692232000000001,4.679114344966567,0.0601435920966857
5.696836000000001,4.693274349254052,0.0595949072268296
5.701423999999999,4.70600203878868,0.0590247971580384
5.706023999999999,4.718319032732241,0.0584257141002468
5.710615999999998,4.725361604704061,0.0578286574393049
5.715212000000001,4.731749111656527,0.0572203859151153
5.719788000000001,4.738014433894845,0.0566226325293656
5.724376,4.742603071952013,0.0560203975817339
5.728952,4.746047906133242,0.0554403552088495
5.733547999999999,4.749370555600327,0.0548729932185405
5.738136000000001,4.754369889248561,0.0543130678038614
5.742723999999999,4.754627681230264,0.0537769409585432
5.747308,4.754108223478465,0.0532306234908575
5.751888000000001,4.752444961850727,0.0527007866981108
5.756475999999999,4.759365349108402,0.0521258080608595
5.761064000000001,4.765796997509495,0.0515884107698626
5.765643999999998,4.771984276482295,0.051072946120749
5.770232,4.7752288826838605,0.0505776743540291
5.774819999999998,4.777451869723633,0.0500936663132421
5.779416000000001,4.779919226191698,0.0495926555287944
5.783995999999998,4.779199540460235,0.0491281224058745
5.788592000000001,4.775537181957538,0.0486799546336914
5.793188000000001,4.770608834864756,0.0482563098281467
5.79778,4.761471826410655,0.0478760342211826
5.802375999999999,4.755688186318853,0.0475102442951031
5.80696,4.742875396808643,0.0471950482119976
5.81156,4.731739291479582,0.0468896422197969
5.816147999999998,4.72035881672223,0.046600484713968
5.820744000000001,4.707956722803085,0.0463191534731361
5.825332,4.688647664179675,0.0460788957808649
5.829927999999999,4.66279819499444,0.0458521913101505
6.054876,2.8929965299787157,0.0458486576600155
6.059467999999999,2.8558753481968626,0.0458380652722963
6.064056000000001,2.815034243910272,0.045835857582127
6.068652,2.7763585626614145,0.0457952703368648
