Time,Force,Position
6.849415999999998,4.150281539370099,0.1437102465732206
6.854008,4.150892462940827,0.1436454454560519
6.8585879999999975,4.149982788861441,0.1434414761135694
6.86318,4.14555342025698,0.1432351839926102
6.8677639999999975,4.140547029898681,0.1429404628289181
6.8723600000000005,4.132676010034664,0.1426497638989552
6.876943999999998,4.127581336779108,0.1422187934738073
6.881519999999998,4.118966968998478,0.1417875134074215
6.886104,4.106999232855549,0.1414102212370809
6.890691999999998,4.097685658606935,0.140903425967198
6.89528,4.088782779949385,0.1404241352170435
6.89988,4.086420311853663,0.1397760544754869
6.904471999999998,4.079071932663117,0.1392759640109819
6.90906,4.0680036309678345,0.1388692256119392
6.913656,4.055014275663112,0.1385144064525682
6.918251999999999,4.0470108314532105,0.1380016886885781
6.922847999999998,4.041339136443816,0.1374641516861412
6.927423999999999,4.033912713987753,0.1370351338793555
6.932023999999998,4.022155445456225,0.1367651050873551
6.936612,4.016039153038876,0.1363448343383376
6.941208,4.014009337268701,0.1357880387851437
6.945795999999998,3.999431580680085,0.1355874123278431
6.950395999999998,3.986530508272617,0.1353570415954867
6.954988,3.9790260425510366,0.1350057545372069
6.959579999999999,3.971810087706376,0.1347004431191618
6.964175999999998,3.968191870652308,0.1343170191318075
6.968767999999997,3.956767254446328,0.1341553014658751
6.973364,3.94473171466962,0.134060491155741
6.977955999999999,3.9370711624170047,0.1338801481779257
6.982547999999998,3.928433132451224,0.1338037546875896
6.98714,3.9242922747236832,0.1336311695464171
6.991727999999998,3.919296123997123,0.133549550044441
6.996319999999997,3.921373264137599,0.1333287074247095
7.000907999999999,3.927458837659732,0.1330628744918723
7.005503999999998,3.9375528445635215,0.1327571717213127
7.010095999999997,3.9501449268305913,0.1324980808319721
7.014683999999999,3.963558400279791,0.1323062011341243
7.019275999999998,3.981879741558296,0.1320535538819575
7.023864,4.004453885646749,0.1317356087889902
7.028455999999999,4.030381398097502,0.1313843679862184
7.03304,4.054309813673295,0.1311658058565662
7.037616,4.089275812049154,0.1307036771141014
7.042207999999999,4.123753071568431,0.1302989270812925
7.0467960000000005,4.154921104174036,0.1300167034683742
7.051371999999997,4.185844767351349,0.1297609187834689
7.055975999999998,4.218567299423959,0.1294839259311328
7.060568,4.25795242677254,0.1290455387139023
7.065159999999999,4.299625161872998,0.1285210709281446
7.069748000000001,4.342319516135252,0.1279882062041962
7.0743480000000005,4.386157674273444,0.1274203037300242
7.078935999999999,4.428074778802196,0.1269069836228062
7.083539999999999,4.469581187739881,0.1263680508871261
7.0881240000000005,4.5106769010865015,0.125811418922202
7.0927240000000005,4.553160787737353,0.1252034315236622
7.097307999999998,4.58844919880702,0.1247183651893653
7.1019039999999976,4.617685938171444,0.1243178054222962
7.106507999999998,4.6477779705348885,0.1238440815989395
7.111103999999997,4.680524164792647,0.1232786624287951
7.115691999999999,4.709672621259816,0.1227750596622798
7.120283999999998,4.732280667165158,0.122401441654042
7.124859999999998,4.757542874964814,0.1219243141930217
7.129444,4.778307910526233,0.1215278828817358
7.134031999999998,4.79968386965838,0.1210821581722876
7.138624,4.821915121789546,0.1205630664435019
7.143207999999998,4.842181178862643,0.120020915905588
7.147807999999998,4.85741718339229,0.1195350842476188
7.152391999999999,4.868766939254425,0.119067323079866
7.156967999999999,4.878684380363703,0.1185964042635493
7.161552,4.881650715320088,0.118211677059596
7.166135999999998,4.881385866628318,0.1178484649697876
7.170724,4.883775179830865,0.1173898158000913
7.175311999999998,4.879868451899877,0.1170181041058238
7.1799,4.873385605340092,0.1166751432716839
7.184487999999998,4.860973271789208,0.116389575816286
7.189080000000001,4.853546849333144,0.1159965099971772
7.193667999999999,4.850573457666693,0.115476829079059
7.198263999999998,4.8402824057049125,0.1150680081777482
7.202852,4.818831586228921,0.1148445099949775
7.207452,4.796192821428364,0.1145929140525349
7.212031999999997,4.774942229932036,0.1142845938057891
7.216631999999997,4.748050662321529,0.1140752432601093
7.221223999999999,4.720626214405812,0.1138440623435269
7.225819999999999,4.692957397061804,0.1136302818376394
7.230395999999999,4.664677656147068,0.1134671387850113
7.234991999999998,4.638851849146985,0.1132842464046299
7.239587999999998,4.612292933862025,0.1131663367217808
7.24418,4.592562940015812,0.1129748288077534
7.248759999999997,4.577862998713049,0.1127395558305362
7.253352,4.567049306077798,0.1124954391433047
7.257939999999998,4.560244046824201,0.1122325282793597
7.262539999999998,4.547719768190911,0.1121349739934612
7.267123999999999,4.5495864407199855,0.1118470521138891
7.271719999999998,4.556238796364219,0.1115431484284177
7.276311999999997,4.571152388200057,0.1111871849572532
7.280899999999999,4.59007441341755,0.110823253519376
7.285499999999999,4.6104728948365326,0.1105325592753463
7.290075999999999,4.642197469932499,0.11013070132078
7.294663999999997,4.687047007600745,0.1095938199501615
7.299271999999998,4.7401577814605975,0.1090169847245903
7.30386,4.8020185303686365,0.1083751725434341
7.308456,4.875449742381951,0.1076189417086144
7.313047999999998,4.951379029758545,0.1069122825410469
7.317636,5.028251893031416,0.1062588981497953
7.322227999999999,5.108111570524151,0.1056147434623634
7.326827999999999,5.193534180865545,0.1049769552396552
7.331419999999998,5.286152266788124,0.1042614090418149
7.3359999999999985,5.372640637739941,0.1036768135814901
7.3405999999999985,5.460805692872908,0.1031139248889152
7.345188,5.55833164662479,0.1024584695815682
7.349784,5.654713796500734,0.1018366729854536
7.354367999999997,5.757880726366795,0.1011153256091927
7.358967999999997,5.854385060956884,0.1005165669688297
7.363564,5.951133764975263,0.099921247816995
7.368155999999999,6.043385296755404,0.0993781332884798
7.37274,6.131139656297306,0.0988880351335195
7.377331999999999,6.216562266638701,0.0984007196637252
7.381931999999999,6.300308192798947,0.0979417762024766
7.386531999999999,6.378002447253949,0.09753334604916
7.391119999999997,6.450666649165501,0.0971570498593358
7.395716,6.514092137172282,0.0968789231800903
7.400303999999998,6.569422715150233,0.0966731279588597
7.404888,6.62291028278426,0.0964361716873079
7.409475999999998,6.672755971179068,0.0961803035571519
7.414071999999997,6.720880833944097,0.0958887121526912
7.418664,6.760988829945814,0.0956109234135501
7.423268,6.795656077813014,0.0953336605743154
7.427859999999999,6.832200237841028,0.0949924580357474
7.432451999999998,6.858195553925559,0.0947172874515063
7.437044,6.86914485382837,0.0945398698365048
7.441623999999997,6.881316000872637,0.0942934781661581
7.446207999999999,6.888701464801744,0.0940510606765673
7.450799999999997,6.888847311701041,0.0938133234266991
7.455387999999999,6.8804875529804415,0.0936080854093392
7.459992,6.87437126056309,0.0933201818626052
7.464587999999999,6.867311392249465,0.0929950688244725
7.469172,6.85943013275371,0.0926257256751875
7.473775999999997,6.843165452352204,0.092279047726907
7.478355999999998,6.823136707997333,0.0919175685211043
7.482948,6.798977345546659,0.0915620589735677
7.487527999999997,6.774529472219065,0.0911758054476706
7.492124,6.749915272728699,0.0907517190548468
7.496711999999999,6.725012562361413,0.0902962398469787
7.501311999999999,6.704318513355446,0.0897822660287343
7.505891999999999,6.681537084577265,0.0892478550838486
7.510487999999999,6.657856221351436,0.0887150441945893
7.515076,6.633930988697314,0.0881939625446978
7.519667999999999,6.607429637414396,0.087679763708258
7.524255999999998,6.586691446959802,0.0871098875359517
7.528848,6.570572613457591,0.0865015161071792
7.533435999999998,6.549590053574706,0.0859387542703214
7.538027999999997,6.528363124263529,0.0853879087649531
7.542615999999999,6.515108920267038,0.08479564804427
7.547203999999997,6.508395126832372,0.0841517516178153
7.551787999999998,6.497472672036386,0.0835630738940047
7.556379999999997,6.48630584781211,0.0829869008179397
7.560972,6.475671903893044,0.0824261778920069
7.565552,6.471211816393367,0.081837773029753
7.570143999999999,6.473702835046582,0.0812274799712038
7.574728,6.484410948442773,0.0805720876890369
7.579315999999999,6.500760037953142,0.0798809223405789
7.583907999999997,6.518663626930516,0.0791979349561432
7.588504,6.536733542070663,0.0785534304458163
7.593107999999997,6.551494230297139,0.0779591445564985
7.5977,6.571817851372275,0.0773830225829037
7.602295999999999,6.599459132742739,0.0767736724287345
7.606895999999999,6.627999848560852,0.0761618314682295
7.611487999999998,6.659893932741265,0.0755515326402799
7.61608,6.6896225938839455,0.0749717903387911
7.620667999999998,6.723970611979011,0.0743737741675477
7.625271999999999,6.763593052045818,0.0737642656507689
7.629859999999997,6.804237111274418,0.0731470770849943
7.634456,6.843082301607723,0.0725447482492491
7.639047999999999,6.880539318636797,0.0719786357098652
7.643635999999997,6.92134970402817,0.0714154460241992
7.648228,6.965757827210136,0.0708454063130722
7.652823999999999,7.012864253735045,0.0702731243855618
7.657411999999997,7.060870114707601,0.0697068339347121
7.662004,7.107199291499007,0.0691501312103303
7.666603999999999,7.149031296052176,0.068616356333876
7.671203999999999,7.186899008672315,0.068118882408677
7.675799999999999,7.227587209349543,0.067615270499104
7.680395999999998,7.272361886673945,0.067083216924543
7.684987999999997,7.322000290379025,0.0665268396685435
7.689571999999998,7.3685296951500945,0.0659644586042805
7.694151999999999,7.411216992702282,0.0654312163514713
7.698743999999998,7.455947528578056,0.0648869267842477
7.703336,7.500922433882121,0.064337514186587
7.707912,7.551005434995154,0.0637555304841119
7.712508,7.596469079155802,0.0631953688145252
7.717095999999998,7.640378223849447,0.0626338080676092
7.721684,7.686330606866677,0.062063120347173
7.726267999999997,7.734448412921642,0.0614799877816068
7.730855999999999,7.784976011442629,0.0608727110429346
7.735467999999997,7.837791217715496,0.0602486096114972
7.740055999999999,7.890728608702507,0.0596280487792773
7.744643999999997,7.940190446613072,0.0590130975237337
7.74924,7.988097785056635,0.058397196431442
7.753827999999999,8.032940266014815,0.0578048743631889
7.758419999999997,8.078682181420644,0.0572160880609143
7.762999999999998,8.121847978197676,0.056625789426885
7.767599999999998,8.15679668023173,0.0560528510296181
7.772175999999998,8.188147644475194,0.0554896362461729
7.776775999999998,8.213857632604478,0.0549460281355994
7.781364,8.23548114408659,0.0544277414378706
7.785959999999999,8.254528536939903,0.0539074477210413
7.790551999999998,8.272554310631422,0.0533967632944617
7.795147999999997,8.285716357942265,0.052906039105431
7.799747999999997,8.291849255834698,0.0524529452150944
7.80434,8.298759403460636,0.0520047639819518
7.808931999999999,8.303748497477132,0.0515638559002353
7.813523999999997,8.304528930132307,0.0511516030023652
7.818111999999999,8.296481344473777,0.0507736396859419
7.822707999999999,8.27858412133975,0.0504344389659498
7.827299999999997,8.250060010996721,0.0501288953339345
7.831887999999999,8.212830067054135,0.0498506733812198
7.836475999999997,8.173068145931376,0.0496026529468062
7.841072,8.126399260104357,0.0493799047907265
7.845663999999999,8.07817587481033,0.0491443290570035
7.850244,8.023822774545547,0.04893968579494
7.854835999999999,7.968858750710032,0.0487595428159014
