Time,Force,Position
6.541995999999999,2.958617471955389,0.1567579924444669
6.546588000000002,3.0421568042926244,0.1566900251513981
6.551176,3.124986690530137,0.1561248259299516
6.555771999999999,3.1945591898494845,0.1557745186873701
6.5603560000000005,3.258191962545995,0.1553072824011974
6.564947999999999,3.315518454477232,0.1547666914979453
6.569556,3.3725461958998104,0.1538430913793408
6.574152,3.423512025985407,0.1528512888217892
6.578747999999999,3.457378361933954,0.1521671191989282
6.583347999999999,3.4854712974224404,0.1514414632745841
6.587936000000001,3.507424278308426,0.1507247559821595
6.592532,3.527289879422196,0.1500385094906884
6.597119999999999,3.5412701349934967,0.1495972067998725
6.601704,3.558359389498806,0.1491201134017377
6.606295999999999,3.572794482109799,0.1488014117427559
6.610875999999999,3.588295335331215,0.1485270085505044
6.615471999999999,3.605028275325826,0.1483532498724478
6.6200600000000005,3.630266820940333,0.147997649311975
6.624651999999999,3.666709275517679,0.1474048938048488
6.629240000000001,3.707404532904974,0.146733288391315
6.633832,3.754562157588576,0.1459663327006613
6.638420000000002,3.8025411734543098,0.1452790179023394
6.643008,3.847866027425728,0.1447657494125299
6.6476120000000005,3.8998976181217455,0.1441451161389685
6.652199999999999,3.953483708284768,0.1435420524284992
6.656788000000001,4.008868667343085,0.1429177885189062
6.661375999999999,4.065153060849052,0.1423100462319713
6.665968000000001,4.117473162421988,0.1418234571677428
6.670572000000002,4.1769887395761085,0.1411679973272364
6.67516,4.239691358929755,0.1404273191540019
6.679751999999999,4.304803770749425,0.1396004539647911
6.684340000000001,4.365785564473293,0.1388415604361237
6.6889400000000006,4.426356662606096,0.1380618480605161
6.693527999999999,4.484718196252539,0.1373030958497592
6.698127999999999,4.546877695669235,0.1363939963532815
6.702712,4.6114469875519575,0.1354179029564222
6.707307999999999,4.675194888252548,0.1343763470165787
6.711892000000001,4.73530090971392,0.1333803913644237
6.716484,4.787145694983687,0.132526062999796
6.721076000000002,4.837435980786448,0.1317027121935683
6.725668000000001,4.885761071531141,0.1308838698743056
6.730255999999999,4.93469708584656,0.1300218099338601
6.734844000000001,4.982322970123268,0.129153972842281
6.739431999999999,5.022220498513583,0.1284000976511819
6.744028000000002,5.055533474893443,0.1277219284478294
6.748620000000001,5.083039148996351,0.1271096661248361
6.753212,5.1057591399841,0.1265435868717945
6.757807999999999,5.131377662294455,0.1258568229320755
6.762396000000001,5.152577055632089,0.1251794906333016
6.766996000000001,5.166825342816832,0.1245996560117629
6.771583999999999,5.177431750762355,0.1240243223723586
6.776176000000001,5.18823838668754,0.1233716976167918
6.780759999999999,5.1945037089258586,0.1227283560081631
6.785348000000001,5.198681651391961,0.122074827021923
6.789952000000001,5.195664118276882,0.1215295607661387
6.79454,5.182874990951822,0.121119884773415
6.799128000000001,5.167876299140401,0.1207077539637308
6.803716,5.1463371967671545,0.1204081657582911
6.8083040000000015,5.120178737441522,0.1201850902409357
6.812900000000001,5.089767475305942,0.1200074256128722
6.817487999999999,5.055636290665626,0.1198909506298841
6.822087999999999,5.016352868767713,0.1198318010422112
6.826676000000001,4.974371143526856,0.1198129174699
6.831276000000001,4.939296382990262,0.1196419148052121
6.8358560000000015,4.903977253025378,0.1194914275519243
6.840456000000001,4.868413753632202,0.1193633861016026
6.845048,4.834404753706031,0.1192234930597537
6.849644,4.7979859613138345,0.1191577113214695
6.854235999999998,4.7638989181221465,0.1190777123443779
6.85882,4.733409612721048,0.1189425016932194
6.8634080000000015,4.701820644892639,0.1188995352444575
6.868,4.672074687408154,0.1188852624505673
6.872580000000001,4.647769478058185,0.1188515131089791
6.877172,4.626451082928078,0.1188161758406197
6.881756000000001,4.611184359503215,0.1187116699997031
6.886348,4.603890361393038,0.1185028439274135
6.890932000000001,4.604446903883399,0.1182026138605891
6.895519999999999,4.613997790850238,0.1177783751266421
6.900119999999999,4.630377599255825,0.1172831776763685
6.904704000000001,4.65178746020486,0.1167454093299903
6.909295999999999,4.678471743125639,0.1161484811364185
6.913880000000001,4.713661631666311,0.1154762293852447
6.918467999999999,4.753881572750434,0.1147617732057798
6.923072,4.791325167226097,0.1141698869004981
6.927660000000001,4.835353313712214,0.1135362476936963
6.932248,4.887476370227161,0.1128048738119337
6.936843999999999,4.93784469929544,0.1121569665407547
6.941428,4.990544777564225,0.1115049369449802
6.946032000000001,5.045087866176936,0.110898303543164
6.950628,5.101473965133569,0.1103365851463012
6.955219999999999,5.160802736861438,0.1097206211484365
6.9598,5.223729246379898,0.1090788474381419
6.9644,5.288454624793655,0.1084319721457915
6.968984000000001,5.355633937122063,0.1077860810925065
6.973592000000002,5.42256888002218,0.1071733545986319
6.978184000000001,5.488237834332212,0.1066089740960436
6.98278,5.548920877547422,0.1061462995528434
6.987360000000001,5.60768286715319,0.10572772012849
6.991956,5.666567041473105,0.1053093501784624
6.996551999999999,5.727250084688315,0.1048855054539667
7.001144000000002,5.783968835970497,0.1045299219924123
7.005723999999999,5.837989283909734,0.104213918116837
7.010308,5.892254101277263,0.1038888931685205
7.014895999999999,5.942266115834846,0.1035877961666155
7.019488000000001,5.988269697010771,0.1033009242729878
7.0240680000000015,6.03079772511025,0.1030500926804312
7.02866,6.074058861494604,0.1027487150934355
7.033251999999999,6.115232618106741,0.1024331383794316
7.037840000000001,6.151087811298509,0.1021114309117917
7.042432,6.181624441069908,0.1017834241150094
7.047020000000002,6.213671428859682,0.1014139423785239
7.051608,6.235169572705974,0.101125792889029
7.056212,6.250327533970103,0.1008479811406863
7.060799999999999,6.258900943223777,0.1005944107840612
7.065403999999999,6.265386972705237,0.1003263630038876
7.069992000000001,6.271951045452215,0.1000050520551505
7.074579999999999,6.27937041119821,0.0996305645274526
7.079175999999999,6.280982474667254,0.0992771244237225
7.083764,6.281528777525877,0.098894477705253
7.088355999999999,6.274346724498106,0.0985545642476385
7.092944000000001,6.269285953059439,0.0981308754662967
7.097544000000001,6.258295694629675,0.0977333838175418
7.102124000000002,6.241375949208814,0.0973615012470935
7.106724000000002,6.227765430701624,0.0969281373734028
7.111312,6.212966966869867,0.096468651054966
7.115912,6.195836753837602,0.0960066422631961
7.1204920000000005,6.178173660500127,0.0955270967658044
7.125088,6.164352674381534,0.0950055600319054
7.129683999999999,6.154129426053532,0.0944557445563656
7.134279999999999,6.145705046620828,0.0938898031159499
7.138868,6.134582363845177,0.0933454296695326
7.143464,6.129877906917209,0.0927446125665655
7.14804,6.1281602642091055,0.0921550242900865
7.152628000000002,6.126686990929292,0.0915457576789537
7.157216,6.125868782668833,0.090946936117892
7.161816,6.125705639427733,0.0903607733886285
7.166404000000002,6.1252981267583415,0.0897922886031057
7.170996000000001,6.132863339403634,0.0891792415649064
7.175592,6.139817628478198,0.0886069083207132
7.180172000000001,6.151146905076857,0.0880111336942005
7.184759999999999,6.160354900086412,0.087498214396202
7.189344,6.177779989838941,0.086929095921302
7.193931999999998,6.203955054639659,0.0863226137746335
7.19854,6.235282356697971,0.0857079809623606
7.203128000000001,6.275892514109681,0.0850825283875984
7.207716,6.321410539350695,0.0844629007488688
7.212311999999999,6.371714247706869,0.0838563368137778
7.216900000000001,6.422550836368252,0.0832790082701646
7.221496,6.477518043125441,0.0827098897679746
7.226087999999999,6.537515302426078,0.0821413179851871
7.230680000000001,6.600621560660724,0.0815908121595673
7.2352599999999985,6.67014604474305,0.0810178259154791
7.239852000000001,6.743390451330116,0.0804301619838626
7.2444320000000015,6.826939332432371,0.0798301077637974
7.2490320000000015,6.912164897715777,0.0792360637268165
7.253628000000001,6.998944962466186,0.0786599013609375
7.258224,7.0872795266836,0.0780972435759891
7.262804000000001,7.170628179806191,0.0775879302426867
7.267396,7.25655295155758,0.077079706222276
7.271984000000002,7.3461976458137075,0.0765607196623871
7.276576,7.441972055040595,0.0759897679800366
7.281163999999999,7.5339043570486,0.0754583546403906
7.285752,7.623260540427808,0.0749451972095805
7.290339999999999,7.712616723807015,0.0744489776025946
7.294932000000001,7.79334511685218,0.0739786286362119
7.299532000000001,7.874562248753928,0.0734976436677965
7.304108000000001,7.956634673654696,0.07298950694228
7.3087,8.036253164640812,0.0724870470988842
7.313280000000001,8.11161885281698,0.0719958397030511
7.317871999999999,8.182609553469053,0.0715186233215884
7.322464000000002,8.249103081882888,0.0710583934801804
7.327048,8.305458461944307,0.0706448650886106
7.331656000000001,8.35576217030048,0.0702426990534697
7.336243999999999,8.396660838589112,0.0698522670050141
7.340832000000001,8.435349942391381,0.0694509582142441
7.345415999999998,8.469664058669558,0.0690591712269125
7.350004,8.502912414337313,0.0686441532152951
7.3546,8.53713824771823,0.0681880883436327
7.35918,8.564901713802842,0.0677193669529034
7.36378,8.587635127344003,0.0672519902568805
7.368356,8.60264018499877,0.0667911203256414
7.372960000000001,8.614414059005384,0.0663225441926646
7.377552,8.620380630735044,0.0658474297988789
7.382152,8.614898924073573,0.0653865955693375
7.386743999999998,8.60774053323095,0.0649225614848995
7.391340000000001,8.589422374874122,0.0644949454486993
7.395928,8.560599514022433,0.0641116741240614
7.400519999999998,8.52727948093251,0.0637348198801617
7.405108,8.489951014460926,0.063342654263293
7.409704,8.45131241795063,0.0629306011923534
7.414292000000001,8.410586441668123,0.0624938065279936
7.41888,8.370349204242194,0.0620319203021052
7.42346,8.329334717082764,0.0615623713459833
7.428051999999999,8.29293958687572,0.0610786994173569
7.432644000000002,8.252824534163938,0.0606025565126732
7.437232,8.213076035594591,0.0601079691731791
7.441823999999999,8.16936324509222,0.0596313776528656
7.446412,8.12348503155211,0.0591698271524464
7.451003999999999,8.082103990250246,0.0586984679678938
7.455584,8.040722948948378,0.0582238391605297
7.460172000000002,7.998730984075783,0.0577710681758121
7.464788,7.954451411451309,0.0573368431802431
7.469379999999999,7.912381403313197,0.0569166125053974
7.473972000000002,7.874564197985032,0.0564968026595039
7.47856,7.838423676838016,0.0560771104955773
7.483148000000002,7.806125262909885,0.0556374480535928
7.487744000000001,7.778690575362429,0.055172609004945
7.492336,7.753709821729624,0.0547129601471063
7.496931999999999,7.73465855508792,0.0542626093244141
7.501520000000001,7.721003895132101,0.0538082243211924
7.506120000000001,7.712501472433878,0.0533595073079267
7.510707999999999,7.705309179774368,0.0529294198734963
7.515307999999999,7.699549201867716,0.0525127273652862
7.519888,7.684183955913859,0.0521270825839784
7.524488,7.671272643874652,0.0517484546076198
7.529083999999999,7.659549277160014,0.0513961527951881
7.533679999999999,7.648358790750587,0.0510577987553636
7.538259999999999,7.635780131036929,0.0507399584277952
7.542855999999999,7.618748440533659,0.0504615304651014
7.547444,7.598163153688427,0.0502211514961379
7.552035999999999,7.580398354900285,0.0499728368023584
7.556628000000002,7.570073401121615,0.04971002980085
7.561211999999999,7.559381893200509,0.0494632929051732
7.565800000000001,7.547424396689317,0.0492321150576519
7.570392,7.532157673264455,0.0490284136122683
7.574980000000002,7.516280026268864,0.0488514625297873
7.579576000000001,7.500813074864337,0.0486963051325787
