Time,Force,Position
10.099495999999998,3.275448012316041,0.1635122743631806
10.104104,3.456893965967729,0.1628985267472291
10.108695999999998,3.636320343480981,0.1618337004371413
10.1133,3.802855888218504,0.1610554451192705
10.117888,3.962552271885544,0.1602590388344207
10.12248,4.11062381136694,0.159481670320031
10.127068,4.246126930766416,0.158772956266312
10.131668,4.36521952286509,0.1582228294805169
10.136247999999998,4.470888401882825,0.1577986549501189
10.140847999999998,4.5658318711625645,0.1573635813648676
10.14544,4.655568722104342,0.1567736054431133
10.150032,4.741242758584096,0.1559702177789629
10.154612,4.807729921154586,0.1553911362184007
10.159204,4.86013830562478,0.1548640145036521
10.163808,4.903864518680566,0.15425624791401
10.168404,4.941651005113514,0.1535814953228832
10.172992,4.975995840286908,0.1528731291716231
10.177575999999998,5.006043731201726,0.1521931133043363
10.182156,5.032371699611806,0.1516256755379477
10.186751999999998,5.054002267803982,0.1512404226708122
10.19134,5.07759803105423,0.1508589176633631
10.195932,5.10340335879084,0.1504695718798227
10.200527999999998,5.12156861353831,0.1503306470194168
10.205116,5.143742301667438,0.150145637642649
10.209716,5.168736477853654,0.1499069768015165
10.214296,5.198638521869176,0.1496065573689936
10.218888,5.2288732182102455,0.1493980665281929
10.223484,5.2617281746287405,0.1491997417760308
10.228072,5.297447760552951,0.1489996100052204
10.232672,5.33717577985882,0.1487612205888593
10.237264,5.373350202822726,0.1486483131886844
10.241852000000002,5.410590386397053,0.1485715995865787
10.246448,5.460789206380888,0.1482416223375678
10.251044,5.5196158166987646,0.1477898735865454
10.255648,5.585515717883679,0.1472427979212202
10.26024,5.64949456545915,0.1467435677152684
10.264831999999998,5.710652924977532,0.1463131871739028
10.269412,5.774998326695439,0.1458125939990192
10.274012,5.837422674803905,0.1453592427497582
10.278588,5.904710749293049,0.1448161136232804
10.283192,5.978539234344017,0.1441664509323298
10.287776,6.051834839089774,0.1435165204136939
10.292368,6.128028975158139,0.1427486371100408
10.296956000000002,6.200459047273138,0.1420080580554379
10.301548,6.26528294821589,0.1413715947350893
10.306148,6.325809904900066,0.1407476242252685
10.31074,6.382406471468101,0.1400978342949486
10.31532,6.439447635444091,0.1393720558697536
10.319912,6.48924918239027,0.1387080778814869
10.3245,6.531156047287282,0.1381051881104867
10.329092,6.575017867610624,0.1373742871989224
10.333683999999998,6.611884440332448,0.1366911970255036
10.33828,6.636647669643783,0.1361643252352908
10.342872,6.654293466639453,0.1356945025426708
10.347448,6.659958104938782,0.1353622468424245
10.352044,6.664390656464915,0.1349700230086416
10.356632,6.664648448446619,0.1345702347368647
10.361224,6.659998372599018,0.1342132670244727
10.36582,6.652605851959845,0.1338480006653716
10.370408,6.638262225167781,0.1335630180684402
10.375016,6.616190242489322,0.133360055245669
10.379604,6.589865457000916,0.1331992220414814
10.384208,6.56018730315021,0.1330689091788207
10.3888,6.530875703441941,0.1329128386866039
10.393388000000002,6.501686288447816,0.1327483070248362
10.39798,6.475317361510783,0.1325375463393222
10.40256,6.454589410687928,0.1322389249116694
10.407156,6.433494905722634,0.1319628207825921
10.411732,6.418818626605022,0.1315985304270249
10.416332,6.409538954173296,0.1311652147900368
10.42092,6.395317512095379,0.1308633889831129
10.425508,6.386492676703348,0.1304941331028757
10.4301,6.383064447997204,0.13005642045545
10.434691999999998,6.378003676558537,0.1296760632321764
10.4393,6.3810378151487015,0.1291951218283522
10.443891999999998,6.385792779368644,0.1287461048729257
10.448484,6.393290188380157,0.1283077663296861
10.453076,6.403119346592177,0.1278619260103271
10.457664,6.419000176509441,0.1273599190435262
10.46226,6.440033243684302,0.1268102961697982
10.466848,6.467773047583761,0.1262102610928742
10.471432,6.5002985345983815,0.1255857121275235
10.476019999999998,6.539775127765893,0.1248967695162878
10.480616,6.582482904581557,0.1241983843950864
10.485208,6.633163406711906,0.1234262643873732
10.489795999999998,6.682988615843237,0.1227167261262647
10.49438,6.729915293651959,0.1221038223664824
10.498968,6.779418090089481,0.1214782790108536
10.50356,6.828554332384565,0.1208859505912547
10.508144,6.8778569008424215,0.1203366557562278
10.512732,6.932922630128603,0.1197108788434919
10.51734,6.984556947786967,0.1191628945214202
10.521928,7.036479776322251,0.1186466918274491
10.526516,7.093921396257568,0.118069942704457
10.53112,7.148175973993358,0.1175579301411508
10.535712,7.20435160533859,0.1170295366692035
10.540304,7.262570475007408,0.1164747142254536
10.544884,7.321688779123876,0.1159194767057825
10.549484,7.375166107126165,0.1154367562090239
10.554072,7.428887804556745,0.1149498842055777
10.558668,7.476435645567935,0.114518784703177
10.56326,7.52189610680691,0.1140820668926
10.567856,7.564902634131233,0.113665215399677
10.57244,7.605455227540904,0.1132654035660734
10.577036,7.635869672598158,0.112968589612098
10.581627999999998,7.666239976206785,0.1126362617814244
10.58622,7.6978321269568655,0.1122408773168994
10.590808,7.725293659611145,0.1118677616385234
10.5954,7.749768378045562,0.1114949441834945
10.599992,7.771500651688407,0.1111085964076817
10.604576000000002,7.787303438340155,0.110756189880162
10.609156,7.803184268257418,0.1103596616634431
10.613748,7.820409130030284,0.1098964757792989
10.61834,7.832071058954491,0.1094468752359177
10.62292,7.840990543087125,0.1089805692129158
10.627516,7.8423038560475105,0.1085526081313
10.632108,7.839730920340385,0.1081288276885
10.6367,7.831472867070451,0.1077216786622807
10.641284,7.823048487637747,0.1072820295139715
10.645872,7.810493490109239,0.1068579709480054
10.650468,7.799448850599106,0.1063939246932349
10.655055999999998,7.790814003554998,0.1058856104403272
10.65966,7.776904734539148,0.1054100291571442
10.664255999999998,7.758498293285059,0.1049662173033072
10.668852,7.74430051339229,0.1044620711152704
10.673456000000002,7.722662888490047,0.1040212226986465
10.678044,7.6966944175123375,0.103643847627798
10.68264,7.670725946534628,0.1032647775144655
10.687224,7.64271423723333,0.1029096288072652
10.691824,7.612659289608446,0.1025784316437785
10.696404,7.5871015142218,0.102212669667165
10.701004,7.560277750245071,0.1018706676324332
10.705588,7.527857151602791,0.1016171105995756
10.710188,7.4987899213228095,0.1013483160807112
10.71478,7.471810070815045,0.1010908072955608
10.719376,7.44986027285073,0.1008125670559887
10.723964,7.4292206049251295,0.1005459455839751
10.728559999999998,7.409646697609951,0.1003037578019551
10.733148,7.392282354781132,0.1000672572222396
10.73774,7.377904826172177,0.0998371195175194
10.742328,7.361894754830699,0.0996511479334065
10.746911999999998,7.342086717718965,0.0995412552478412
10.7515,7.331273025083712,0.0993689287625691
10.756096,7.3268775582961405,0.0991471344352286
10.760684,7.322892787099633,0.0989451252330324
10.76526,7.329579044560754,0.0986771654838317
10.769856,7.339985224526612,0.0983783306200689
10.774436,7.351823719245329,0.0980874647326631
10.779016,7.369058820649935,0.0977619907779527
10.7836,7.391568344026281,0.0974086047834651
10.788184,7.413955682688481,0.0970656655439859
10.79278,7.441617443322424,0.0966971661160758
10.797372,7.474920180070545,0.0962824095292475
10.801952,7.507856362676229,0.0958897105770766
10.806556,7.543857402767293,0.0954653494428305
10.811148,7.582923300343738,0.0950123278248978
10.815752,7.624809685977272,0.0945413314807282
10.820328,7.676179154943868,0.093999541720476
10.824928,7.725749755015168,0.0934702571047681
10.829515999999998,7.774787474781258,0.0929330849697308
10.834112,7.831631593699258,0.0923307431289491
10.838704,7.887820647597903,0.0917182178554841
10.8433,7.935548237325277,0.0911753998496154
10.847891999999998,7.981110404014922,0.0906664335643943
10.852484,8.028960178456444,0.090129849542075
10.857084,8.073456584535666,0.089608549984387
10.861676,8.119096794490828,0.089075792951743
10.866268000000002,8.164081939426632,0.0885385141807637
10.87086,8.205224977143553,0.0880346352928959
10.87544,8.24456914596518,0.0875444476762859
10.880032,8.280193392282069,0.0870797376957724
10.884619999999998,8.313363704684305,0.0866221791749597
10.889216,8.346123321495476,0.08615195619752
10.893804,8.378350058001436,0.0856711497801053
10.898388,8.405835252840866,0.0852249764858008
10.902976,8.426535667690178,0.0848322760307881
10.907564,8.44670320223428,0.0844312700011218
10.912152,8.456077523406606,0.0840809159104108
10.916744,8.46839451735017,0.0837090380197728
10.92132,8.480344957151294,0.0833552087130527
10.925923999999998,8.484733367228799,0.0830502464006448
10.930512,8.496150926724715,0.0826887194659536
10.935112,8.514353266210748,0.0822813575577309
10.939704,8.531367660372212,0.0818553968591091
10.944292,8.54633881621009,0.0814505764722966
10.948884,8.563108840943263,0.0810420325089753
10.95348,8.580001050390582,0.080631602628484
10.958084,8.599835932609135,0.0802035605091655
10.962664,8.624778910636657,0.0797360278292305
10.96726,8.652131681130202,0.0792403960424635
10.97184,8.684348178004425,0.0787158559055944
10.976448,8.718363543773943,0.0781898828593385
10.98104,8.749191867343933,0.0776962403110886
10.985636,8.785661167028103,0.077181019039979
10.990216,8.826872008378803,0.0766435635957307
10.994812,8.872824391396035,0.0760821578588399
10.9994,8.916489166661385,0.0755507230547768
11.003996,8.968371036669716,0.0749928782630192
11.008584,9.019109102802105,0.0744521281968206
11.013179999999998,9.073278580562317,0.0738797484903981
11.017768,9.132311784703198,0.0732826653211526
11.022352,9.185459643301613,0.0727276427841672
11.026944,9.235787013842934,0.0721915726729317
11.031536,9.290367187194208,0.0716585587094397
11.036128,9.342249057202537,0.0711341641406304
11.040708,9.390533189420276,0.0706230651466125
11.0453,9.436896268028567,0.0701254021877277
11.049879999999998,9.479539424132128,0.0696452764369496
11.054472,9.517441038569157,0.0691898515317585
11.059055999999998,9.555342653006184,0.0687410251042976
11.063644,9.590545964100269,0.0683021202545579
11.068231999999998,9.621252102956111,0.067875219296217
11.072828,9.65616690317328,0.0674202696231801
11.077412,9.68172080477153,0.0670006171672133
11.082007999999998,9.704820772455127,0.0665801574113899
11.086604,9.724811741204716,0.0661498609945085
11.091204,9.745169264096742,0.0657068585179522
11.095783999999998,9.759108561141089,0.0652826123852997
11.100383999999998,9.773780966470309,0.0648331531294406
11.104972,9.781013526790051,0.064406497018656
11.109572,9.784770534033353,0.0639829989417321
11.114159999999998,9.789915714580882,0.0635403949368662
11.118756,9.794528014823202,0.0630870209272936
11.123335999999998,9.79500969696972,0.0626290332065738
11.127932,9.801743278801142,0.0621340375431114
11.132524,9.8106422836703,0.0616243431121855
11.137116,9.820685092415395,0.0611061618179705
11.141704,9.831993889750576,0.0605743627682601
11.1463,9.845345925409346,0.060032749295497
11.15088,9.852812615525645,0.0595162421220956
11.155468,9.858480436746646,0.0590017800392193
11.160056,9.868112549900676,0.058471321388281
11.164648,9.873003121388177,0.0579559364864279
11.169244,9.885700092027587,0.057412795855559
11.173824,9.896598193771702,0.05687178830021
11.17842,9.91072747916397,0.0563418112476804
11.183008,9.927022187593971,0.0558000784856579
11.1876,9.947036818528712,0.0552524505429079
11.192196,9.967706514482808,0.054716332896212
11.196784,9.988909090742114,0.0541900303910105
11.20138,10.007824059249542,0.0536813831261775
11.205968,10.023429800843298,0.0531957753372647
11.210548,10.03380526191394,0.0527374288484052
11.215144,10.041648745804414,0.0523050577747134
11.219736,10.040175472524602,0.0519203118350992
11.224328,10.03449353788347,0.0515584116907986
11.228915999999998,10.023825692147511,0.0512148403210523
11.233508,10.009848619497886,0.0508928783159014
