Time,Force,Position
14.353860000000005,3.088382550418713,0.1856778703728963
14.358444000000006,3.30526981874943,0.1825118638821444
14.363040000000003,3.51985923969653,0.179506332243926
14.367636000000005,3.735215670745396,0.176524254284854
14.372232000000004,3.9401352029331855,0.1743595749207303
14.376824,4.137516367582507,0.1724101568394863
14.381412000000005,4.3262934040829375,0.1703851398322271
14.386012,4.5010697057485896,0.168627715587233
14.3906,4.664299206494115,0.166980096019336
14.395196000000006,4.814960287157723,0.1654204580137835
14.399792000000003,4.954929859900223,0.1638066859420854
14.404372000000002,5.079055687464022,0.1622680052577949
14.40898,5.183862216772673,0.1608662926284146
14.413560000000004,5.276134227816292,0.1593564424636074
14.418148000000002,5.346144267833531,0.1580618196634467
14.422736,5.402153573015991,0.1567927509822883
14.427328000000005,5.443551219792945,0.1555724563578565
14.431932000000003,5.468748806880499,0.1545419003131992
14.436516000000005,5.486618494040985,0.1535042096711729
14.441112000000004,5.492951619913084,0.1525767127105906
14.445692,5.490157976962821,0.1516682185664106
14.450292000000005,5.477338130742546,0.1507961635039796
14.454876000000006,5.455147146271617,0.149962750336948
14.45948,5.420275796636361,0.149275188613972
14.464064,5.377221254075017,0.1486354190167386
14.46866,5.326927094483861,0.1480744441419223
14.473252000000002,5.271602882349254,0.147582619847609
14.477848000000002,5.209982629081112,0.1472162931075024
14.482436,5.141411269660077,0.1469737969307753
14.487032,5.069364357162599,0.1467952996818543
14.528336000000005,4.441185230439946,0.1467330941550125
14.532924,4.392109735068573,0.1466697089123591
14.53752,4.348519129280342,0.1466127315820212
14.542116,4.313478270560635,0.1464680184300121
14.546708000000002,4.283633790547154,0.1462935165867346
14.551304000000002,4.258208439506393,0.1460992283308927
14.555884000000006,4.237612913029419,0.1459126293030304
14.560476,4.219926157506791,0.1457849110487508
14.565072,4.208990280157393,0.1456150803060019
14.569664000000005,4.211590060971342,0.1452231186501807
14.574260000000002,4.224660642463256,0.1447018742161398
14.57884,4.24832420934728,0.1440467622893807
14.583440000000005,4.277061970223383,0.1433783844540377
14.588028,4.3130834895779255,0.1426955375644011
14.592632000000002,4.355978071819842,0.1419832270632857
14.597216000000005,4.406156412540197,0.1412575267151793
14.601816,4.463985065881428,0.1404932531984955
14.606412000000006,4.522679251853418,0.1398640151374182
14.611008000000004,4.591311358198163,0.1391227548107571
14.6156,4.670658634649164,0.1382699509527521
14.620196,4.758922212311125,0.1373305423805519
14.624788000000002,4.844453584813255,0.136598981268347
14.629384000000002,4.933504651840458,0.1358836927453291
14.633972,5.020190067850265,0.1353212239296432
14.638560000000004,5.11002862424271,0.1348030831227522
14.643148000000004,5.208372786255049,0.1341980712676279
14.647736000000002,5.313668054420281,0.1335168362972842
14.652328000000004,5.424237744557255,0.1327675556548683
14.65692,5.535829053856022,0.1320165037357917
14.661516000000006,5.64100213730711,0.1314123821391459
14.666108,5.743476917415255,0.1308678401892558
14.670704,5.842598329161097,0.1303881172631975
14.675292000000006,5.941553414744169,0.1298772928619999
14.679888000000004,6.035312121621015,0.1293858853552779
14.684476000000004,6.12158684203976,0.1289774755656156
14.689072000000005,6.20213230344707,0.128570068034374
14.693668000000002,6.274905267519358,0.128207902908627
14.698260000000005,6.344891645351446,0.1277886275371739
14.702856000000004,6.40800496029616,0.1274111507040256
14.707440000000004,6.461014028705346,0.1270897958437022
14.712028000000004,6.505839904188444,0.126785613570289
14.716624000000005,6.549511736163866,0.1263657618490412
14.721216000000004,6.583978756051405,0.1259720135122764
14.725820000000006,6.614593429088324,0.1254905813781293
14.730416000000004,6.640456320826973,0.1249400258692343
14.735020000000006,6.652250674097066,0.1244996822136123
14.739600000000005,6.650998108060395,0.1241464835405589
14.744196000000002,6.639885664916486,0.1238130799447382
14.748776,6.623166147475289,0.123460548435573
14.753384000000004,6.599573567146715,0.1231219046291266
14.757980000000003,6.5713955316826445,0.1227435708399526
14.762572000000006,6.533646129988258,0.1224101941437806
14.767164,6.490455980159357,0.1220916108797939
14.771764000000005,6.447221688881827,0.1217229659872048
14.776356,6.402144387260373,0.1213267694007076
14.780952,6.356656390047853,0.1209041007372636
14.785556,6.312556566139564,0.1204338954221921
14.790152000000006,6.264203939421327,0.1199950236047261
14.794740000000004,6.2115985098931406,0.1195868316795654
14.799328000000004,6.156949842041367,0.1192116122300725
14.803912000000004,6.10410004308489,0.1188085932152603
14.808500000000002,6.048718266948243,0.1184684917386148
14.813088,5.999754716659275,0.1180431931612555
14.817680000000005,5.957497903094907,0.1175625544242738
14.822264000000004,5.916184665426818,0.1171132353402758
14.826856,5.883499218092769,0.1165855634641434
14.831452000000006,5.858419941930968,0.1159972588147761
14.836040000000004,5.840458098084833,0.1153823997665428
14.840636000000003,5.826793198497271,0.1147818631181126
14.845220000000005,5.826253261481993,0.1140632115099754
14.849804000000006,5.83090970317294,0.1133521522452335
14.854392000000004,5.848324553293728,0.1125506540390704
14.858988000000004,5.874000639606123,0.1117112791260623
14.863580000000006,5.903074235729443,0.1109068359891589
14.868184,5.940164698616079,0.1100827886622209
14.872776000000002,5.982818094351375,0.1092546474365622
14.877384,6.026292881268801,0.108476405077609
14.881976000000009,6.080727207720778,0.10764228301119
14.886572,6.144200020097862,0.1067786311350972
14.891152000000003,6.215156818933046,0.1058819221939087
14.895752000000002,6.28669063952207,0.1050528647649249
14.900335999999996,6.363132327940399,0.1042105270475506
14.904936000000006,6.445914198940891,0.1033831720511709
14.90952,6.526941342494715,0.1026353628557031
14.914112000000005,6.613897973039636,0.1018724016354168
14.918692000000007,6.700121495299684,0.1011662609836176
14.923288,6.791375070103183,0.100459551410623
14.927875999999998,6.882017721335953,0.0997995462525751
14.932468,6.97049494953099,0.0991819309032862
14.937055999999998,7.0529646474694125,0.0986617791510741
14.941648,7.135189975979543,0.0981645179545026
14.946228000000003,7.213695381984936,0.0977174550270127
14.950828,7.288480865485591,0.097314072202132
14.95541200000001,7.361956218947533,0.0969049999783124
14.960008000000002,7.43142313902782,0.0965097706926054
14.964591999999996,7.500112809374605,0.09612559096252
14.969176000000004,7.56904684914968,0.0957304071569897
14.973771999999997,7.630130348324216,0.0953835326771561
14.97836000000001,7.682586057164711,0.0950792258416038
14.982948000000007,7.732177136499489,0.0947659559287472
14.987555999999998,7.781069009366282,0.0944090077053015
14.992136000000002,7.827096252727358,0.0940414476646368
14.996728000000004,7.863962825449182,0.0937028648009856
15.001320000000009,7.897964768665287,0.0933505502181079
15.005920000000003,7.920640618204409,0.0930499680945662
15.01052,7.940041142646747,0.0927155858699344
15.015119999999996,7.949259377288039,0.0924153342330068
15.019711999999998,7.95544665626084,0.0920687115580869
15.024292000000004,7.963755216822745,0.0916587412222605
15.02888800000001,7.968299713431286,0.0912373597943059
15.033468,7.968425081067104,0.0907978702705716
15.038067999999996,7.962620961711823,0.0903742746229881
15.042656000000008,7.953174963117325,0.0899324275078265
15.047256000000004,7.941275030608174,0.0894932701842071
15.05184,7.926021729736723,0.0890599124971113
15.056436000000003,7.902018453817084,0.0886602174819674
15.061028000000007,7.880913709220054,0.0881978965896879
15.065624,7.859276084317812,0.0877204076036282
15.070220000000006,7.841069871043387,0.0871915839754158
15.074820000000004,7.82094260415952,0.0866770197257624
15.079416000000007,7.797217599485063,0.0861773111453791
15.084012,7.774392029258254,0.0856727393392334
15.0886,7.750422655155505,0.0851813017688737
15.093192000000002,7.726575465766902,0.0846820956609568
15.097784000000004,7.707469818044827,0.0841457498148921
15.102372000000004,7.688897050627966,0.0836209165460228
15.106964000000003,7.670857163516314,0.0831059291992564
15.111540000000003,7.654782471462734,0.0826134110207045
15.116135999999996,7.631800814704889,0.0821774168658448
15.120723999999996,7.612539080451781,0.0817174198381751
15.125315999999998,7.597407964294476,0.0812544686100839
15.129900000000006,7.585996770641906,0.0807676411044601
15.134479999999996,7.577694575923346,0.0802882874462572
15.139092000000003,7.571069065385937,0.0798074612872161
15.143680000000003,7.571761215143856,0.0792925403917028
15.14828,7.5798932099112495,0.0787348924522891
15.152876000000006,7.58050731640365,0.0782626918106609
15.157464000000004,7.582675922363056,0.0777948357661529
15.162068000000003,7.585133039199381,0.0773546955264527
15.166656000000003,7.590532828806942,0.0768940684806591
15.17125200000001,7.605948582052774,0.0763944804689296
15.175832,7.6213643352986065,0.0758981223069279
15.180428000000006,7.644342118268058,0.0753623869952761
15.185007999999996,7.6691187701328065,0.0748230681871589
15.189608000000009,7.698392594235793,0.074273663121449
15.19420000000001,7.730486906395869,0.0737132158305082
15.198796000000002,7.769365998546064,0.0731132055983799
15.203379999999996,7.808245090696257,0.0725170740494171
15.207971999999998,7.857384515913014,0.0718776829209487
15.212559999999996,7.907301190863273,0.071248820533192
15.217156000000005,7.955418996918238,0.0706305067017387
15.221748000000003,8.005213487154352,0.0700182398689066
15.226340000000008,8.05513016210461,0.0694051554419647
15.230919999999998,8.103247968159575,0.0688004229924416
15.235507999999996,8.146624232548008,0.0682265442952942
15.240096000000008,8.189756127508149,0.0676703141164275
15.244687999999996,8.2399171718867,0.0670674273802494
15.249284000000005,8.29314307375063,0.0664480060013788
15.253867999999995,8.346613345042853,0.0658229623075596
15.25846,8.39804037801149,0.0652187248989884
15.263047999999998,8.442027565970653,0.0646493589271917
15.26764,8.483971515606225,0.0640972051258339
15.272236000000008,8.522073358022915,0.0635701552609961
15.276815999999997,8.56095245017311,0.0630513124218925
15.281424,8.600975346199244,0.0625299038692325
15.286012,8.639976623063584,0.0620198263179679
15.290611999999996,8.67627959658498,0.0615207656639851
15.295203999999998,8.71102807063937,0.0610167261749174
15.299791999999997,8.740013383865438,0.0605416564177074
15.304388000000005,8.767077643482065,0.0600772836222445
15.308964000000003,8.79606295670813,0.0596084783202309
15.31356000000001,8.826192073810137,0.0591335373068121
15.31814,8.856565560340439,0.0586521935997456
15.322739999999996,8.890003904356114,0.0581561492128089
15.327324000000004,8.92356443308594,0.0576575098966865
15.331916000000009,8.956347712082263,0.0571588857250893
15.33650800000001,8.987209937469144,0.0566716762589211
15.341099999999996,9.016028924532437,0.0562000265877582
15.345692,9.045502976615088,0.0557402328954379
15.350284000000002,9.07485484398359,0.0552866691205094
15.354883999999998,9.104206711352097,0.0548338686613015
15.359476,9.135601817044188,0.0543719595914156
15.364068000000003,9.163277000231542,0.0539180370565689
15.368660000000006,9.188253880075951,0.0534680842508544
15.373255999999998,9.203381122444863,0.0530580631003852
15.377840000000006,9.218630549527925,0.0526453984834569
15.382419999999996,9.231592368859102,0.0522533903260158
15.387012,9.245331437923785,0.0518662478479303
15.391608000000003,9.254328965321935,0.0514891495290734
15.396196000000003,9.260139450520564,0.051131234714013
