Time,Force,Position
9.330968000000002,3.5236549469498586,0.1639885294453517
9.335556,3.767847661403823,0.1614182204517432
9.340144000000002,3.995018924986256,0.1598872026252377
9.344748,4.2079892257542495,0.1586785238626068
9.349336,4.412766093964416,0.1573511226515669
9.353924,4.61151495265449,0.1558004939816294
9.358516000000002,4.798717010424437,0.1542642354549857
9.363104,4.968853475874226,0.152975508593155
9.367708,5.123601033185008,0.1518089575134032
9.3723,5.260672074604901,0.1508239445930497
9.376892000000002,5.383542153210355,0.1499165712754541
9.381472,5.491678388696155,0.1491047494422584
9.386068000000002,5.588634377404267,0.1482108259672887
9.39066,5.673510684887043,0.1472238555505288
9.39526,5.74042196560201,0.1463383432906187
9.399852,5.7860589926355015,0.1456576091171104
9.404444000000002,5.819826806055056,0.1450012979319675
9.409028,5.838704689823924,0.1444941023680116
9.413624000000002,5.843391850410088,0.144186289324882
9.418212,5.842804589024508,0.1439634643163781
9.422808,5.8363319820964605,0.1438691301898217
9.427396000000002,5.832313309083065,0.1437478599196281
9.431992,5.829071885803171,0.1436208572880387
9.436568,5.829550385028016,0.143424989194534
9.445752,5.819636126840413,0.1432721822880669
9.45034,5.811941672770908,0.1432685894387648
9.454932,5.806578967901912,0.1432482397025854
9.459508,5.804203077252777,0.1432153674323152
9.464100000000002,5.806202174127736,0.1431192103463324
9.468688,5.813597877688582,0.1429376795270237
9.473276000000002,5.824346949611728,0.1427207250940507
9.47788,5.832075305498121,0.1426210132616109
9.482468,5.843812094766172,0.1424875490738996
9.487076000000002,5.857880633234729,0.1423384812630333
9.491664,5.875424724779731,0.1421425336912531
9.496256,5.895544934953532,0.1419162169202286
9.500848,5.925925478193895,0.1415183860817832
9.505448,5.95401841368238,0.1411807504006402
9.510052000000002,5.9825220447619305,0.1408634872398448
9.514644,6.012824544736777,0.1405137673128444
9.51924,6.043371414139914,0.1401487715131844
9.523828000000002,6.07506208741899,0.1397561064248573
9.528424,6.103277207621623,0.1394147232855125
9.533012,6.1316145125384,0.1390673616708445
9.537612,6.167103151587732,0.1385666102650268
9.542196,6.200792921741767,0.1380968011497519
9.546796,6.231906573267004,0.1376601993104338
9.551384,6.261299399162464,0.1371992561283297
9.555976,6.293102017523947,0.1366793037876132
9.560568,6.320118952770272,0.1362004670489985
9.56516,6.339285347416058,0.1358201618341222
9.56976,6.36249407726039,0.1353115432693415
9.574360000000002,6.383615427332506,0.1348032458733561
9.578952,6.404203897099411,0.1342838968492086
9.583544,6.41964012960872,0.1338205057926649
9.588132000000002,6.433111167059961,0.1333486864407893
9.592716,6.436688425587074,0.1330137163931849
9.597304,6.444840899617946,0.1325667717859017
9.6019,6.452949232200188,0.132074402583625
9.606492,6.46526622614375,0.1314973837163718
9.61108,6.47819414365804,0.1308839625714019
9.615676,6.484826020038798,0.1303490581488116
9.620252,6.489781212238401,0.1298280945181389
9.624848,6.492038101095064,0.1293414797634443
9.629432,6.488409644409257,0.1289580050242905
9.634016,6.48196069966636,0.1286159398212193
9.638604,6.475389570209317,0.1282812625317714
9.6432,6.468329701895692,0.1279789300968369
9.647788000000002,6.456283922487244,0.127766530155676
9.65238,6.445426088403364,0.127571385741622
9.656972,6.441519360472376,0.1273015979864206
9.661564000000002,6.436879524256513,0.1270809102278476
9.666152,6.435593056402951,0.1268331865852542
9.670744,6.435083838282891,0.1265829110133736
9.67532,6.440504107153927,0.1262799379372548
9.679924,6.446990136635386,0.1260043459279017
9.684516000000002,6.456462980336708,0.1257241428974438
9.689108,6.463281662143715,0.1255220232162929
9.6937,6.472065539008792,0.1253358882760811
9.698296,6.477295819531905,0.1252370607016202
9.702884,6.48052700318006,0.1252187507553233
9.70748,6.494795769628279,0.1250619393726117
9.712076,6.513439523600593,0.1248626767308155
9.716672,6.534659396201704,0.124640047764243
9.721252,6.563441298526434,0.1243168205037703
9.725836,6.598763611412992,0.1239092442087094
9.730424,6.638705281251935,0.1234475804159891
9.735008,6.680445819986173,0.1229694555565339
9.739592000000002,6.722064174006265,0.1224958652520134
9.744172,6.765070701330589,0.1219868718653437
9.748764,6.803702241130818,0.1215240602543852
9.753352,6.841556531197544,0.1210675106744475
9.75794,6.874669279597742,0.1206784103538564
9.762536,6.90688259355029,0.1203007113129723
9.767124,6.938685211911776,0.1199084806242758
9.771712,6.968566776663819,0.1195438258017397
9.776304,6.999958699434237,0.1191363479327702
9.7809,7.032616610794741,0.118699066674338
9.785496000000002,7.066007630440118,0.1182239652688298
9.790076,7.09923232392272,0.1177143201421763
9.79468,7.132168506528404,0.1171760102825958
9.799268,7.156765409676965,0.1167404088603691
9.803864,7.178008944463227,0.1163291032698149
9.808444,7.200762837267866,0.11587726665956
9.813044,7.215299635329528,0.1155143409881551
9.817628,7.227504684190684,0.1151603630362005
9.822216,7.235945669098474,0.1148094181052826
9.826808,7.240133851196317,0.1144859914601696
9.831404,7.247997814350267,0.1140836855177979
9.836000000000002,7.250465170818329,0.1137300962942853
9.840600000000002,7.252399646981183,0.1133628788046537
9.845188,7.251880189229383,0.1130060997722531
9.849784,7.250950035886517,0.1126285566635988
9.854364,7.249609186952586,0.1122311977420251
9.858952000000002,7.245692219389857,0.1118519059586429
9.86354,7.24340779455965,0.1114237178929049
9.868132,7.240590489424234,0.1109847699855164
9.872724000000002,7.236218684821812,0.1105479658660938
9.877304,7.230825261057596,0.1101273561908932
9.881888,7.229029575083973,0.1096777787256983
9.886476000000002,7.229277127433938,0.1092001455448965
9.891056,7.230912853088131,0.10868673384485
9.895652000000002,7.23434744763762,0.1081591163912397
9.90024,7.235860988577667,0.1076552159007274
9.90484,7.241216636736597,0.1071081480018201
9.909436,7.243507427410146,0.1066031095779976
9.914024,7.24506510979882,0.1061378652541951
9.91862,7.250997779711588,0.1056434632936958
9.923204000000002,7.256319526053629,0.1051861777176288
9.927796,7.270879986300439,0.1046488991092634
9.932388,7.288793814909551,0.1040987200430783
9.936984,7.313125869366343,0.1034989252061085
9.941564,7.341832911347227,0.1028753507572526
9.946164,7.372749517814473,0.102261124749458
9.95076,7.406120058196372,0.1016434444505279
9.955356000000002,7.436059186950454,0.1010849748597947
9.959944,7.46334415381022,0.1005866910037062
9.964536,7.493982489032284,0.1000792959954914
9.969128,7.524909335131271,0.0996013592790805
9.973724,7.556491246249613,0.0991377326267568
9.978312,7.590527091282606,0.0986745559249324
9.982904,7.630370238592552,0.0982009365532727
9.987492,7.670868450921853,0.0977380466522786
9.992076,7.714597846899312,0.0972759123367866
9.996664,7.758737938467836,0.0968369215184937
10.001260000000002,7.805576333379302,0.0963816718326084
10.005852,7.854091412471919,0.0959216259667419
10.010432000000002,7.905426979621626,0.0954471194213765
10.015024,7.955496558181247,0.0949995263693235
10.019612000000002,8.000458040931901,0.094617073797406
10.024204,8.052326488386818,0.0941801688380852
10.0288,8.096510721403972,0.0938113087862711
10.033388000000002,8.139673335259328,0.093458587579841
10.037996,8.184879187438273,0.093089742697017
10.042584000000002,8.231228843493158,0.0927101357736699
10.047192,8.28689525671833,0.0922371428581051
10.05178,8.349468634647764,0.0917082987588964
10.056368,8.41036532839605,0.0911892542609199
10.060972,8.469296827086268,0.0906531245302072
10.065556,8.52577439186183,0.0901266125250992
10.07016,8.578898588275095,0.0896128145163901
10.074740000000002,8.627114916859052,0.0891103768950819
10.079336,8.677985407337326,0.0885694424859167
10.083924,8.725746898881592,0.0880290775525598
10.088524,8.769622141758349,0.0874834103710971
10.093108,8.816806611548776,0.0869058858164019
10.097704,8.867789047109456,0.0862761009427391
10.102296,8.91361924541254,0.0856655146376315
10.106892000000002,8.960671290857084,0.0850069434913952
10.11148,9.009478063748292,0.0843132515902469
10.116072,9.043282961906408,0.0837091985683269
10.12066,9.083461944463576,0.0830443661057034
10.125252,9.120654112800882,0.0823708312389346
10.129832,9.153960032470676,0.0816947739314436
10.134416000000002,9.184934202939962,0.0810190369246746
10.138996,9.207080355095544,0.08041007325517
10.143588,9.218677663307645,0.0798314538988771
10.148184,9.229986460642824,0.0792330777391785
10.152772,9.245137365196886,0.078615480477679
10.157368000000002,9.256812716674505,0.0780051339568087
10.161956,9.269754056742205,0.0773791785995587
10.16654,9.28101871262876,0.076754450388746
10.171128,9.2844769693634,0.0761787241739978
10.175716,9.287935226098044,0.0756039478709625
10.180312,9.298300447536946,0.074987716352861
10.1849,9.303801942595172,0.0744026527007184
10.189488,9.303295907396784,0.0738596576131176
10.194084,9.30393367607434,0.0733047998192036
10.198676,9.304327075323595,0.0727618368922802
10.20328,9.300878367353976,0.0722386996174938
10.207868,9.300372332155588,0.0716936199957677
10.212464,9.295779820310027,0.0711788383766687
10.217044,9.292619623217323,0.0706734956517731
10.22164,9.28921505669633,0.0701774906596843
10.226228,9.281724013528162,0.0697079037245381
10.230824000000002,9.273822274768929,0.0692191953952902
10.235412,9.272216577143231,0.0687138825809636
10.240008,9.269222706213302,0.0682300869072471
10.244600000000002,9.260587859169195,0.0677682870523569
10.249192,9.255672934629825,0.0672933207791414
10.253792,9.247937522033364,0.0668287564149177
10.258376000000002,9.239835555294466,0.0663770164507394
10.262964,9.23761893409804,0.0658946942894664
10.267548,9.233481259292171,0.0654202095397462
10.272136,9.223991119249046,0.0649893299655593
10.276736,9.214378794491774,0.0645624616738073
10.281324,9.205543719468006,0.0641375846225546
10.28592,9.196219905587652,0.0637318285035655
10.290516,9.184486299241271,0.0633528981751833
10.295104000000002,9.174429377076049,0.0629749291860232
10.299696,9.171812299920294,0.0625758942122421
10.304284,9.173037329983424,0.0621630034708634
10.308872,9.175039609780056,0.0617542649932789
10.313464,9.176186596577669,0.0613779244905908
10.318052000000002,9.183873993937109,0.0609830701776196
10.32266,9.197368693573496,0.060599323852643
10.327244,9.209475219905658,0.060236790604878
10.331836,9.221337376809526,0.0598835019287855
10.33642,9.23667508678984,0.0595304279095282
10.341012,9.251768427341863,0.0591885827202207
10.345608000000002,9.27099238598969,0.0588566412081225
10.350196,9.295857320751695,0.0585110107041861
10.354796,9.316391409438232,0.0581983380508285
10.359376,9.340645420629508,0.0578784878816231
10.363976,9.36861935432552,0.0575521108190991
10.36856,9.400435395240416,0.0572151310303941
10.373160000000002,9.436215728088342,0.0568635732544536
10.377744,9.47211824565041,0.0565089988251784
10.38234,9.509164567088416,0.0561454988746937
10.386936000000002,9.545067084650489,0.0557927961496628
10.391532000000002,9.57892636388897,0.0554548255285243
10.396128,9.606900297584982,0.0551404942285162
10.400728,9.632175927938052,0.0548288492625078
10.405316,9.662926208242526,0.05448029726559
10.409912000000002,9.69175543493756,0.0541404036839085
10.4145,9.715188054946704,0.0538055863236179
10.419084000000002,9.739886663545937,0.0534584136359911
10.423672,9.769448998525842,0.0530976964443443
10.428264000000002,9.79954421381096,0.0527515166747871
10.432852,9.82759619077249,0.0524160179997515
10.43744,9.848208322724544,0.0520927327718665
10.442032,9.863179478562422,0.0517821673224405
10.44662,9.88121549188568,0.0514577009420289
10.451204,9.893366159666469,0.0511528081524189
10.4558,9.89615592882834,0.050863565238864
10.460388000000002,9.889462614657152,0.0505939798009367
10.46498,9.874718531905762,0.0503566520350778
10.469568,9.856010157221345,0.0501324131696171
10.474152,9.83345967531804,0.0499167105044624
10.478748,9.809110324519445,0.0497003536756456
10.483336,9.776954574568933,0.0495066294016971
10.487940000000002,9.743655020742484,0.0493204898358271
10.49252,9.712398705239622,0.0491237578668036
10.49712,9.671292752261262,0.0489582330010428
10.501696,9.622380400130996,0.0488145810743348
10.5063,9.56938157135355,0.0486879040318883
10.510884,9.5075547242624,0.0485875364829164
10.515476,9.4334243057811,0.0485090891453804
10.520056,9.349400108375676,0.0484302560531749
10.524648,9.261533803751366,0.0483596752069155
10.52924,9.171502076089324,0.048302962878777
10.533832,9.079427110103698,0.0482536308266323
10.726628000000002,5.10353981809428,0.0482311567618874
