Time,Force,Position
13.267556,4.669929645238208,0.1578903265396941
13.272148,4.79546094244804,0.1577407515537699
13.276736,4.914808143606745,0.15754079515247
13.281327999999998,5.0262945645331705,0.1573351538650439
13.285916,5.131474704694324,0.1570761110043697
13.290504,5.234723551614297,0.1567074783505826
13.295092,5.334408562560568,0.1562959400948581
13.299675999999998,5.442344570066704,0.1555835985101361
13.304272,5.541730830504317,0.1549647687881301
13.308848,5.636042896949851,0.1543913483900425
13.313444,5.730833462620228,0.1536091070977539
13.318032,5.812899521677652,0.1529238787955171
13.32262,5.88481719275092,0.152291248617241
13.327216,5.948429486183954,0.1517247584440726
13.331803999999998,6.005046532015469,0.1512326313071697
13.336392,6.061863805826647,0.1506848924357888
13.340984,6.110131332569304,0.1502125424735129
13.345584,6.159576565004787,0.1495990505013988
13.350176,6.2002276809434544,0.1490819059073346
13.354768,6.23478298372825,0.1486179106280616
13.35936,6.266062961416264,0.1481553461333067
13.363948,6.294967048455142,0.1476744420073409
13.368548,6.324359874350604,0.1471712733708248
13.373136,6.353874884960211,0.1466716081866031
13.377728,6.383223569407042,0.1461425162156823
13.382324,6.406154028006193,0.1457251340809681
13.386924,6.431127724928929,0.1452721182609569
13.391507999999998,6.453036564366288,0.1448945243329653
13.3961,6.4807527060805965,0.1444592041503497
13.4007,6.510966923158188,0.1440475007605436
13.405296,6.542457368457601,0.1437413326300429
13.409896,6.586217483330278,0.1433303208727865
13.414492,6.6366062916620345,0.1429021874144462
13.41908,6.694112532309456,0.1424273867071745
13.423676,6.758203324967332,0.1419001234329024
13.428264,6.817841086835597,0.141479960071122
13.432852,6.887905507933201,0.1409438566339885
13.437428,6.958258439907723,0.1404464084364463
13.442024,7.0310653057969,0.1399209104033014
13.446616,7.107469909476666,0.139357122367478
13.451208,7.183263589585703,0.1388442263994634
13.455808,7.26020107357068,0.1383217137595644
13.460396,7.32982089726033,0.137901255950766
13.464987999999998,7.392489614797087,0.1375586310871791
13.469572,7.453603832866841,0.1372307280025813
13.474163999999998,7.517250028116763,0.136839807337977
13.478756,7.576110540251527,0.1364865762321778
13.483344,7.634271845918306,0.1361018220112887
13.487932,7.688014022612362,0.1357284119106018
13.492528,7.738236504781345,0.1353531104233046
13.497115999999998,7.790169572948367,0.1348886214622754
13.501712,7.830243667133194,0.1345318735366625
13.5063,7.868308424811323,0.1341329087441022
13.510896,7.901543357925665,0.1337280593011619
13.515484,7.927905228152634,0.1333496319511184
13.520084,7.957898737987083,0.1328536942306964
13.524664,7.978443066305361,0.1324070170532936
13.529264,7.994812635079207,0.1319537418178907
13.53386,8.015835462622329,0.13137317574009
13.538456,8.027697619526197,0.1308557087210167
13.543048,8.033952702132778,0.1303281837164224
13.547643999999998,8.034400482462406,0.1298412518614044
13.552232,8.036969544381138,0.1292788594332772
13.556828,8.039738834279532,0.128664064279243
13.561416,8.038866244938708,0.1280494061573337
13.566012,8.033985222216227,0.1274552695515742
13.570592,8.02869350390268,0.1268439506839385
13.57518,8.01686137502731,0.1263080976215434
13.579768,8.006417419456167,0.1257368254738845
13.58436,7.998138886922757,0.1251285200853932
13.588956,7.983442128541668,0.1245885195295028
13.593544,7.975041411294113,0.1239859154634741
13.598144,7.964353086294681,0.1234265424799934
13.602723999999998,7.95305383772452,0.1228982724887432
13.607304,7.944086338354864,0.122363071626571
13.6119,7.931320873214955,0.1219113382755776
13.616488,7.921175668152471,0.1214760824502304
13.621084,7.914672342329207,0.1210440093090876
13.625671999999998,7.903760127164962,0.1207270151474762
13.63026,7.901475702334757,0.1203467482768783
13.634864,7.902344417887188,0.1199943997672842
13.639456,7.904401078764186,0.1196569231231062
13.644047999999998,7.909977434166259,0.1193312105990432
13.648628,7.921893972150495,0.1189872259423601
13.653228,7.941050127164543,0.1186186884445954
13.657816,7.9640925308461,0.1182438247611901
13.662408,7.993719486538112,0.1178439089563415
13.666996,8.03017536366887,0.1174021469406427
13.671596,8.07105036977235,0.1169710912264231
13.676192,8.11413494036219,0.1165484560277681
13.680784,8.161760824638897,0.1161251130698098
13.685364,8.212984446706198,0.1156822951820382
13.68996,8.269360306031093,0.1152139415707339
13.694548,8.333708890670673,0.1146964120445579
13.699144,8.398590355615463,0.1141943612320738
13.703732,8.466292308617344,0.1136671390291851
13.708327999999998,8.536814749676312,0.113119444058879
13.712916,8.606804310430071,0.1125684370004555
13.717496,8.676383175592765,0.1120021332871452
13.722092,8.746084225469604,0.1114417576174994
13.726684,8.819993936707764,0.1108337894743482
13.731279999999998,8.89786793987895,0.1101891574748167
13.735868,8.973532378563778,0.109548555833252
13.740468,9.046087818314597,0.108920247277292
13.745048,9.11643369357905,0.1083006754494983
13.749628,9.184570004357148,0.107682771382892
13.754236,9.246899012858291,0.1070952782083447
13.758828,9.307018456873074,0.1065105191971872
13.763428,9.362474402486844,0.105935720902401
13.76802,9.414821349166605,0.1053683829229243
13.772624,9.46646908937838,0.1047700781052292
13.77722,9.510144104275472,0.1042214813189415
13.781807999999998,9.546990197733818,0.1037040202661139
13.786412,9.57635230473406,0.1032155207412794
13.791,9.604526466409736,0.1027142022248594
13.795596,9.634210986103788,0.102186790583141
13.800183999999998,9.659109822682682,0.1016676037866927
13.804783999999998,9.682576344508718,0.1011463582455442
13.809376,9.710251527696071,0.1005841816466849
13.813968,9.732652288911684,0.1000493460189963
13.818552,9.75026736701214,0.0995229700384029
13.823148,9.760809154245557,0.0990309088304303
13.82774,9.77081806117376,0.0985302567142547
13.832335999999998,9.77992753365432,0.098035687838109
13.836916,9.784662018610785,0.0975606962526321
13.841511999999998,9.791439741890835,0.0970685891241689
13.846111999999998,9.801937387675626,0.096556783873735
13.8507,9.80973673011747,0.0960586454067335
13.855292,9.819334941454612,0.0955537794266973
13.85988,9.831631456134694,0.095038657615965
13.864468,9.844460851119988,0.0945365828231887
13.869063999999998,9.86101016861002,0.0940130928823921
13.873644,9.881401593318934,0.0934637803974619
13.878228,9.9016708333137,0.0929199062233913
13.882815999999998,9.921817888594328,0.0923822794926177
13.887391999999998,9.93914445581786,0.0918648638859992
13.891976,9.958924956956048,0.0913459694771086
13.896572,9.975640600608852,0.0908528680101206
13.901156,9.984794214538038,0.0904064745877734
13.905744,9.995746697362517,0.0899522931138923
13.910336,10.008009310225711,0.0895106515544436
13.914924,10.026035083917227,0.0890326818934738
13.919528,10.044060857608748,0.0885564312927394
13.924119999999998,10.06143156628091,0.0880754044091733
13.928724,10.080723328562511,0.0875829886292143
13.9333,10.098094037234675,0.0871050344048392
13.9379,10.106103847287924,0.0866766161178202
13.942488,10.117056330112408,0.086228918704333
13.947088,10.125310509593945,0.0857930127957033
13.951667999999998,10.12726864794195,0.085381331396175
13.956268,10.125751233213508,0.0849789453950499
13.96086,10.123456568751564,0.0845760612931928
13.965452,10.119240850680177,0.0841846635947306
13.970044,10.118745055113529,0.0837769648134365
13.974636,10.117594194527522,0.0833633931016998
13.979228,10.113745030598574,0.082958510701733
13.98382,10.10834136720262,0.0825509710328618
13.988408,10.107801430187347,0.0821145062192716
13.993,10.109060362067364,0.0816700538803696
13.997588,10.109786413642173,0.0812151741152706
14.00218,10.107036912140536,0.0807672816116572
14.006768,10.10122255315352,0.0803425636941573
14.011347999999998,10.096429813328294,0.0799111748671779
14.01594,10.090737639055424,0.0794818456916003
14.020528,10.084023845620756,0.0790597126725555
14.02512,10.076288433024295,0.0786446431058954
14.029716,10.075215615703808,0.0781954339696601
14.034299999999998,10.072343929488024,0.0777521403509265
14.038899999999998,10.069716612700528,0.0772995583524762
14.043488,10.07260808731307,0.0768266709328645
14.048096,10.077298430820903,0.0763485266827152
14.052688,10.081744404900448,0.0758801420474631
14.057275999999998,10.08619037897999,0.0754116652475258
14.061872,10.082829953907623,0.0749848809980846
14.066468,10.081268397730552,0.0745537471257545
14.071072,10.08534781766766,0.0741001567086916
14.07566,10.092125540947707,0.0736409628847732
14.080264,10.09800382978011,0.0731862812120579
14.084844,10.1059253569361,0.0727183410509834
14.089444,10.116178633292597,0.0722585633500242
14.094032,10.130929081887333,0.0717887607381786
14.098631999999998,10.146578964929716,0.0713173804848327
14.10322,10.161740109115517,0.0708656102884815
14.10782,10.183197294434848,0.0704026322668189
14.112412,10.205431729487689,0.069942906925295
14.117007999999998,10.23060883731176,0.0694707063721142
14.121596,10.254764325974042,0.0690069214185129
14.126188,10.283294802160414,0.06854139075466
14.130788,10.312358158652,0.0680883868551652
14.13538,10.340399895981792,0.0676445911407229
14.13996,10.367297829435644,0.0672119119516904
14.144544,10.395217382051287,0.0667751913303187
14.149131999999998,10.42775629161932,0.06632926143979
14.153728,10.47038920809114,0.0658316526138699
14.158316,10.513677189582316,0.0653446516137987
14.162907999999998,10.553778128873963,0.064882525924175
14.167504,10.59093639539438,0.0644356166092611
14.172092,10.628094661914798,0.0639919267664461
14.176683999999998,10.668850666225804,0.0635468945769203
14.181272,10.708951605517456,0.0630983184374889
14.185864,10.74725367591381,0.0626551477909018
14.190448,10.789520038243191,0.0621987582212811
14.195035999999998,10.830231901105572,0.0617383304316846
14.199624,10.865180603139628,0.0613003755884288
14.204216,10.902172543497269,0.060854779849011
14.208804,10.93724343024547,0.0604181525902183
14.213408,10.973868816460676,0.0599896154994307
14.218,11.002032738504612,0.0595829335180817
14.222592,11.028275606939106,0.0591825009707927
14.22718,11.054640660087747,0.0587803550005314
14.23178,11.08431494015006,0.0583576750862476
14.23636,11.112068166602937,0.0579420609469199
14.240948,11.133158797779831,0.0575457649634097
14.245548,11.146198660376529,0.0571853247068763
14.250148,11.15756183879208,0.0568238824113207
14.254728,11.170968255531212,0.0564544768954306
14.259324,11.186417910593937,0.0560768219448363
14.263912,11.200601577066571,0.0557125695730175
14.268508,11.20992151715853,0.0553646960321989
14.273104,11.213600481136313,0.0550276738868248
14.2777,11.21740162982824,0.0546873657390834
14.28228,11.216339052139492,0.0543625101861637
14.286872,11.215032105022452,0.0540450123078267
14.29146,11.211926289010115,0.0537276477857823
14.296052,11.204733996350608,0.0534275692428767
14.300648,11.193577411758069,0.0531398083604832
14.305236,11.174980982156058,0.0528621865422623
14.309828,11.158427790877631,0.052574083093426
14.314419999999998,11.141874599599207,0.0522849068586207
14.319012,11.119313878064167,0.0520162008058297
14.3236,11.08768076878713,0.051780184988991
