Time,Force,Position
12.499024,3.118264620120704,0.1806526061943925
12.503604,3.3183984691933333,0.1774820853508602
12.508192,3.5135361675394017,0.1745894569030938
12.512772000000002,3.695993500721145,0.1727407593001288
12.517356,3.8758644756423513,0.1708100684221169
12.52194,4.050206419531785,0.1690857236623497
12.526532,4.214033421294626,0.167644815006434
12.531112,4.371309772863902,0.1663750647835886
12.535696000000002,4.523834343134909,0.1651435644838894
12.540276,4.670463328231708,0.164048604807772
12.544856,4.816793562819851,0.1627810132133803
12.54944,4.950154921366746,0.1618039828872687
12.554016,5.071036142728978,0.1609977770622218
12.558608,5.185855452754228,0.1602075442097061
12.563196,5.297233111519921,0.1594178426069993
12.567784,5.40341439157939,0.1586957014029299
12.572376000000002,5.50763047658079,0.1580072741806244
12.576964,5.612824039295355,0.1572717280726144
12.581544,5.713153875629243,0.1566919850595975
12.586148,5.816382243285738,0.1560026412040069
12.590748,5.914614460215674,0.1552979933319381
12.59534,6.003519680343582,0.1547014739076421
12.59992,6.093236052021882,0.1540112609270602
12.604516,6.181187456621776,0.153246859618202
12.609096,6.267540220306036,0.1524789859511863
12.613692,6.346653366960487,0.1517960007582654
12.618288,6.431197022117713,0.1509332023257758
12.622880000000002,6.513364786625805,0.1500683984220291
12.627464,6.590336172427674,0.1492431221848115
12.632056,6.6632549833992565,0.148434510165433
12.636644,6.72689093901744,0.1477595194505717
12.641228000000002,6.787129384824696,0.147080469207041
12.64582,6.84769024332576,0.1463413631084685
12.650412,6.901133669511158,0.1456745579168027
12.655,6.949791412581399,0.1450604278874381
12.659584,6.999304448650658,0.1444003551172845
12.664172,7.045542159623135,0.1437390344455306
12.668752,7.0848287644427215,0.1431695497591179
12.67334,7.125870096708976,0.1425428808866606
12.677916,7.162169887308699,0.1419982837125383
12.682508,7.198758188785342,0.1414845387125284
12.687096,7.236900989728988,0.1409618454619078
12.691676,7.273000552349048,0.1404885718358855
12.696280000000002,7.307956311093169,0.1400429281553257
12.700856000000002,7.340335951208491,0.1396324856385656
12.705444,7.378356567437991,0.1391425401199847
12.710036,7.412657261162757,0.1387170595923265
12.714616,7.446180705154018,0.138302848826744
12.71922,7.480725768307074,0.1378733495659945
12.723808000000002,7.513349777850688,0.1374766172843277
12.728404,7.550837513774978,0.1370112744269492
12.732992,7.5930667913658,0.1364852061882741
12.737596,7.636317688118414,0.1359516930486774
12.74218,7.678957661300299,0.135451941579205
12.746772,7.722619253643979,0.1349404924656133
12.751352,7.764481977092362,0.1344559916156561
12.755936000000002,7.804179277503013,0.1340149799059606
12.760516,7.847840869846693,0.1335167998290228
12.7651,7.887538170257344,0.1330825960810253
12.769688,7.933609555067048,0.1325454029974871
12.774276,7.982090732342775,0.1319648546950155
12.778856,8.032082267636879,0.1313474547827265
12.783444,8.077043750387531,0.1307682465948218
12.788036000000002,8.123637775870709,0.1301437883973816
12.792616,8.165079564096288,0.1295616072546491
12.797208,8.202757288368502,0.128994637215999
12.801796,8.234505525649618,0.1284729612975171
12.806384,8.262123144834934,0.1279797727248927
12.81098,8.287653384248033,0.1274838368398598
12.815568,8.30827575583183,0.1270139823488855
12.820156,8.31924871791979,0.1266303692095517
12.824748,8.320938824654352,0.1263130491389189
12.829324,8.316577259683667,0.1260454066020973
12.833928,8.314581345730382,0.1256931139578979
12.838504,8.309065737252022,0.125334145595746
12.843104,8.299908249534443,0.124973724329826
12.847684,8.289685001206442,0.1245918335041152
12.852284,8.278273807553873,0.124196515258187
12.856868,8.266818472452677,0.1237652353612839
12.86146,8.24804547705615,0.1234074158226661
12.866052,8.225019678849678,0.1230775820018886
12.870644,8.198518327566758,0.1227726827439063
12.875232,8.174837464340929,0.1224361628912217
12.879832,8.148991178077369,0.1221332339221221
12.884424,8.127764248766193,0.1217828925872244
12.889024,8.106292950026724,0.1214437947685974
12.893612,8.088952269383055,0.1210825379464703
12.898196,8.072266653758748,0.1207245695544518
12.902784,8.05611391843965,0.1203765022205646
12.907376,8.04781172372109,0.1199693628849501
12.911968000000002,8.050058372946012,0.1194806569602483
12.91656,8.061710062238479,0.1189310429835277
12.921152,8.07569350073145,0.1183752183001395
12.92574,8.08755565763532,0.1178908878642944
12.930336,8.101016455454822,0.1174392882296434
12.934924,8.11991800140884,0.1169790020125544
12.939512,8.143605230478014,0.116506760513238
12.944120000000002,8.16451611293873,0.116099715897964
12.948708,8.187392190457512,0.115708717766621
12.953304,8.210967474444281,0.1153565412921452
12.957892,8.237285203222623,0.1150195612267336
12.962488,8.26646756150668,0.1146904473273681
12.967084,8.298758918724745,0.1143598200746986
12.971672000000002,8.336569067342845,0.1139840622874112
12.976276,8.374912096266154,0.1136228597588708
12.980872000000002,8.414687439942323,0.1132684146875364
12.985464,8.456383837227934,0.112897960845734
12.990044,8.50180015701828,0.1124972052669658
12.99464,8.548115911256275,0.1120918638302719
12.99922,8.592510611884828,0.1117117344742484
13.003816,8.632408140275142,0.1113712798150207
13.008408,8.67050679977016,0.1110502250875762
13.013000000000002,8.712569751198208,0.110690527344673
13.017592,8.758841363987575,0.1102809981450251
13.022184,8.809443822852408,0.1098188366422038
13.026788,8.857958901945025,0.1093533447917863
13.031384,8.903120612675343,0.1089057313807437
13.035976000000002,8.951713735033476,0.1084090963995526
13.040568,8.99809729290525,0.1079107537362996
13.045156,9.044558894042542,0.107373595840527
13.04974,9.08893311540762,0.1068305212523804
13.054324,9.13404044505757,0.1062594639409735
13.058916,9.17910363325889,0.1056648017618512
13.0635,9.221590702831415,0.1050901528836675
13.068080000000002,9.266365380155818,0.1044900751136648
13.072672,9.312406046070304,0.1038746572468248
13.077256000000002,9.354438278603132,0.1032688532633253
13.081836,9.392750588631229,0.102692862033644
13.086432000000002,9.431307268087613,0.1021097444930558
13.09102,9.47071924054302,0.1014961501873663
13.095608,9.505756225474324,0.100902410633746
13.1002,9.533475550110309,0.1003546081451907
13.104788,9.555553898632112,0.0998505253497929
13.109392,9.574034509363322,0.0993704334623843
13.113968,9.585075275085062,0.0989425936121623
13.118568,9.594072802483216,0.0985356559217117
13.123148,9.604091949043156,0.0981199235699548
13.127748,9.612067857279516,0.0977256251519958
13.13234,9.621720449697024,0.0973274982081743
13.136936,9.634193530171618,0.0969115733538736
13.141524,9.64564499148442,0.0965057247172418
13.14612,9.654031595311846,0.0961299996747288
13.150712,9.658576091920384,0.0957842943700024
13.155296,9.657601797128892,0.0954704805336219
13.159888,9.65098652622322,0.095194199618156
13.16448,9.637953029469866,0.0949536577027006
13.169060000000002,9.627129097202875,0.0947192752366567
13.173652,9.61781552295426,0.0944554090003448
13.178232,9.608624133419791,0.0941869003632312
13.182816,9.594202463362208,0.0939688041740081
13.187408,9.58632120386645,0.0937108505430485
13.191996,9.586368528236752,0.0933893924907478
13.196592,9.590624513968374,0.093027187951399
13.201168,9.59410324996649,0.0926644566174039
13.205748,9.599503039574053,0.092287626184501
13.21036,9.6069460675052,0.0918934583285885
13.214948,9.613734030416987,0.0914948207837939
13.219548,9.62076636275707,0.0910871211246543
13.224132,9.632251725886764,0.0906337249639254
13.22872,9.641038785673512,0.0901933677320816
13.233316,9.65211345321214,0.0897272818017173
13.237916000000002,9.665842282645086,0.0892215236925889
13.242516000000002,9.67728350432615,0.0887410824210981
13.247096,9.695509505997332,0.0882164491597165
13.251688,9.720642472372775,0.0876460781331304
13.256276,9.7514164148624,0.0870449285398273
13.260872,9.780758042599166,0.0864382005202607
13.265456,9.81165416980294,0.0858378814506954
13.270056,9.842672481720854,0.085236606144925
13.274640000000002,9.877777270285945,0.0846033123298454
13.279232,9.91042812493638,0.0839756735322876
13.283824,9.938093068491996,0.0833860806090958
13.28842,9.967556880942908,0.0827966710755845
13.293008,9.998819562289114,0.0822030808426078
13.2976,10.029182809187672,0.0816124425092234
13.302188,10.05954605608623,0.081025169352662
13.30678,10.09158598716594,0.0804400272328219
13.311372,10.124525352693295,0.0798547194500795
13.31596,10.14839233047866,0.0793349442123924
13.320552,10.17700084993055,0.0787956988943535
13.325136,10.206264434401795,0.0782666471886245
13.329724,10.235938714464108,0.0777570818590166
13.3343,10.270843275049536,0.0772085200306848
13.338892,10.307546704530257,0.0766623910196666
13.34348,10.336443734859063,0.0761617635215485
13.348056,10.366362384349667,0.0756588411735061
13.352652,10.40408743299218,0.0751212754790587
13.357244,10.439891428025252,0.0745956757310636
13.361832,10.477616476667768,0.0740661025558547
13.366436,10.516118775043784,0.0735425237561591
13.371036,10.557075007334454,0.0730251396013628
13.37564,10.603139335434092,0.0724791644132086
13.380232,10.646138806048349,0.0719572652925592
13.384836,10.689138276662604,0.0714386667580921
13.389416,10.740721396162272,0.070891350487564
13.394012,10.790505646766643,0.0703504244389016
13.398592,10.838613213189868,0.0698129034755823
13.403196,10.884144660984292,0.0692788511318423
13.407788,10.936583073482984,0.0687133455309222
13.412384,10.984402129029286,0.0681656209536421
13.416968,11.030666685108589,0.0676170495464574
13.42156,11.075376741720882,0.0670674734260024
13.426168,11.120208983047329,0.0665193014125876
13.43076,11.154780891307205,0.0660018996303681
13.435356,11.191518222604817,0.0654692230790231
13.439948,11.223880566378336,0.0649428005358939
13.444536,11.246393272676356,0.0644622480366878
13.449128000000002,11.2713157714404,0.0639618168665584
13.45372,11.289697859642615,0.0634796728831277
13.458308,11.306525448377828,0.0629944169300291
13.462892,11.318200799855449,0.0625099491852014
13.467492,11.323335740771238,0.0620423521197467
13.472072,11.320497956372344,0.0615790540458142
13.47666,11.315572792201236,0.0610997192338005
13.481252,11.301286729411212,0.0606444065949519
13.485832000000002,11.28851102463956,0.0601683723708073
13.490416,11.27393645097262,0.0596935935872852
13.495012,11.262426734791056,0.0592041578687996
13.499588,11.243599358314162,0.058724921933392
13.504176,11.22501635126556,0.0582370617906147
13.508772,11.203490671445726,0.0577580013076236
13.513364,11.176979080531066,0.0572960992706266
13.51796,11.142783275178644,0.0568535088368756
13.522536,11.110386338721517,0.0564055536978165
13.527136,11.0751689142073,0.0559610814905091
13.531724,11.039584935550646,0.0555261087457973
13.536328,11.005389130198228,0.0550724230111742
13.540912,10.966862478770338,0.0546435739856684
13.545512,10.929235261790096,0.0542109443508541
13.550104,10.889442621772124,0.0537894458449916
13.554696,10.84826180844992,0.0533808560617306
13.559288,10.809534929042368,0.0529761137374033
13.563884000000002,10.77775915578771,0.0525724008356076
13.568476,10.743617731515654,0.0522144309593543
13.573068,10.709231937815307,0.0518619932413073
