Time,Force,Position
12.864384,6.207385287248355,0.1497410709735676
12.868964,6.3255035845555385,0.1490541780770995
12.87356,6.433962232735147,0.1483864248929707
12.878136,6.531739612625389,0.1477729786454832
12.882732,6.613727628417296,0.1473095552854164
12.887323999999998,6.685200702082608,0.1469142028212151
12.891912,6.746202975069957,0.1466206944966222
12.896499999999998,6.811692180663804,0.1461211716534519
12.901075999999998,6.871285801083444,0.145606820097827
12.905672,6.92853743267084,0.1449757235046958
12.910256,6.977195175741081,0.1443640571393324
12.914844,7.018691345047028,0.1437724840567315
12.919436,7.057400928112775,0.1431401460849454
12.924023999999998,7.088093644415208,0.1425727636807469
12.928612,7.115266666192569,0.1420117640540216
12.933216,7.136466059530203,0.1414789831896107
12.937803999999998,7.153735062751698,0.1409382144674094
12.942399999999996,7.168994729466495,0.140349190736512
12.946975999999998,7.184698993589245,0.1396929961909734
12.951575999999998,7.195373205168547,0.13909215004974
12.956155999999998,7.197996648167647,0.1386362653509248
12.960755999999998,7.19964261345358,0.1382397785830604
12.965348,7.200311101026349,0.1379005162839813
12.969944,7.197958872562364,0.1376565577128889
12.974527999999998,7.201536131089478,0.1373538432640696
12.979124,7.205812596084577,0.1370941086477658
12.983712,7.216262917499066,0.1367619255149515
12.988303999999998,7.219439720066852,0.1365704778364817
12.992896,7.221394675493181,0.1364527453698574
12.997488,7.220983979902119,0.136434639543977
13.002076,7.22458171769271,0.1363899557061336
13.006659999999998,7.230389019969663,0.1363416053897715
13.011248,7.237262082857036,0.1363153425711157
13.015844,7.251330621325593,0.136202087548483
13.020435999999998,7.269774147318244,0.1360449471358909
13.025024,7.289283433921314,0.1359096930976696
13.02962,7.307160177791864,0.1358300261711761
13.034204,7.328390290024714,0.1357249221653422
13.0388,7.351174901724569,0.1356161944774908
13.043387999999998,7.373470774567841,0.1355356526796302
13.047976,7.400752558505935,0.1353751852515041
13.052583999999998,7.4299553960534706,0.1351887736866708
13.057172,7.466720263324626,0.1349035206401636
13.06178,7.510924975605255,0.1345244976782935
13.066359999999998,7.555007503171738,0.1341569078003229
13.070944,7.603543061527834,0.1337053242898058
13.075539999999998,7.651423554864571,0.1332590004558926
13.080132,7.702901785991902,0.1327714378960349
13.084724,7.758955232622986,0.1321958185809485
13.089311999999998,7.819461710043683,0.1315392959278137
13.093915999999998,7.879190937730879,0.1308937987407999
13.098491999999998,7.937365665951071,0.1302598814633156
13.103084,7.997172936903784,0.1295870735457362
13.10768,8.051705785884755,0.1289696519353386
13.11228,8.099942593732191,0.1284226274299361
13.116863999999998,8.150178498454586,0.1278150091373101
13.121448,8.20102532674771,0.1271808445103519
13.126036,8.249051666983744,0.1265862045165413
13.130632,8.29564569246692,0.125998367199403
13.13522,8.344771695130264,0.1253603330821124
13.139815999999998,8.394019882507758,0.1247222625037592
13.144404,8.440569766542303,0.1241116864408087
13.148987999999996,8.483644097500406,0.1235391391163703
13.153572,8.524631048686292,0.1229697001339157
13.158163999999998,8.564962934852822,0.1223999403982771
13.162756,8.603495952124057,0.1218539638930865
13.167343999999998,8.64125171966179,0.121316133852644
13.171932,8.681661649093838,0.1207282136905331
13.176519999999998,8.71912890575465,0.1201814333276009
13.181108,8.752876239910725,0.1196752310821194
13.185704,8.785968509047443,0.1191683923993792
13.190291999999998,8.822003450955396,0.1186334959873374
13.1949,8.85444065507276,0.1181322824546263
13.199484,8.890475596980712,0.1176048094097571
13.20406,8.927776527478754,0.1170532965124988
13.20866,8.963034219653204,0.1165329045872014
13.213252,8.996615227646508,0.116024326691161
13.217852,9.035670885591214,0.1154450404114574
13.222432,9.072927674640624,0.1148827773772167
13.227019999999998,9.106708910613587,0.1143452420452986
13.231608,9.139835081567195,0.1138072490256542
13.236204,9.179623847796778,0.1132129375516219
13.240788,9.215814876235768,0.1126461735571675
13.24538,9.248163797455874,0.1121179982660698
13.249968,9.28100145753256,0.1115717743998131
13.254552,9.308320326209218,0.1110683714986296
13.259136,9.33204145709528,0.1105912181921874
13.263719999999998,9.34844492768602,0.1101705240789112
13.268308,9.36329389880975,0.1097522330581601
13.272892,9.379531043237716,0.1093081207095278
13.277471999999998,9.39127101542744,0.1088935748360795
13.282056,9.39630425089256,0.108506777022246
13.28664,9.396063064385942,0.1081487635777292
13.29122,9.393201617801898,0.107772860271334
13.295804,9.390828910074436,0.1073759783596348
13.300399999999998,9.385880083718176,0.1069911650151988
13.304975999999998,9.378110769304826,0.1066282710220894
13.309564,9.35881513323483,0.1063664235280456
13.314156,9.338986616859623,0.106093532359833
13.318744,9.318380850750913,0.105819884867307
13.323336,9.295321150727547,0.1055515926733169
13.327916,9.264288725389502,0.1053275620924921
13.332512,9.233500669479747,0.1050916329730012
13.337099999999998,9.20361204801764,0.1048491410645302
13.341699999999998,9.168737515460707,0.1046543008382403
13.346279999999998,9.13950395901796,0.1044146567479042
13.350879999999998,9.11411250979409,0.1041414068813507
13.355464,9.093340417522606,0.1038342328481285
13.360048,9.073467759698769,0.1035208294719127
13.364636,9.052451297998992,0.1032227968418878
13.369231999999998,9.038996866022838,0.1028658620207113
13.373824,9.029428682714194,0.1025078053001191
13.378416,9.02987646304382,0.1020864859215916
13.383003999999998,9.03228943843152,0.1016822333201291
13.387588,9.032170436639044,0.1013194286250027
13.392175999999996,9.033850303741865,0.1009460733483844
13.396764,9.039005723921134,0.1005570936449445
13.401348,9.04980212021458,0.100124780172173
13.405927999999998,9.06100921209909,0.0997089198670123
13.41052,9.074670237898257,0.0992888831140974
13.4151,9.092584066507367,0.098856164021586
13.419676,9.114872882640574,0.0984047852772577
13.424272,9.14243612074552,0.097932030363268
13.428859999999998,9.173719281355202,0.0974374266144684
13.433448,9.215384959745595,0.0968733111036594
13.438055999999998,9.256273388402487,0.096313789421845
13.44264,9.294219144288142,0.0957816524145752
13.447244,9.33012166185021,0.0952712022109486
13.451824,9.366923613859926,0.0947589671750235
13.456428,9.407567673088526,0.0942240354634116
13.461004,9.4424485714888,0.0937346520799898
13.465604,9.4797392623551,0.0932163061604578
13.470183999999998,9.512410596269016,0.0927297188822861
13.474783999999998,9.545448484325368,0.092232791842931
13.479368,9.58383883761898,0.0916835993719115
13.483959999999998,9.622229190912588,0.0911365395249455
13.488544,9.662252086938722,0.0905608061273081
13.49314,9.704318221288442,0.0899716179476638
13.497728,9.745851475332952,0.0893730228421682
13.50232,9.788650717967544,0.0887607737575424
13.506907999999996,9.82862947254505,0.0881689070611033
13.5115,9.86398887017017,0.0876017931086811
13.51608,9.89599489943299,0.0870448445748011
13.520663999999998,9.927468048390596,0.086482847083702
13.525259999999998,9.949824668157584,0.0859653801366314
13.529848,9.971526222905212,0.0854445480859722
13.534439999999998,9.994493766242924,0.0849072446273899
13.539028,10.018605113456578,0.0843580633199839
13.543615999999998,10.044104633974465,0.0837908931283535
13.5482,10.061264875035222,0.0832634773668992
13.552787999999998,10.083655396619095,0.0826946908589929
13.557376,10.101060007108147,0.0821622795414889
13.561967999999998,10.117931737291988,0.0816202241186421
13.566567999999998,10.131083544971093,0.081096450163559
13.571163999999998,10.144113167936052,0.0805820834229807
13.575756,10.161351452262329,0.0800372823402574
13.580352,10.176790867693311,0.079501353217824
13.584928,10.188265991191267,0.0789909715884719
13.589528,10.201662168298665,0.0784719759511014
13.594108,10.216202149282,0.0779456383400558
13.598708,10.229432000226618,0.0774070177677983
13.6033,10.247647762266064,0.076838734207648
13.607895999999998,10.264841905143712,0.0762784222641793
13.612488,10.278071756088332,0.0757426533231384
13.617076,10.297842017594778,0.0751832533591764
13.62168,10.316468475225284,0.0746362259363857
13.626271999999998,10.335872182589297,0.0740933394392276
13.630856,10.355398074667454,0.0735477059578894
13.635447999999998,10.371614739831935,0.073032490499142
13.640028,10.39707011890119,0.0724881365487729
13.644619999999998,10.42036007493271,0.07196548147178
13.649195999999998,10.447736507611406,0.071418987639271
13.653788,10.478588493366544,0.0708720147688112
13.65838,10.513038216912276,0.0703190081953022
13.662967999999998,10.542502029363186,0.0697952118849838
13.66756,10.567757180452777,0.0693042461959515
13.672147999999998,10.595099711314582,0.068831871107393
13.676743999999998,10.63037082604244,0.0683241193965216
13.68134,10.66858461354154,0.0678081196030345
13.685919999999998,10.703733543555256,0.0673135198470241
13.690528,10.746200133864305,0.0668068483082091
13.695112,10.791609396944583,0.0662943232950939
13.699712,10.843681255300837,0.065764826354346
13.704304,10.901638459199557,0.0652147588726149
13.708892,10.95203363337466,0.0646907305501085
13.713499999999998,11.006026545340353,0.0641647010848231
13.718099999999998,11.06296213007728,0.0636323367027114
13.722692,11.125660875642536,0.0630876148085685
13.72728,11.191546663407316,0.0625269139458564
13.731875999999998,11.254079082809795,0.0619701951892095
13.736456,11.318410371107571,0.061416563022835
13.741056,11.382619474691202,0.0608723550063137
13.74564,11.446950762988976,0.0603307925047836
13.75024,11.510626986267397,0.0597873024281704
13.754823999999996,11.576590817297694,0.0592285222913916
13.75942,11.64369845220393,0.0586645358105965
13.764024,11.707574903462016,0.0580962801083304
13.76862,11.765443824463482,0.057558003318072
13.77322,11.819470638246068,0.0570354208410344
13.777808,11.872598017581002,0.0565154053232474
13.782396,11.919840051373468,0.0560194993485411
13.786992,11.957354632404584,0.0555544983854046
13.791579999999998,11.985141760674342,0.0551199315309793
13.796164,12.010763465906372,0.0547010987880713
13.80074,12.041004528090784,0.0542759993202729
13.80532,12.068547286932256,0.053854826419343
13.809912,12.08582971270716,0.053450227062176
13.8145,12.094284120168362,0.0530731950317022
13.819083999999998,12.0958315629253,0.0527167217648746
13.823676,12.092148725159126,0.0523832936426394
13.828252,12.08180329211698,0.052063113141133
13.832864,12.065694698246508,0.0517552341793416
13.837452,12.041901889938272,0.0514635119924506
13.84204,12.01492203943051,0.0511862830568104
13.846631999999998,11.985776765885015,0.0509192729663796
13.85122,11.950868331511195,0.0506630199817377
13.855811999999998,11.913916658813788,0.0504127755263805
13.860392,11.870424575554557,0.0501692011861569
13.864992,11.820680592610415,0.0499502797270624
13.869568,11.7660728832856,0.0497409430733063
13.874164,11.703903144237165,0.0495416754946016
13.878755999999996,11.642510654922232,0.049343726961426
13.883352,11.580218731159652,0.0491438509814856
13.887931999999998,11.50370218239748,0.048965514760099
13.892516,11.420523038359336,0.0487966818945731
13.89712,11.331702918207013,0.0486328853338543
