Time,Force,Position
13.184856,6.014019061639458,0.1520396795048965
13.189456,6.078042050663557,0.1515477731661711
13.194048,6.139400638161604,0.1510099984496421
13.198652,6.196217911972782,0.1505099636879101
13.203243999999998,6.255400836801356,0.1499062024928734
13.20784,6.31233005569494,0.1492713491265712
13.212424,6.368804437548832,0.1485746498919634
13.217019999999998,6.4226144178766695,0.1478298168630418
13.221608,6.468407531441192,0.1471694991198568
13.2262,6.514645242413669,0.1464424957394954
13.230792,6.554298401375693,0.1457952270828988
13.23538,6.596605722232031,0.1450666154650486
13.239968,6.63555967472607,0.1443801718110843
13.244552,6.671404628286099,0.1437188117416632
13.249144,6.704018398197974,0.1430966672526665
13.253736,6.735566407499428,0.1424600263222652
13.258316,6.768624774819258,0.1417787013944615
13.262895999999998,6.800905892405585,0.1411061448994738
13.26748,6.833187009991913,0.14043755307427
13.272068,6.864490649865076,0.1398338186867103
13.276652,6.89403956229157,0.1392984777740211
13.281256,6.919624182785036,0.1388395780054952
13.285844,6.942921195526625,0.1384397382947884
13.290432,6.96658476241065,0.1380188593509292
13.295028,6.982808484285202,0.1377137535204385
13.299616,7.000831075055047,0.1373888201716911
13.304216,7.016399731910242,0.1370853513017439
13.308812,7.033522888232439,0.13677796807561
13.313416,7.053833086754165,0.1364079945545714
13.317992,7.068746678590002,0.1361083929128673
13.322592,7.085703508749427,0.1357731622697689
13.327172,7.102904708337142,0.1354282433256725
13.331772,7.123292950124385,0.1350238928002369
13.336356,7.145069365215858,0.1345813741054718
13.340948,7.165413465554472,0.134141099163871
13.345527999999998,7.183592142855354,0.1337459234853276
13.35012,7.198583777956708,0.1334140718216746
13.354708,7.216762455257588,0.1330263804283509
13.3593,7.235185501986763,0.1326268649610781
13.363888,7.2589610139531935,0.1321315604339775
13.368476,7.283103080062061,0.1316134042036979
13.373064,7.311209438103958,0.1310364319683442
13.377655999999998,7.3403374153076495,0.1304437554223682
13.382248,7.36946539251134,0.1298548167102401
13.386836,7.401169488343829,0.1292420934053987
13.391427999999998,7.429031476957435,0.1286863772424833
13.396016,7.460246833933342,0.1281086751321668
13.400607999999998,7.492361625356896,0.1275305410471615
13.4052,7.522966058762073,0.1270007997338803
13.409788,7.556801675815405,0.1264538061796515
13.414396,7.590515108154591,0.1259191234812215
13.418983999999998,7.621041498294252,0.1254435728597634
13.423592,7.65132351900562,0.1249884172430643
13.42818,7.682793485041557,0.1245531187239989
13.432768,7.714796331382703,0.1241307074538949
13.437364,7.747942981599791,0.1236868610672959
13.441952,7.781334001245168,0.1232297008753769
13.446544,7.807695871472135,0.1228766069243637
13.451124,7.836511675613756,0.1225149639519752
13.455724,7.85931994949876,0.1222424113203436
13.460311999999998,7.890467502840888,0.1218859641590075
13.464907999999998,7.91867238341178,0.121570983827049
13.4695,7.950841555915701,0.1212092250172739
13.4741,7.981089674810181,0.1208711876104761
13.478692,8.011704347847097,0.1205163754083434
13.483283999999998,8.04718274726469,0.1201052512037441
13.487876,8.083804950558221,0.1196806923058904
13.492472,8.115807796899368,0.1193050798339173
13.497059999999998,8.148421566811244,0.1189008251721819
13.501656,8.182545694741496,0.1184628005906657
13.506256,8.215237507918888,0.1180247927299774
13.510848,8.248418059952863,0.117562906188076
13.515436,8.281965166129277,0.1170891853470223
13.52002,8.316123195876417,0.1165911548959776
13.524608,8.350525595051847,0.1160834277427054
13.529208,8.387093417265012,0.1155483640466632
13.5338,8.42750334669706,0.1149778277672698
13.538391999999998,8.47686347915696,0.1143062046564861
13.542976,8.521970808806907,0.113662963451579
13.547567999999998,8.569121376780444,0.1129947920291089
13.552152,8.60793266529686,0.1124098158045385
13.556739999999998,8.650830430460447,0.1117805417005948
13.561328,8.684367297005121,0.1112373060648612
13.565932,8.72366732437812,0.1106421094099358
13.570519999999998,8.76488840536056,0.1100342390509882
13.575108,8.801490129390615,0.1094686889930041
13.579704,8.833350311754137,0.1089499084535754
13.5843,8.865577048260098,0.1084140827859453
13.588904,8.895516177014182,0.1079144994684669
13.593491999999998,8.924555871320615,0.1074267683893067
13.598095999999998,8.951185773161027,0.10697870008646
13.602676,8.978715109449084,0.1065265244794323
13.607276,9.001380719356467,0.1061232454969149
13.611856,9.01930478759732,0.105762892734692
13.616452,9.039394278875902,0.1053772402146193
13.621043999999998,9.05960595486863,0.1049908157254356
13.625643999999998,9.076586447213208,0.1046145565440805
13.63024,9.086127094548308,0.1042969364702696
13.634832,9.098610414654644,0.1039531684341137
13.639416,9.10851761613218,0.1036207709988448
13.644008,9.118669187038012,0.1032774971986253
13.648612,9.123301966543808,0.1029738303836366
13.653208,9.134597341325575,0.1026155240523619
13.657799999999998,9.141517728583253,0.1022816225613092
13.662399999999998,9.147538681393277,0.1019554412130195
13.666988,9.155069992221682,0.1015981645087846
13.671571999999998,9.165011095516109,0.1012050268266031
13.67616,9.175851633258183,0.1008072180841917
13.680751999999998,9.19114520178987,0.1003543891891145
13.685347999999998,9.203618282264468,0.0999232982872053
13.689936,9.222343262423973,0.0994277993274509
13.694527999999998,9.243111480907064,0.0989159003100351
13.69912,9.270009414360915,0.0983469360912062
13.703712,9.299972205300143,0.0977490498422749
13.708292,9.327114508182287,0.0971747742586885
13.712868,9.351314138293198,0.0966283992919366
13.717464,9.379766571214052,0.0960745341699119
13.722051999999998,9.412061111353792,0.095494349186287
13.72664,9.44321184761759,0.0949326659502537
13.731236,9.4821689830333,0.094316515417409
13.735827999999998,9.52562329068725,0.0936833255586742
13.740424,9.571775901684145,0.0930389423092955
13.745,9.619194501271124,0.0923831388908932
13.7496,9.667390350591605,0.09173180233965
13.754179999999998,9.713909515730933,0.0910882717338919
13.758772,9.760961561175472,0.0904595072069313
13.763368,9.805193118562924,0.0898501286677669
13.767968,9.85044629511217,0.0892354140261996
13.77256,9.89390060276612,0.0886354474685412
13.777152,9.9387430837243,0.0880147383817527
13.781759999999998,9.977289523548944,0.0874241785979334
13.786355999999998,10.008762672506554,0.0868595289787809
13.790944,10.032795976454691,0.08633563247629
13.795544,10.05413097705988,0.0858235634427592
13.800135999999998,10.075954716521656,0.0852946315310601
13.804728,10.097367760392364,0.0847514491671965
13.809316,10.111951882824329,0.0842241188986962
13.813904,10.123060452179844,0.0837068186960966
13.818492,10.131837272334854,0.0831858778470384
13.823083999999998,10.133052062766245,0.0827076097088997
13.82768,10.13103566954948,0.082230400008314
13.832272,10.127464776865716,0.081750622740504
13.836868,10.118907973087126,0.0813049728271238
13.841456,10.107652865965594,0.0808679837118858
13.846048,10.09549832439641,0.0804335878936959
13.850628,10.082688717807873,0.0799933197840021
13.855216,10.074376283457571,0.0795392018732209
13.859824,10.064920045231332,0.0790974257450363
13.864416,10.054197818415007,0.0786723697486059
13.869024,10.042864668027956,0.0782697826145058
13.873611999999998,10.036805939612645,0.0778557160340592
13.878211999999998,10.03949718624552,0.0774246265665462
13.882804,10.047585039564286,0.0769778546836446
13.8874,10.06323492260667,0.0765003983500665
13.891996,10.08109437013541,0.0760360467992766
13.896596,10.10128556686466,0.0755795254990858
13.901191999999998,10.12458576252792,0.0751315483052969
13.905772,10.152260945715271,0.0746783720023628
13.910372,10.183289497264928,0.0742264369141879
13.91496,10.218448666910383,0.0737779706031468
13.91956,10.253241282413402,0.073344760088919
13.924143999999998,10.293186135174016,0.0729108962736133
13.928743999999998,10.335829291277571,0.0724713995226492
13.933339999999998,10.384113423495307,0.0720138018850485
13.937932,10.435995293503634,0.0715514040001425
13.942528,10.488654413245465,0.0710946765765418
13.947124,10.540536283253791,0.0706410429130335
13.951712,10.597526249071088,0.0701619983492596
13.956312,10.654638399602533,0.0696812760879857
13.960904,10.71518196176179,0.0691742081315543
13.9655,10.773926655025754,0.0686757832076915
13.970088,10.829195795213272,0.0681857963799984
13.974671999999998,10.880500643467762,0.067716889903004
13.97926,10.92579796146564,0.0672838373311585
13.983856,10.96749754167292,0.066859807000816
13.988447999999998,11.006621003251407,0.0664386588948298
13.99304,11.047909887867624,0.0660056735608472
13.997636,11.088299338036196,0.0655782148083521
14.002216,11.126112669575967,0.0651532409406021
14.006808,11.160817002181728,0.0647202243451536
14.011399999999998,11.19564351950164,0.0642847855872842
14.015988,11.223274561240364,0.0638622845676971
14.020584,11.25229377628332,0.0634252750809187
14.025171999999998,11.277593068821542,0.0630004086213057
14.029764,11.299416808283317,0.0625787189889571
14.034356,11.32201779747859,0.0621619118547382
14.038944,11.34065449474084,0.0617624437049682
14.04354,11.353528031174765,0.0613838509793656
14.048123999999998,11.369222055665777,0.061000123003398
14.052732,11.379930169061968,0.060638204890264
14.057308,11.389616663296362,0.0602820489283235
14.061908,11.39852590779726,0.059924106351534
14.066499999999998,11.41254324810712,0.0595435238597372
14.071099999999998,11.42500608894998,0.0591572393527659
14.075696,11.435547876183398,0.0587758352960156
14.080296,11.446089663416815,0.0583945730924871
14.084888,11.44804780176482,0.0580356440946313
14.089479999999998,11.444364963998645,0.0576889199871674
14.09406,11.442358810413618,0.0573446551831373
14.098655999999998,11.442029341009746,0.0570030150677444
14.10326,11.440800437158222,0.056662174602812
14.107855999999998,11.44521250942088,0.05631002411508
14.112444,11.45040183141704,0.0559630417205884
14.11704,11.456612772574989,0.0556125901600996
14.121627999999998,11.461435540428711,0.0552772716732003
14.126212,11.46548105854893,0.0549400503829235
14.130803999999998,11.470548195830942,0.0545981179880671
14.135388,11.47459371395116,0.0542600832938109
14.139983999999998,11.472876071243055,0.0539365413699125
14.144564,11.475000535753832,0.0536040563087712
14.149155999999998,11.478146619426402,0.0532680868417455
14.153744,11.481947768118332,0.0529398030017909
14.15834,11.482684059324876,0.0526248984759798
14.162935999999998,11.483175981103134,0.0523166396456409
14.167524,11.487387825386126,0.0520031635182886
14.17212,11.489434246631388,0.0517006797377918
14.176716,11.496344394257322,0.0513842657832207
14.181304,11.50685227967385,0.051066075682724
14.185892,11.513762427299788,0.0507489437222834
14.190483999999998,11.514009979649751,0.050443710162209
14.19508,11.512991543409631,0.0501493344386764
14.199668,11.506209946341189,0.04986743344387
14.204268,11.489823081225536,0.0496048744315185
14.208848,11.46460819779618,0.0493643638174397
14.213452,11.438616064633322,0.0491190093549658
14.218039999999998,11.403918097870903,0.0488917893255566
14.222632,11.365255839175456,0.0486747306139955
14.227228,11.321607669385187,0.0484712954683148
