Time,Force,Position
18.053004,3.0325413978619267,0.1843562240439469
18.0576,3.251217295456201,0.1807359574925722
18.062192,3.4646526728956237,0.1780932328314003
18.066784,3.6762789418080137,0.1755047351191028
18.071372,3.879966387222608,0.1734276466630001
18.075968,4.078491355747868,0.1715028867568991
18.08056,4.274019270421526,0.1694047071130398
18.085152,4.465284142653498,0.1673997358376768
18.08974,4.652774711300365,0.1653347640345187
18.094328,4.830361261391368,0.163550284108281
18.098916,4.995345489583562,0.1620344622135464
18.103516,5.150303514505746,0.1607399382336091
18.108104,5.298666747785735,0.1594235628305838
18.112696,5.432995344414057,0.1583302686475299
18.117292,5.555210358000153,0.1573430196400164
18.121872,5.673573024735626,0.1563528105234311
18.126468,5.785839878317227,0.1555015091728666
18.131056,5.89699682983978,0.1545920850010418
18.13564,6.009497813217935,0.1535963026573284
18.14024,6.115292059871489,0.1527406804942893
18.144828,6.212458516191002,0.1520259541438721
18.14944,6.298132552670757,0.1514906026285507
18.154028,6.37406889675742,0.1510223456346572
18.158616,6.440922613470346,0.1506254609270549
18.163212,6.50367961390436,0.1501807881630416
18.1678,6.561362420346296,0.1497668255985883
18.172404,6.6148704672438,0.1493648023118819
18.176996000000003,6.6633043201492255,0.1489926629901176
18.181592,6.707563413510222,0.1486334992222483
18.186172,6.749690985650374,0.1482378267132183
18.190772,6.793162589646128,0.1477564337514088
18.19536,6.830782749916303,0.1472981654891877
18.199964,6.863084346766108,0.1468722605221457
18.204556,6.892110618519131,0.1464341229185444
18.209144,6.923258171861257,0.1459098048567433
18.213736,6.945367239278279,0.1454793385177775
18.218332,6.958315636056048,0.1451448474524978
18.222928,6.966844903861094,0.144826464510047
18.227524000000003,6.968911804369832,0.1445635953335288
18.232116,6.970812378715795,0.1442683647934336
18.236708,6.9771659838513695,0.143869197390978
18.241300000000003,6.985562827310534,0.1434309517336915
18.245888,6.99857902772208,0.1429242568666131
18.250476,7.013516281743066,0.1423852724219244
18.255072,7.027187547173971,0.1418818284499024
18.25966,7.038038324547784,0.1414224831956184
18.264248,7.045413548845153,0.1410036810173851
18.268832,7.047392166456636,0.1406573633062906
18.273412,7.04757191517282,0.1403366237417467
18.278,7.046852229441358,0.1400293712464012
18.282584,7.044578044242892,0.1397322572240226
18.287164,7.041526609310922,0.1394384331333697
18.291748,7.039618978254894,0.1391175354664828
18.29634,7.041309084989456,0.1387512501171658
18.300924,7.038257650057486,0.1384589762317234
18.30552,7.036882899306668,0.1381506434555347
18.310096,7.041515678812465,0.1377366042347562
18.314684,7.04643696919518,0.1373482838597548
18.319272,7.05573324710199,0.1369118771030784
18.323868,7.062619732542776,0.136535834946517
18.328452,7.069261848555271,0.1361765952511822
18.333044,7.073616356815886,0.1358697284469023
18.337624,7.078748114810005,0.1355622093720208
18.342208,7.084412753109334,0.1352667410985887
18.346792,7.091221195284601,0.1349458309127662
18.351364,7.100072875783457,0.1345881192918056
18.35594,7.113954608825762,0.1341879582672496
18.360536,7.132211329392161,0.1337393009015171
18.365116,7.152389103568001,0.1332653740496795
18.369696,7.17232250831555,0.1328089069867757
18.37428,7.192910978082455,0.1323606185189386
18.378864,7.217752250659309,0.1318765081762963
18.383452,7.2441480227031665,0.1313892536147647
18.388056,7.271443229194672,0.130900665502115
18.392636,7.302458358190915,0.1303677998122067
18.397228,7.3333513024730115,0.1298423821008143
18.40182,7.358114531784348,0.1294207217938382
18.406408,7.384143749685768,0.1289691714513206
18.411012,7.408374098691894,0.1285420947912976
18.415604,7.43873416266878,0.1280198238716746
18.4202,7.473835768312197,0.1274456756518339
18.424776,7.512779481174497,0.1268231725861435
18.429376,7.547758902103767,0.1262623626326968
18.433964,7.584659376642479,0.125681874270075
18.438568,7.62605702341943,0.1250640697289191
18.443152,7.671174592701119,0.1244118064189718
18.447752,7.71371604335401,0.1237838914585122
18.452344,7.76022178593993,0.1231108972624849
18.456936,7.804317736059826,0.1224920349555015
18.461528,7.850456924503308,0.1218496974351819
18.46612,7.892754005727907,0.1212553919472879
18.470704,7.934396021933151,0.1206639594646079
18.4753,7.973706288937887,0.1200814343560657
18.479888000000003,8.004677276485502,0.1195867803055261
18.484472,8.032050526242525,0.1191279237113871
18.489048,8.061955753179719,0.1186180482884289
18.49364,8.09606964147823,0.1180430146781415
18.498232,8.131449518366827,0.1174464417523967
18.502812,8.163231657464834,0.1168813652925233
18.507408,8.186552332391571,0.1164098432667271
18.511988,8.199612674251746,0.1160454442660874
18.516564,8.208542398016121,0.1157026193392397
18.521168,8.217960860637076,0.1153342328073011
18.525756,8.224270324324022,0.1149734919093439
18.530364,8.226449169915167,0.1146348417506514
18.534956,8.222087604944486,0.1143612375081882
18.53956,8.218214778830387,0.1140630598212743
18.544144,8.206124857973311,0.1138370546237342
18.548728,8.194112980381755,0.1135687684434931
18.553332,8.177726115266102,0.1133301501245986
18.557912,8.163749042616475,0.113045906798751
18.562516,8.1462964168904,0.1127836202280704
18.5671,8.129743225611977,0.1125133881123948
18.5717,8.118175945428373,0.1121818282288679
18.576288,8.107874653834855,0.111824308413237
18.580892,8.09745117752719,0.111473823079866
18.585476,8.088171505095465,0.1111051255311236
18.590068,8.07607134460665,0.11076279295131
18.594648,8.069856529660305,0.110356256040287
18.59924,8.069282690828139,0.109897156643415
18.603832,8.075371447271944,0.1093722384351849
18.608424,8.083791952916256,0.1088456887611158
18.613012,8.09491076190351,0.1083012294018501
18.617596,8.106318081767686,0.1077805995399079
18.622184,8.117114478061131,0.1072909294919352
18.626776,8.134451284916405,0.1067459829184113
18.631368,8.154364210400477,0.1061920247628022
18.635956,8.180450992303935,0.1056002417724065
18.640548000000003,8.210424022874907,0.1050117995912097
18.645136,8.243095356788821,0.1044063804292422
18.649728,8.279364428493325,0.1037834859565496
18.654316,8.320008487721925,0.1031397440929094
18.658904,8.366948588084059,0.1024646818610194
18.663512,8.418141491256142,0.1017807051196747
18.668088,8.470766709181083,0.1011076250687211
18.672692,8.521104319354146,0.1004732814351845
18.67728,8.571974809832419,0.0998590107798209
18.681868,8.630040775891874,0.0992106182746248
18.686472,8.688639622256543,0.0985847764474726
18.691068,8.746994099192918,0.0979765719149885
18.695664,8.80829124890053,0.0973534514993142
18.700252,8.87150945221758,0.0967211400484769
18.704856,8.93370603637284,0.0961053327907076
18.709432,8.999989097175273,0.0954553335385745
18.714024,9.06537272353006,0.0948101397592894
18.718612,9.127036427380109,0.0941965629753109
18.723212,9.18972175039195,0.0935835235394833
18.727796,9.251996377812723,0.0929622953943024
18.732388,9.31079545215706,0.0923596251167336
18.736984,9.370371776234892,0.0917631591371868
18.741576,9.428926481150931,0.0911857229581593
18.746168,9.486826121047612,0.0906096244313997
18.75076,9.541372392581996,0.0900516583262751
18.755348,9.59424197993523,0.0895052199115735
18.759936,9.649643544468631,0.0889294262332281
18.764524,9.707332716753916,0.0883300854674024
18.769112,9.761424151248605,0.0877496853291223
18.773696,9.808442294876258,0.0872015777532733
18.778272,9.852107070141608,0.0866635005373629
18.782864,9.895361149815898,0.0861141470951981
18.787444,9.936694175880742,0.0855846439456712
18.792036,9.975817637459226,0.0850510498633978
18.796632,10.018128141237238,0.0844944800646193
18.801216,10.055819288062864,0.0839630635632195
18.805816,10.098085650392246,0.0833856340387425
18.810404,10.14174018602586,0.0827899837479206
18.814992,10.181796983868884,0.0822120016230941
18.819596,10.21891110894067,0.081655301174955
18.824192,10.261133329821428,0.0810668320806765
18.828796,10.30000218233988,0.0804831069042789
18.833388,10.335517666496038,0.0799055269104636
18.83798,10.370500270346982,0.0793220894139291
18.84256,10.398942463636098,0.078768386332137
18.847156,10.426074526886502,0.0782068599825308
18.851736,10.44756561402273,0.0776733835981198
18.856336,10.467624386406095,0.0771349077362691
18.860928,10.48919351680784,0.0765732524894868
18.86552,10.51010758219023,0.0760056125407361
18.870112,10.525625040886728,0.0754509493121991
18.874708,10.540487434563872,0.0748923062437146
18.8793,10.54827653737398,0.0743484252860541
18.883884,10.556842889917585,0.073808328464854
18.888472,10.558991016613511,0.0732898784593296
18.893064000000003,10.562527316613668,0.0727524225018255
18.897656,10.561322074947292,0.072235784807235
18.902244,10.559339583547418,0.0717181972339511
18.906832,10.551960485461656,0.0712106352721921
18.911428,10.546991179841918,0.0706781890020956
18.91602,10.528941053098526,0.0701886141794556
18.920608,10.512934164678722,0.0696857579343694
18.9252,10.497826710706564,0.0691805719051489
18.92978,10.477733345639589,0.0687002007816169
18.934372,10.45878378444855,0.0682065689206399
18.938968,10.436891550486273,0.0677260088691253
18.943556,10.417697619866944,0.0672395832134497
18.948164,10.397237700657527,0.0667668750100342
18.952752,10.37845446562926,0.0662955512383697
18.95734,10.361103545353853,0.0658327968977227
18.961928,10.351969719821426,0.0653508397241987
18.966504,10.340548286537116,0.0648881366959503
18.9711,10.33248022161511,0.0644258225665674
18.975676,10.32057004947422,0.0639771039953136
18.980276,10.311235995962129,0.0635273653328011
18.984852,10.302434822755249,0.063089486179536
18.989452,10.297764267644167,0.06265823983489
18.99404,10.29338222341001,0.0622473545501092
18.998632,10.299138327528269,0.0618147468859552
19.003224,10.304527877504093,0.0613964488702374
19.007816,10.321732260013478,0.0609579459754857
19.012416,10.342534380313458,0.0605183309486483
19.017016,10.3621926967375,0.0600889625548158
19.021608,10.390312477332808,0.0596398855939473
19.026192,10.421785626290417,0.0591958918509064
19.03078,10.452770036391446,0.0587681550194511
19.035364,10.479667969845297,0.0583612391110185
19.039944,10.506443718585004,0.0579590767001364
19.04454,10.531953478734623,0.0575728334344291
19.049132,10.558362673331894,0.057187261823503
19.053708,10.583750248767371,0.0568098748960633
19.058304,10.611058877812289,0.0564275115956053
19.062892,10.63734588769541,0.0560499536019594
19.067472,10.669273873692712,0.0556615343212919
19.07208,10.701079674975867,0.0552786624189926
19.076672,10.730964422649585,0.054902590270162
19.08128,10.753653694742116,0.0545319698070575
19.085868,10.77352247877756,0.054167466356659
19.090456,10.785584863661091,0.0538291522151285
19.095048,10.793438587183308,0.0535130250637402
19.099628,10.79397465041019,0.0532054292627752
19.104232,10.786582129771016,0.05292580589816
19.108808,10.7790674244177,0.0526497447491016
19.113408,10.75888259353179,0.0524104405949515
19.117988,10.736898893750586,0.0521715188163241
19.122588,10.715281748111824,0.0519194139968573
19.12718,10.693786787187204,0.0516617762024745
