Time,Force,Position
13.304783999999998,3.326379369107824,0.1683567244070064
13.309372,3.5458664182524924,0.1663859524724248
13.313964,3.756060372412025,0.1646051924346782
13.318548,3.959292980786926,0.1630632894369189
13.323144,4.154542624215404,0.1616814237371497
13.327731999999996,4.339477553496951,0.1604997852997357
13.332331999999996,4.508578977231535,0.1596496353493967
13.33692,4.676438074561185,0.1584796707559184
13.34152,4.839623433858083,0.1571858025680479
13.346111999999998,4.992616263722195,0.1560073035778999
13.350707999999996,5.139380856086553,0.1547379911644592
13.355292,5.268390889294507,0.1537415785438755
13.359887999999998,5.38679769747861,0.152740965899594
13.364476,5.489449043381266,0.1518565532079618
13.369072,5.577166318184607,0.1511307050596086
13.373652,5.656944769490153,0.1504922210908663
13.378239999999998,5.731360515926701,0.1498632157233236
13.382828,5.79596052670464,0.1493918334183839
13.387424,5.856507962652293,0.1489242256653161
13.392004,5.91550089913294,0.1484966409640282
13.396596,5.963211883385232,0.1483042734330516
13.401191999999998,6.012555410370045,0.1480454488819221
13.405772,6.063653664801526,0.1477147730782104
13.410363999999998,6.104936183574397,0.147492360795601
13.414952,6.142532681659422,0.1472388877169062
13.419532,6.177875473809458,0.1469520440114672
13.424128,6.210475821167921,0.1466553621692172
13.428715999999998,6.233182389602257,0.1465252307736374
13.433324,6.25098109020729,0.1464495027260985
13.437919999999998,6.265792976592459,0.1463893940894937
13.442524,6.279539102367207,0.146308609508255
13.447108,6.298393323950924,0.1461135831208728
13.4517,6.315448676639343,0.1459459002767322
13.456291999999998,6.335979582404208,0.1457316649956165
13.460888,6.360474780102101,0.1454391634519459
13.465491999999998,6.379695555828255,0.1452239462826736
13.47008,6.3999379507162,0.1449909108605502
13.47468,6.423000833661236,0.1447131780253329
13.479267999999998,6.4477404007874215,0.1444213174082597
13.483867999999998,6.469170740999934,0.1442134985285426
13.488456,6.497918741507776,0.1438925355084708
13.493056,6.52605581844489,0.1436165397177561
13.497652,6.5512502226107685,0.143399132461257
13.50224,6.585971851558337,0.1430664678531283
13.506819999999998,6.619471633364448,0.1428135765449294
13.511416,6.653914991066835,0.1425953314148947
13.516016,6.6954316396362605,0.1422863187229459
13.520604,6.745409752376953,0.1418444069074363
13.525192,6.800129406784175,0.141332509192421
13.529788,6.8556263109249,0.1408203776594616
13.534384,6.910878845637334,0.1403349817265429
13.538968,6.963921815863406,0.1398625290992206
13.54356,7.024604859078615,0.1392373627669478
13.548156,7.083078337807464,0.1386242711511184
13.552747999999998,7.1402416864976015,0.1380191791029398
13.557327999999998,7.20263531571085,0.1373220992806691
13.561923999999998,7.264373879904744,0.1366341592233157
13.566512,7.32402506432642,0.1359555984523607
13.571108,7.38248830342353,0.1352733772411997
13.575703999999998,7.438331282443215,0.1345751167472823
13.580292,7.493352870280769,0.1338555083423008
13.584896,7.546775817202691,0.1331091211478418
13.589472,7.60248637187649,0.1323220852358313
13.594068,7.654432862596925,0.1315567186318445
13.598651999999998,7.711076753535262,0.1306954183713112
13.60324,7.764733830253736,0.1298423540635149
13.607844,7.818224580809438,0.1289758838037117
13.61242,7.868484147716982,0.1281433534863039
13.61702,7.915390346262229,0.1273461376326704
13.621596,7.961763664502263,0.1265432552687785
13.6262,8.0055608641135,0.1257659552066382
13.630788,8.054221790105412,0.1249376982100234
13.635388,8.096630816412418,0.1242213816996136
13.639968,8.140061461881219,0.1234952105865356
13.644564,8.181571053740578,0.1227995123481404
13.649152,8.223202830314081,0.122112330235579
13.653744,8.263157922706439,0.121441058026906
13.658331999999998,8.301969211222852,0.1207950073386109
13.662924,8.33873726141568,0.1201807368325574
13.667503999999996,8.380002483846747,0.1195302117786892
13.672088,8.418080664078289,0.1189329294899562
13.676676,8.457591159062689,0.1183428690592929
13.681272,8.495180600437646,0.117779763490077
13.685852,8.532403487670166,0.1172381727676059
13.690431999999998,8.57179179794042,0.1166769486970072
13.695016,8.616043834591352,0.1160673790221634
13.699607999999998,8.658252632918694,0.1154925485985552
13.704196,8.694453900989423,0.1149882287091434
13.7088,8.730655169060153,0.1144874100514249
13.713387999999998,8.76517975294973,0.1139962430041324
13.717972,8.800970325429393,0.1134832084748777
13.722568,8.828299433737788,0.1130529467202116
13.727152,8.856361650331058,0.1125912721109769
13.731756,8.88119268327617,0.1121409189596193
13.736335999999998,8.904591401468426,0.111688343266533
13.740932,8.916952536860618,0.1113261178114058
13.74552,8.929680226395247,0.1109488018395338
13.750115999999998,8.939298916995865,0.1105747046090071
13.754696,8.947485292843623,0.1101962778658255
13.759296,8.954239353938526,0.1098164786725264
13.763887999999998,8.95866166583292,0.1094380950888028
13.768484,8.960874413240953,0.1090572745812698
13.773068,8.962554280343777,0.10866681612111
13.777663999999998,8.964067821283825,0.1082500731694696
13.78226,8.953155606119578,0.1079464935953521
13.78686,8.935947349821797,0.107685237924037
13.791452,8.91436410599992,0.1074478884359361
13.796043999999998,8.899154946577097,0.1071294320150465
13.800632,8.88047023407783,0.1068285607186384
13.805224,8.863051510168646,0.1065043048868212
13.809804,8.845754970973607,0.1061743977535741
13.814396,8.83152328926395,0.105809327430771
13.818987999999996,8.815248369230707,0.1054664316170301
13.823576,8.799628514216819,0.1051276261806103
13.828176,8.782620485898697,0.1048156103368518
13.832763999999996,8.770231814532963,0.1044666630201043
13.837356,8.75502265511014,0.1041400967992191
13.841943999999998,8.744066298497264,0.1037952438210181
13.846532,8.737729298836776,0.1034165403758446
13.851128,8.727305822529111,0.1030819885480135
13.855715999999996,8.722523322335624,0.102702672301263
13.860308,8.719950386628499,0.1023292938303747
13.864904,8.71443477815014,0.1019826541027187
13.8695,8.711128734158141,0.1016427403948491
13.874104,8.720004076842145,0.1012106459403903
13.878684,8.735952710393185,0.100743382176855
13.88328,8.755499081734818,0.1002550486107913
13.887856,8.772757845324577,0.0998019292437908
13.892456,8.795291030886073,0.0993242947598348
13.897043999999998,8.819134346486281,0.0988608118253626
13.901647999999998,8.844776530981786,0.0983917476445382
13.90624,8.872095399658441,0.0979212783469255
13.910836,8.902889821411543,0.0974393652321555
13.915416,8.941246272888264,0.0969094062210005
13.920012,8.984588635459808,0.096337142341582
13.924599999999998,9.03831351581206,0.0957015944985624
13.929195999999996,9.094492330078964,0.0950639641727218
13.933784,9.149893894612369,0.0944312481050218
13.93838,9.205417643859914,0.0938029933229434
13.942968,9.264783500326343,0.0931472525330204
13.947551999999998,9.320185064859746,0.0925299245264048
13.952136,9.378773671592675,0.091888494159176
13.956727999999998,9.444679938620933,0.091212650791024
13.96132,9.507110652572743,0.0905534959257361
13.965908,9.561324271781578,0.0899427028411067
13.970508,9.609241849856875,0.0893653851659533
13.975096,9.659979915989268,0.0887779475416022
13.979688,9.7126390357311,0.0881816895217095
13.984272,9.762066971824776,0.0875907159235495
13.98886,9.81018477787974,0.0869919166703726
13.993455999999998,9.85278379253467,0.0864231289044133
13.998048,9.891662884684864,0.0858758698667276
14.002636,9.927310793186903,0.0853322763890028
14.007231999999998,9.951798934174732,0.0848490165353249
14.011827999999998,9.97178990292432,0.0843854744371505
14.016424,9.98086547358799,0.0839720278392496
14.021016,9.99157358698418,0.0835292783009359
14.025612,9.998806147303927,0.0830949706709144
14.030192,9.999498297061846,0.0826930427254367
14.034792,10.000557000962202,0.0822784398693382
14.039376,10.003903312614437,0.0818395661549986
14.043983999999998,10.00107576784728,0.0814194197723351
14.048576,9.993340355250822,0.0810005559022949
14.053172,9.985849312082651,0.0805719597612696
14.057768,9.981545311114012,0.0801154896649814
14.062359999999998,9.97556462596422,0.0796580714162884
14.066948,9.962510649947388,0.0792189067245458
14.071544,9.946103305568256,0.0787815858814848
14.076148,9.932516449246217,0.0783316543163714
14.08074,9.91982902737182,0.077879360057185
14.085328,9.910084278268664,0.0774089653317881
14.089924,9.904181636384386,0.0769192516575484
14.094511999999998,9.900855113128909,0.0764272402732535
14.0991,9.904191185149404,0.0759031509252971
14.103683999999998,9.912268798836426,0.0753591511111771
14.10828,9.922678161723956,0.0748207694094194
14.112863999999998,9.929900482411965,0.0743093788835533
14.117452,9.940598356176412,0.0737929703560709
14.122044,9.95693720605504,0.0732537666010406
14.126624,9.974053305667171,0.0727201258217983
14.131204,9.98990341668922,0.0722041033883058
14.1358,10.00616422330233,0.0717035575551341
14.140387999999998,10.022713540792363,0.0712240813399488
14.144983999999996,10.04388221523478,0.0707329164543731
14.14958,10.066238835001762,0.0702623330605783
14.154176,10.096812549511723,0.0697717400620522
14.158776,10.13163906683163,0.0692806083642998
14.163367999999998,10.170185506656274,0.068780214000544
14.167972,10.206444338729042,0.0683042388581173
14.172552,10.23849450944049,0.0678578790996167
14.177152,10.274919667676034,0.0674113349406443
14.181732,10.307747088120983,0.0669737593886858
14.186332,10.33787620522299,0.0665435554777661
14.190924,10.368005322325,0.0661171508647531
14.195524,10.393148528332182,0.0657178158437955
14.200112,10.419435538215303,0.0653100340585114
14.204704,10.447521416993723,0.0649004744209636
14.209291999999998,10.47969377241932,0.064472578585642
14.213884,10.508801270359534,0.0640635265048866
14.218467999999998,10.532922857204923,0.0636790629066739
14.223056,10.561908170430993,0.0632788104332956
14.227639999999996,10.592936721980648,0.0628689326016496
14.232224,10.624331827672735,0.0624481523848147
14.2368,10.64984158782236,0.0620537481239376
14.24138,10.673919033219123,0.0616514264998139
14.245971999999998,10.694276556111149,0.0612614371011274
14.250547999999998,10.71565569816497,0.0608684341664842
14.25514,10.737689905238144,0.0604856804770621
14.259732,10.763810588958496,0.0600854812908407
14.264308,10.799125845134988,0.0596432814039861
14.268912,10.827001256302005,0.0592187818989435
14.273491999999996,10.858474405259612,0.0587921470925482
14.278076,10.893667476721957,0.0583606169495596
14.282671999999998,10.927716744308364,0.0579406638985108
14.287264,10.9657303038278,0.0575072448730601
14.291856,11.000923375290148,0.0570813428137089
14.296443999999996,11.036360816180784,0.0566501003560594
14.30104,11.06399185791951,0.0562465152351695
14.305619999999998,11.09456557242947,0.0558346492123117
14.310223999999998,11.131924066929548,0.0554043649824237
14.314804,11.161598346991862,0.05499688610961
14.319399999999998,11.190373192606527,0.0545917984301701
14.323992,11.218004234345257,0.0541960122406164
14.328584,11.246534710531629,0.0537995304484109
14.333175999999998,11.272000329232624,0.0534163428195046
14.337771999999998,11.292724406267087,0.0530432890611947
14.34236,11.306785888025578,0.0526847820856803
14.346956,11.315084208955744,0.0523409555464978
14.351544,11.313777261838704,0.0520202799454149
14.356127999999998,11.299678004474927,0.0517387484840811
14.360703999999998,11.286722550987095,0.051447948409321
14.365303999999998,11.270047174994524,0.0511620701750122
14.369884,11.244665965402394,0.0508969963224675
14.374464,11.213765964410232,0.0506360473800764
14.379056,11.17505956426616,0.0503948264938427
14.383644,11.133532676064997,0.0501560079383394
14.38822,11.084321573426068,0.0499321023064403
14.392812,11.032289982730047,0.049710259610182
