Time,Force,Position
17.430104,2.906818705296064,0.1673763565734025
17.434692,3.099377102091662,0.1669942263702848
17.439288000000005,3.284807826939856,0.1665388021992231
17.44386800000001,3.4667527590798644,0.1659208890431875
17.448452000000003,3.63985943327443,0.1655405136763486
17.453028000000003,3.8180639636462272,0.1645262640601698
17.457611999999997,3.988451855234372,0.1637144719895785
17.462199999999996,4.154576704380832,0.1628100515498628
17.466788000000008,4.315416891923811,0.1618971728994535
17.471372000000002,4.467541006235491,0.1611451438062081
17.475964000000005,4.612870100925316,0.1604616112749481
17.480556000000007,4.746907003755045,0.1599640865962091
17.485144000000005,4.874148886962918,0.1594979138567913
17.489736000000008,4.991775262491847,0.1591680974087912
17.494320000000002,5.104239161131439,0.1587838460704935
17.498908,5.209741713986402,0.1583864916375036
17.503504000000007,5.313068604171893,0.15789644807033
17.508092000000005,5.413242353974747,0.1574065806585987
17.512680000000003,5.520933992052592,0.1567169599738535
17.517263999999997,5.629358738415312,0.1559835408911261
17.521864000000008,5.734307931701586,0.1553292433929008
17.52646800000001,5.84232198247324,0.1545872878648551
17.53104400000001,5.949558783511392,0.1538823855571237
17.53564,6.048490206909311,0.1532541186919513
17.540228,6.146267586799552,0.1525182397740186
17.54482800000001,6.23063149324059,0.1519927332880485
17.549416000000008,6.310654313974427,0.151438002239071
17.554016000000004,6.384947875696827,0.1509135334220006
17.558611999999997,6.452490559246001,0.1504375808617487
17.563212000000007,6.517368841269119,0.1499109975338827
17.56780400000001,6.579993417357248,0.149359381769143
17.572395999999998,6.640730841652827,0.1487491487038519
17.577004000000002,6.694961757203467,0.1481592388684837
17.58160000000001,6.745384467352116,0.1475538676235917
17.586200000000005,6.786113626556299,0.1470488109831315
17.590795999999997,6.8208691573207565,0.1465805884138227
17.595392000000004,6.851449928540783,0.1461224627494722
17.599987999999996,6.878100309644672,0.1456546047443215
17.60458,6.890726293728632,0.1453786192302973
17.609172,6.901753636896959,0.1450751843726687
17.613768000000007,6.912859023330802,0.144724315782218
17.618352,6.925474767783023,0.1443267926906799
17.62294,6.935636578320591,0.1439541983147504
17.627536000000006,6.946986334182727,0.1435941121122219
17.63212800000001,6.955559743436401,0.14332181032039
17.636716000000007,6.970307009109465,0.1429722030763663
17.64130800000001,6.98726383926889,0.1426191687647577
17.645888,7.003609745857586,0.1423043439790189
17.65048,7.024985704989732,0.1419432330715577
17.655076000000008,7.046894544427089,0.1415960889450689
17.659664000000006,7.069047753292738,0.1412394290626614
17.664271999999997,7.09197821189189,0.1408818952071048
17.66886000000001,7.123247949948163,0.1404125933846638
17.673463999999996,7.155294937737937,0.1399436972846388
17.678060000000002,7.194537401108895,0.1393880694922306
17.682648,7.236355983108652,0.1388116156934958
17.687244000000007,7.279973434003702,0.1382232862304803
17.691832000000005,7.326044818813407,0.1376257051406905
17.696427999999997,7.378900983613227,0.1369225320788302
17.701003999999998,7.431512778984756,0.1362455679065504
17.705604000000008,7.482858585766202,0.1356054875976794
17.710192000000006,7.5303622853287635,0.1350280208254779
17.714792000000003,7.580031407929058,0.1344161338074802
17.719384000000005,7.633131942157171,0.1337375237026208
17.723979999999997,7.685699596080072,0.1330462953148961
17.728572,7.733237197459524,0.1324000830910615
17.733168000000006,7.7798312229427,0.1317341906609161
17.737764,7.828057791158398,0.1310198542124586
17.742356,7.871865230401374,0.1303192125066269
17.746944,7.913463105157989,0.1296241187460421
17.751540000000006,7.950275296799446,0.1289574438481614
17.756128000000004,7.9857773584021885,0.1282880447732251
17.760723999999996,8.01150782579495,0.1277215113665456
17.765308000000005,8.036050347863146,0.1271445184288133
17.76988800000001,8.05388613320674,0.1266180263672909
17.774479999999997,8.06681405072103,0.1261211365120911
17.77906800000001,8.073812481244223,0.1256695108777533
17.783659999999998,8.075903043938112,0.1252471063051677
17.788240000000002,8.076683476593287,0.1248190337524406
17.792832000000004,8.073455475866806,0.1244094338865334
17.797424000000007,8.070427703119988,0.1239515028758479
17.802012000000005,8.06735578892454,0.1234571867287315
17.80662000000001,8.060930506366795,0.1229852671986188
17.811208000000008,8.053972343503837,0.122505212940596
17.815796000000006,8.05236664587814,0.1219424023809866
17.820392,8.051782567414236,0.1213639011447133
17.824979999999996,8.05095411952204,0.1207999562776241
17.829576000000003,8.049226237182197,0.1202451566984126
17.834168000000005,8.045743627395684,0.1197404966923468
17.838760000000008,8.04201664818088,0.1192475314961681
17.843339999999998,8.039111060148208,0.1187869475952159
17.847932,8.037637786868395,0.1183306726949901
17.85252,8.040539501112674,0.1178404704146069
17.85712000000001,8.04295247650037,0.11737589160684
17.861716,8.04859663553622,0.1168985703439166
17.866315999999998,8.06017028156317,0.116387553727944
17.870908,8.07677398013357,0.1158505217709
17.875500000000002,8.09840773124742,0.1152896509791298
17.880108000000007,8.116732255447598,0.1147829871955524
17.884704,8.139065213029431,0.1142656756982368
17.889308,8.163118996241044,0.1137794176748322
17.893900000000002,8.190037408958375,0.1133041054370074
17.898488,8.22006482060971,0.1128274125676336
17.903084000000007,8.246416451204942,0.1124227785548129
17.907672000000005,8.268192866296415,0.1120985188535739
17.912260000000003,8.292301030588394,0.1117729494489358
17.916848,8.317963694347378,0.1114490968730236
17.921440000000004,8.346324661449307,0.1111085678975893
17.926035999999996,8.381592593255496,0.110695177934911
17.930628,8.421724251442363,0.1102356878904237
17.935224000000005,8.46606457099055,0.1097235719842278
17.93980400000001,8.511426509700529,0.1092054776212271
17.944388000000004,8.55870950201995,0.1086751151895278
17.948976000000002,8.606891928787018,0.1081409084766661
17.953564,8.658017028325322,0.1075835813419177
17.958160000000007,8.707587628396622,0.1070352197561477
17.962748000000005,8.756380978734418,0.1064937319633095
17.967336000000003,8.800144276528766,0.1059754713211848
17.97193200000001,8.85465664624626,0.1053638202723324
17.976520000000008,8.903117344258511,0.1047822854907958
17.981116,8.949490662498544,0.1041950149419224
17.985704,8.99046737405269,0.1036425420146848
17.990296,9.029112336406332,0.1030946005606058
17.99488000000001,9.068490407044846,0.1025135847964925
17.999480000000005,9.109378835701737,0.1019022191397794
18.004068000000004,9.15075600321521,0.1012746443635396
18.008668,9.190700855975823,0.1006475604635466
18.01325200000001,9.227703035965204,0.1000516397527918
18.017840000000007,9.261762543183348,0.099489840616424
18.022428000000005,9.294678246525551,0.0989509058362832
18.027024,9.326694515420112,0.0984225027996569
18.031624000000008,9.356134665685872,0.0979074200516194
18.03622,9.38455319678984,0.0974071252780369
18.040812000000003,9.412971727893806,0.0969089609157818
18.045396,9.436648717331243,0.0964476847720738
18.049988,9.456361414835651,0.0960212827351146
18.054576,9.475296862606555,0.0955970657119087
18.059156,9.501061231816209,0.095154666913549
18.063748000000004,9.51223442188383,0.0948272487918632
18.068344,9.529825837799134,0.0944641276026971
18.072924,9.549216122609732,0.094094487751009
18.077516000000003,9.577312241019891,0.0936635920143894
18.082108000000005,9.607207228325343,0.0932268078988143
18.086692,9.640577768707244,0.0927810425167138
18.09128800000001,9.672682320499058,0.0923562644152747
18.095872,9.702743633967287,0.0919522294600639
18.10046,9.72961790523599,0.0915806271761725
18.105056000000005,9.75685873064713,0.0911957093949893
18.109652,9.77960238382003,0.0908315214731889
18.114256,9.80001428779242,0.0904673965886992
18.118836,9.819648942031312,0.0901049087016692
18.12344,9.838384161822551,0.0897469904012057
18.128024,9.854665447699144,0.0893923915275305
18.132624000000007,9.87143547243232,0.0890204867926083
18.137204,9.889349301041433,0.0886356890457403
18.141800000000003,9.91069454127836,0.0882118961223895
18.14639200000001,9.927542609277053,0.0878063414702098
18.150988,9.934863452494056,0.0874278406038145
18.15558,9.950235064291256,0.0869858409527195
18.160172000000003,9.96315274217381,0.0865477443779477
18.164756,9.972472682265767,0.0861248860580015
18.169352000000003,9.972798277881251,0.0857384611328015
18.173932000000008,9.969648320420289,0.0853613775872684
18.178516,9.965066048206468,0.0849786269781014
18.183108000000004,9.96223850343931,0.0845607375982821
18.187696000000003,9.95900026308109,0.0841275479296554
18.192276000000007,9.958416184617183,0.0836551179664809
18.19686,9.957177041133926,0.0831768238474955
18.201452000000003,9.959124939850188,0.0826699110212323
18.20604400000001,9.959273969671155,0.0821690775216341
18.210628,9.95762413059683,0.0816749229449787
18.215216,9.954541976769644,0.0811717346034661
18.219804,9.953503061266048,0.0806540197105047
18.224396,9.950665276867152,0.0801427911400822
18.228984,9.947538981591336,0.07961169660034
18.23357200000001,9.944290501601374,0.0790867508998352
18.238160000000008,9.947582432173242,0.0785336069518256
18.242752,9.95639315414514,0.0779585294794208
18.247348,9.961606138326449,0.0773954067352893
18.251924,9.967718556955402,0.0768313086600792
18.256524,9.978450332536742,0.0762515297682662
18.261104000000003,9.99265766119453,0.0756652878589424
18.265704,10.011606531518847,0.0750598619580466
18.270296,10.03031103241487,0.0744664537169511
18.27489200000001,10.048526794454313,0.0738941604002397
18.279476000000003,10.071117544017849,0.0733184616489577
18.284068000000005,10.09526279304839,0.0727505875322889
18.288660000000007,10.123660844888876,0.0721843844858075
18.293251999999995,10.151692342586928,0.071633368064992
18.297844,10.18499826225672,0.0710774085019853
18.302436,10.220225235535954,0.0705153254203809
18.307024,10.261503880520433,0.0699511742639521
18.311608000000007,10.29947329859124,0.0694160651038662
18.31620000000001,10.343083692776226,0.0688663168509409
18.320792,10.388659282019278,0.0683402275650022
18.325384,10.436033740157628,0.0678156829756727
18.32998000000001,10.48340819829598,0.0672973163200422
18.334576,10.532703710043773,0.066776748060194
18.339164,10.585474774868008,0.0662567141085405
18.34375200000001,10.636324786082804,0.0657469389655862
18.348336000000003,10.685498113116452,0.0652413967032539
18.352924,10.737614112921332,0.0647276846015768
18.357520000000008,10.78768687440263,0.0642300648311727
18.362108000000006,10.833140278931538,0.0637442145710926
18.366696000000005,10.877816433726943,0.0632585887743348
18.371292,10.915952177960529,0.0627928395346281
18.37588000000001,10.952289053298813,0.0623327866255762
18.380476,10.984128756398858,0.0618818593714464
18.38505600000001,11.016335013641338,0.0614207425105273
18.389656,11.0394247416932,0.0609756193069562
18.394244,11.059816166402111,0.0605349769852946
18.398844,11.075832603586932,0.0600980563504917
18.403424,11.091560529894837,0.0596412837082578
18.408024,11.094207635079089,0.0592138696154041
18.412616,11.092601937453388,0.0587833029962679
18.417212000000006,11.082779145084713,0.0583642811103881
18.42180400000001,11.064861442687212,0.0579521544429919
18.4264,11.040525514442026,0.0575491495680621
18.431004,11.010792979510953,0.0571497699678366
18.435600000000008,10.98106044457988,0.0567491263245175
18.440196,10.943521510496897,0.0563717606101547
18.444792000000007,10.899197796423795,0.0560139073248353
18.449380000000005,10.845513183731777,0.0556717451689082
18.453968000000003,10.791828571039758,0.0553262313328058
18.458556,10.732502982233564,0.054989323704266
18.46314,10.672155774265574,0.0546539903153829
18.467724000000004,10.60490160159332,0.0543400208792614
18.472316000000006,10.530984833645094,0.0540386605736611
18.47690800000001,10.45208215460205,0.0537527835187095
18.481496000000007,10.375755594187796,0.0534656437212561
18.48608800000001,10.298163045183465,0.0531879352196149
18.490684,10.217505638693751,0.052920545226491
18.495268,10.13815836224275,0.0526652268806691
18.499864,10.066661626392287,0.0524110484626017
18.504452,9.995819955561185,0.052161780480979
18.50904,9.929231087540026,0.0519156253539634
18.513636000000005,9.86280854568164,0.0516909957656989
18.518224000000004,9.793731841928944,0.0514940298157796
18.52281600000001,9.723144780157869,0.0513162397155566
18.527412,9.650514480063206,0.0511448481453753
