Time,Force,Position
15.11318,3.4986006028850785,0.1645795937299632
15.117764,3.753294836912224,0.1629028374252963
15.122352,3.997019291773082,0.1615845625380848
15.126936,4.233049292564436,0.1606238500584241
15.131519999999998,4.4682476625419225,0.1593782922662136
15.136108,4.693620057229061,0.1582187390138842
15.140719999999998,4.911331899663584,0.1569915912310402
15.145308,5.112266660654868,0.156023524535479
15.149892,5.305007989088327,0.1549647754743793
15.154484,5.486901723069643,0.1539845771338378
15.159068,5.661257089512491,0.1529683113830488
15.16366,5.832693445369256,0.1517967646545842
15.16824,5.992050120000682,0.1506402985459597
15.17284,6.131232203377942,0.1496553152639529
15.177423999999998,6.252527303252911,0.1487148227457345
15.182028,6.357201408215678,0.1477492907310319
15.186616,6.441578737210132,0.1468926906655085
15.191212,6.510078419208994,0.146115144611625
15.195796,6.56667498577703,0.1454543061797774
15.200388,6.622039465571873,0.1447329810007786
15.204975999999998,6.672041240497716,0.1439960770131724
15.209568,6.7168024952687055,0.143242643532536
15.214147999999998,6.755423795437198,0.1424766425403202
15.218732,6.783530153479096,0.1417583474094448
15.223323999999998,6.8003884611095256,0.1411449267100752
15.22792,6.811395325014375,0.1405468986195315
15.232496,6.814096811278992,0.1399861146557951
15.237096,6.814133896017553,0.1393640048645353
15.241688,6.805865603115883,0.1387776457686113
15.246275999999998,6.7899028561447095,0.1381830625591451
15.250868,6.761914809028565,0.1376803217277699
15.255456,6.717814985120277,0.1373505250832366
15.26006,6.664676675286882,0.1370958163384257
15.264644,6.6050759981571785,0.136889863412566
15.269232,6.5392573231594575,0.1367148158542184
15.273836,6.469796768922517,0.1365381574785755
15.278424,6.393996032103413,0.1364061612208539
15.283012,6.311077862968643,0.1363190648734785
15.287608,6.223862749575299,0.1362348777118554
15.292203999999998,6.135337506143242,0.1361303518531091
15.296808,6.047301001567766,0.135978971067443
15.301388,5.961185550601732,0.135769989141863
15.305979999999998,5.875192284349844,0.1355442185328086
15.31056,5.788666137792744,0.1353063195788964
15.315155999999998,5.701362741502142,0.1350679152929224
15.319736,5.614181529925684,0.1348134152716664
15.324336,5.528432633102083,0.1345530814612006
15.328928,5.4469365390884334,0.13422141282126
15.333524,5.36777219427529,0.1338655115482284
15.338107999999998,5.291883174558927,0.1335260392591997
15.3427,5.218736599634136,0.1331961515645138
15.347288,5.155117249491034,0.1327343030712447
15.351883999999998,5.0960392130348,0.1322481571047919
15.356472,5.04354572858902,0.1316895841819598
15.361059999999998,5.000090730068347,0.1310340613219475
15.365636,4.96093267580625,0.1303745389078485
15.370231999999998,4.930935292183405,0.1296119887017327
15.374824,4.906667167571995,0.1288493217319812
15.379412,4.892214778619195,0.1279914782606923
15.384,4.882714398944327,0.1271451564542264
15.388588,4.876000605509659,0.1263675252068233
15.39318,4.863611934143922,0.1258132616323849
15.397768,4.85809632566556,0.1252339603883458
15.402356,4.8621520834175165,0.1245887326686545
15.406952,4.8721814696092,0.1239336486485145
15.41154,4.890105537850051,0.1232386980887038
15.416135999999998,4.915924288140069,0.1225055254609304
15.420732,4.940687517451404,0.1219249166064839
15.42532,4.974000493831263,0.1213212662374813
15.42992,5.01467527195508,0.1206718515682858
15.434511999999998,5.061568047946914,0.1199979967133309
15.439116,5.109692910711944,0.1194151585362636
15.443696,5.163136336897343,0.118833013879744
15.448292,5.224596629846054,0.1182300505554114
15.452872,5.281892402882074,0.1177819684000165
15.457472,5.342707870443169,0.11735772012015
15.462063999999998,5.404100359758102,0.1170130458298298
15.46666,5.47154452077828,0.1166149832561607
15.471244,5.539810072980586,0.1162846871759936
15.475836,5.605665832716871,0.1160232098551279
15.480428,5.6749971455296,0.1157315592471116
15.485024,5.754466606694748,0.1152923273106239
15.489612,5.832670079269809,0.1149022369221967
15.494204,5.910751367130724,0.1145375344444752
15.498791999999998,5.98997645886758,0.1141563121653531
15.50338,6.065603812813844,0.113829066060569
15.507956,6.139676667293104,0.1135200799618678
15.512536,6.215382064504886,0.1131497327436756
15.517115999999998,6.283603475258564,0.1128368235029759
15.521696,6.345773214307,0.112582733277364
15.526288,6.409697680802102,0.1122742935341227
15.530884,6.471779136953282,0.1119404510711107
15.535467999999998,6.529319279417594,0.1116132066876799
15.540067999999998,6.576022067061503,0.1113558353646795
15.544656,6.627788809065753,0.1109740842818762
15.54926,6.676035856544929,0.110579254783159
15.553852,6.71908652531788,0.1101756596715974
15.558436,6.753998142613373,0.1098093736176824
15.56304,6.780892893145554,0.1094685058824673
15.567632,6.810153294695128,0.1090326386401002
15.572224,6.835894001719631,0.1085842021836069
15.576812,6.85361784198082,0.1081608222279758
15.581412,6.870520291059877,0.1076985447888638
15.585992,6.882881426452068,0.1072368718428958
15.590592,6.891356313176747,0.1067813293812309
15.595184,6.895944951233915,0.1063282856811761
15.59978,6.890884179795249,0.1059447294886655
15.604371999999998,6.885534897479662,0.1055342396922073
15.608968,6.879408365430574,0.1051228275870232
15.613556,6.870295019161623,0.1047040444053778
15.618147999999998,6.855907250920931,0.1043249262416726
15.62274,6.8402093526415255,0.1039315149038572
15.627332,6.819892097409735,0.10358063498863
15.63192,6.803050395254391,0.1032055335299567
15.636504,6.777869413641924,0.1029102889042631
15.641092,6.752932801457747,0.1025989222310203
15.645688,6.73057230790237,0.1022713274534468
15.65028,6.709766313813996,0.101941689013293
15.654868,6.693579676678008,0.1015664154933811
15.659456,6.674083812628347,0.1012482189675475
15.66404,6.652300340826806,0.1009719386927014
15.668632,6.636690725444658,0.1006514314039094
15.67322,6.617771883148837,0.100387357039154
15.6778,6.599630290586517,0.1001219511782251
15.682392,6.580755589739323,0.0998989091168844
15.686972,6.565112072540286,0.0996686787888658
15.69156,6.558340715103579,0.099374709529256
15.696155999999998,6.550958434096145,0.0991173990850095
15.700748,6.543864663965629,0.0988885414582972
15.705344,6.545032130026719,0.0986345288753078
15.709936,6.547509726126523,0.0983959073254118
15.714531999999998,6.551175267550892,0.0981800436059056
15.719112,6.563590784023449,0.0979110132025265
15.723712,6.574618127191775,0.0976782816897396
15.728304,6.594151075979998,0.0974073771502914
15.7329,6.614994154806934,0.0971544418732639
15.737492,6.641233840319757,0.0968668777954332
15.742083999999998,6.670949078909024,0.0965628714772341
15.746672,6.700053393927567,0.0962963971469412
15.751268,6.732511077308406,0.096020588695242
15.755855999999998,6.773308040146367,0.0956798283086834
15.760452,6.81463788328954,0.095361526601878
15.765031999999998,6.860709268099245,0.09500107051397
15.76962,6.909767467128812,0.0946558331487979
15.774207999999998,6.964711011700849,0.0942526732030656
15.7788,7.022352859615828,0.0938380974136581
15.783396,7.078195838635512,0.0934401688488053
15.787988,7.13506043681699,0.09303333110483
15.792576,7.197932565255083,0.0925640326554021
15.797152,7.256796260311521,0.0921048609548629
15.801744,7.315904324796248,0.0916358641404275
15.80634,7.377422181747001,0.0911307562227801
15.810928,7.435708855049598,0.0906356959911501
15.815532,7.497182570551723,0.0901036026193196
15.82012,7.556691090995777,0.0895587541499239
15.824708,7.6163217961539775,0.0890135941215798
15.8293,7.670800264054582,0.0884951007748828
15.833896,7.72294698275468,0.0879780213501446
15.838492,7.775826809739652,0.0874279018819265
15.843087999999998,7.826497072238262,0.0868723366663554
15.847687999999998,7.870094043869836,0.0863563075962473
15.85228,7.906739909348518,0.0858659685119364
15.856876,7.941953460074342,0.0853720955053162
15.861456,7.970582458789711,0.08488435244576
15.866056,7.988418244133307,0.0844489079650878
15.870648,7.998525673590507,0.0840345455385444
15.875248,8.008466776884934,0.0835903816802493
15.879832,8.013622197064203,0.0831414021767001
15.884428,8.011948695804726,0.0827093819540399
15.88902,8.004223522840006,0.0822918792397754
15.893612,7.990446678170041,0.0818886364134746
15.898204,7.96935217320475,0.0815221628980626
15.902796,7.9429832462677155,0.081171565063155
15.907384,7.908641594015995,0.0808486521099614
15.911967999999998,7.867104466183094,0.0805540235680807
15.916556,7.817838982463799,0.080273739457691
15.921148,7.763421261486908,0.0800006133331309
15.925728,7.707449041043013,0.079718954573997
15.930316,7.646979648360878,0.0794519230997272
15.934912,7.580214214545208,0.0792075845620307
15.9395,7.508052174043651,0.0789822056430493
15.944092,7.438177741293972,0.0787193321657703
15.948676,7.363806136306053,0.0784696064275656
15.953256,7.290578335194074,0.0781982367121329
15.957852,7.221192641300978,0.0778950656034174
15.96244,7.154749620179117,0.0775624076034722
15.967024,7.085363926286021,0.0772466370327206
15.971619999999998,7.018676535735868,0.0769132493339101
15.976208,6.950723156595632,0.0765971140062858
15.9808,6.887144764979487,0.0762643778221937
15.98538,6.829085164763376,0.0758988981952843
15.98998,6.77564492149965,0.0755045487276227
15.994568,6.72760128492181,0.0750853893185557
15.999168,6.684177005296356,0.0746372098557089
16.003752,6.647048766804437,0.0741605043464274
16.008344,6.614295515836613,0.0736672724516997
16.012936,6.5892706207551806,0.0731608533493051
16.017532,6.564778605978959,0.072668057484217
16.02212,6.542740525117391,0.0721750622004468
16.026716,6.528797354284653,0.0716497083861641
16.031308,6.523970712642539,0.0710833636273053
16.035899999999998,6.521231450772641,0.0705410066569744
16.040488,6.52106830753154,0.0699933223110124
16.045072,6.526057401548036,0.0694423700850657
16.04966,6.539141405593361,0.06886967695396
16.054256,6.556478212448635,0.0682996071214293
16.058848,6.579866691009151,0.0677269577370633
16.06344,6.602522061284794,0.0671941454562176
16.068032,6.632617276569912,0.0666300966456126
16.072612,6.665288610483826,0.0660686703196307
16.077192,6.698615009417097,0.0655220633474418
16.081788,6.730553235046138,0.0650056217487966
16.086376,6.761714210941676,0.0644893749184698
16.090984,6.794185316875928,0.0639968935653642
16.095572,6.825146064791804,0.0635416301382568
16.10016,6.862158484412924,0.0630886687836626
16.104756,6.895573166243452,0.0626479153913463
16.109344,6.932829955292863,0.0621909692235697
16.11394,6.9766271549041,0.0617149543274303
16.11852,7.023244842572426,0.0612366396286726
16.123116,7.0658982383077245,0.0607887450832293
16.127696,7.110472687652464,0.0603362808480354
16.1323,7.157501070911856,0.0598946660823791
16.136888,7.203507835009455,0.0594672966206611
16.141488,7.245794676602316,0.0590607657547165
16.14608,7.284239410976293,0.058675321970397
16.150672,7.318309157826178,0.0582947574489425
16.15526,7.357487000485031,0.0578817169618527
16.159856,7.392045486191498,0.0574855824074922
16.164444,7.425704537450317,0.0570942020977172
16.169036,7.46038520787093,0.0566998230098095
16.173616,7.49710911661513,0.0562931456997876
16.1782,7.535631894254625,0.0558890870171349
16.182788,7.573743976303055,0.0554657669955776
16.18738,7.611567547474567,0.0550159951953759
16.191964,7.645260500550274,0.0545588132615255
16.196552,7.680874507235425,0.0540966785880829
16.201152,7.71354584114934,0.0536524281233114
16.20574,7.73685627644434,0.0532349053702041
16.210332,7.751827432282217,0.0528363016882115
16.21492,7.767942391996034,0.0524265853514593
16.219508,7.776861876128668,0.0520210951748767
16.224104,7.780384753575414,0.0516180500447753
16.228692,7.775568351565039,0.0512282101644473
16.233296,7.76216830066925,0.0508624029632112
