Time,Force,Position
15.090263999999998,4.399383693188071,0.1488669483842136
15.094843999999998,4.55326253494642,0.1486816393144735
15.099428,4.696982749088872,0.1482552948161086
15.104012,4.823881740339457,0.1478454998914516
15.1086,4.936701953489749,0.14744680078905
15.113208,5.043782667996864,0.1468789602914498
15.117784,5.140670853071197,0.1463022289838429
15.122376,5.227610878141037,0.1457022754216845
15.126972,5.302148809291729,0.1450956141646598
15.131567999999998,5.3668166237034445,0.1443888176730657
15.136164,5.418916018033243,0.1436531679703006
15.140743999999998,5.457181003691037,0.1429222416689506
15.145336,5.488118089421764,0.1421945978456677
15.149924,5.519666098723219,0.1414385236685678
15.154524,5.547171772826125,0.1408427747057708
15.159108,5.571368220015363,0.1403460487816699
15.163708,5.600716904462194,0.1397827211444096
15.168292,5.634196207004827,0.1391773783412411
15.172876,5.670618182318698,0.1385222603882732
15.177452,5.702176431251891,0.137966232578974
15.18204,5.734511929918585,0.1374096204218655
15.186632,5.770567351090017,0.1368002089269844
15.191232,5.807644391423244,0.1361783088214509
15.195819999999998,5.845743050918264,0.1355316797517917
15.200412,5.886373687593451,0.1348062026719424
15.204992,5.921852087011047,0.1341580342700453
15.209584,5.954343672208776,0.1335188490521463
15.21418,5.9816830201489095,0.1329411887741487
15.218768,6.010532726107422,0.1323089492716537
15.223351999999998,6.038072302027221,0.1316748804786737
15.227944,6.059804575670066,0.1310971135218527
15.232536,6.081492707864285,0.1304721233597583
15.237123999999998,6.094675234438605,0.1299426782461432
15.241699999999998,6.102539197592557,0.1294371077980878
15.246304,6.111258453745526,0.1288716566450461
15.250892,6.115069842069192,0.1283403923457162
15.25548,6.117448915640002,0.1278109938736717
15.260075999999998,6.113121252486211,0.1273417540647582
15.264664,6.102741917627175,0.1269399136740085
15.26926,6.093584429909598,0.1264493160220108
15.273848,6.080540693524508,0.1259747646704026
15.278444,6.06156747014832,0.125557751251036
15.283024,6.037197640086245,0.1252092870769777
15.287624,6.0151154177760455,0.1248004164976244
15.292208,5.991234326570551,0.1244121203093275
15.296808,5.9641220517169,0.1240409764538626
15.3014,5.939053015186837,0.1236272370012802
15.305988,5.915494336675151,0.1231561234106121
15.310575999999998,5.890258973982314,0.1226968166616379
15.315168,5.865023611289478,0.1222342626414976
15.319748,5.841464932777792,0.1217541283746537
15.324344,5.821137437914261,0.1212537348280279
15.328924,5.803386061679526,0.1207256127837662
15.333507999999998,5.781059469941036,0.1203077250552397
15.338092,5.7586106934884,0.1198963000450699
15.342688,5.74719949983583,0.1193350761129097
15.347272,5.734155763450736,0.1188351341556219
15.351852,5.730761436561479,0.1182338544469193
15.356436,5.726756186101493,0.1176710108284776
15.361028,5.726637184309018,0.1170994646816841
15.365603999999998,5.727828312555257,0.1165381014931495
15.370216,5.732128439735503,0.1159696846639171
15.374804,5.738515946687965,0.1154083289301633
15.379396,5.746868648698499,0.1148738174031868
15.383988,5.756287111319455,0.1143709618302936
15.388588,5.770246887627278,0.1138653356719577
15.39318,5.7870712934408175,0.113375355518906
15.397772,5.810235881836522,0.1128702168256634
15.402364,5.838308338061529,0.1123467709815559
15.406944,5.8670800007545205,0.1118829400378829
15.411544,5.897816858505583,0.1114398356804349
15.41612,5.928842227133565,0.1110380435904218
15.42072,5.962732225267263,0.1106499607388441
15.425304,6.010602478972262,0.1100959620019521
15.429896,6.059171939145246,0.1095990247717414
15.4345,6.101122945490887,0.1092473650565219
15.439092,6.147326754646476,0.1088700781782741
15.443687999999998,6.188955348298308,0.1085987584742351
15.448284,6.233815125598292,0.108311931233534
15.452872,6.278063979327549,0.1080701610982479
15.457463999999998,6.332450981409225,0.1077284498657639
15.462044,6.386715798776755,0.107400007839795
15.466635999999998,6.448542645867903,0.1069895565740576
15.471224,6.508570624063757,0.1066052030755728
15.475815999999998,6.568598602259611,0.106221873571641
15.480408,6.627727146007816,0.105848948990559
15.484987999999998,6.6873444286126045,0.1054575071313616
15.489584,6.741809473959796,0.1051053731585717
15.49416,6.790877912621101,0.1048048114019509
15.498739999999998,6.840801644281427,0.1044578929378542
15.503336,6.895300591445509,0.1040323176575139
15.507924,6.944114421046784,0.1036255299226565
15.512515999999998,6.992473413608366,0.1031621775410318
15.517108,7.02734088945523,0.1028133477771923
15.521708,7.061875712976546,0.1023970509853703
15.5263,7.09763238363932,0.1019117798190173
15.530891999999998,7.130768794224665,0.1014049312080397
15.535491999999998,7.163450367770319,0.1008368225906847
15.54008,7.198375407619225,0.1001915792947728
15.544671999999998,7.229247872637844,0.0995130101521531
15.549252,7.244419256455385,0.0989299716517909
15.55384,7.256726010767208,0.098333340935213
15.558424,7.258850475277986,0.0977821182062448
15.563012,7.2563114413877505,0.0972272519256517
15.5676,7.252295951296028,0.0966233758051983
15.572184,7.246804005002819,0.0959702944314935
15.576776,7.233583702823216,0.0953509414968652
15.581376,7.218764759727981,0.0946867151288926
15.585964,7.202880056022324,0.0939908010330538
15.590547999999998,7.182864734220866,0.0933027506916878
15.595136,7.151156764599984,0.0926863620122092
15.599728,7.117894295512097,0.0920616711027937
15.604312,7.07911303502418,0.0914724182651635
15.608892,7.044540435897581,0.0908207397946589
15.613488,7.007269533428038,0.0901808419967853
15.618071999999998,6.969221381224994,0.0895357482354103
15.622652,6.925532252907771,0.0889302889354784
15.62726,6.881843124590547,0.088319367303141
15.631847999999998,6.832513020159146,0.0877476389149532
15.63644,6.782938546299453,0.0871818521402005
15.641023999999998,6.740681732735088,0.0865602216149623
15.645616,6.699202168904227,0.0859354335863281
15.650212,6.662874842330961,0.0852888351369841
15.654804,6.630678133853498,0.0846338319990549
15.659408,6.604410912367133,0.0839650721393246
15.663988,6.579209451491187,0.0833247510931554
15.668588,6.558138608711045,0.0826772256395565
15.673164,6.53854422213239,0.0820812691877326
15.677768,6.518993977002364,0.0815248685943648
15.682356,6.499487873320963,0.081008451808832
15.686956,6.489386809707108,0.0804661864520463
15.69154,6.4879135364272935,0.07990000486936
15.696136,6.494823684053232,0.0793251914740729
15.700727999999998,6.506519514794327,0.0787642139215818
15.70532,6.526965320583609,0.0781816583661136
15.709908,6.549498506145106,0.077624390721257
15.7145,6.585401023707175,0.0770205119763477
15.719079999999998,6.624168170774961,0.0764468819671387
15.723672,6.670419304300851,0.0758767318735392
15.72826,6.721456120941899,0.0753211987595852
15.732851999999998,6.776134816822166,0.0748026490062498
15.737444,6.835188500226527,0.0742813247533453
15.742024,6.897595551993189,0.0737701691599836
15.74662,6.959758234331559,0.0732777647077791
15.751196,7.015791201699168,0.0728506311515278
15.755792,7.077465145180955,0.0724014561907437
15.760376,7.142859011167481,0.0719414659526044
15.764964,7.210540484905882,0.0714547275401994
15.769555999999998,7.284229488900902,0.0709241184678734
15.774144,7.362782219276596,0.0703631570380361
15.778731999999998,7.439658265471141,0.0698096275410057
15.783331999999998,7.509993901103859,0.0692940513604687
15.787924,7.576487429517694,0.0688083172222556
15.792516,7.63733998181735,0.0683564862392005
15.797104,7.688587266069799,0.067966235239194
15.801704,7.736236812531659,0.0675880041114926
15.806292,7.770272657564653,0.0672572422788502
15.810892,7.800177884501847,0.0669228230525454
15.815476,7.825175243609736,0.0665825478248536
15.820076,7.845797615193531,0.0662490549820664
15.824668,7.859713250052726,0.0659119379694878
15.829259999999998,7.866311224616592,0.0655991285825797
15.833848,7.860194932199241,0.065321146812335
15.83844,7.850847456133738,0.0650334867045779
15.843028,7.839412600296018,0.0647211695831866
15.847624,7.816817976944088,0.0644504309743166
15.852211999999998,7.785106824401534,0.0642039175690521
15.8568,7.750042303496678,0.0639513520783709
15.861387999999998,7.71060279506773,0.0637002149921125
15.865987999999998,7.666133234095332,0.0634399292607882
15.870576,7.617655239741278,0.0631613891931462
15.875172,7.56786711534851,0.0628596395671092
15.879763999999998,7.513293307840583,0.0625358664194807
15.884348,7.453689447789207,0.0622001231415013
15.888944,7.3917538385373245,0.0618476538555106
15.893524,7.329407533694376,0.0614678494396264
15.898115999999998,7.270658966642019,0.0610763986698744
15.902711999999998,7.208967726818426,0.0606966175129512
15.9073,7.143312195061807,0.0603359006459109
15.9119,7.077001598285831,0.0599598169806127
15.916476,7.010691001509854,0.0595776034277664
15.921056,6.942214981696145,0.0592118995248472
15.925648,6.882977675787205,0.0588133019976392
15.930228,6.822474381288182,0.0584289830508609
15.934824,6.762626151808514,0.0580493986298709
15.939412,6.707397279281231,0.0576514969406222
15.944012,6.659608251763423,0.0572250966772504
15.9486,6.613129354284327,0.0568179139319101
15.953195999999998,6.567061152396296,0.0564317772991513
15.95778,6.524101949442274,0.0560629838152385
15.962376,6.486950048765204,0.0557086447359206
15.966967999999998,6.45662706952688,0.0553635108391904
15.97156,6.435298434765035,0.0550070664858184
15.97616,6.425662447822612,0.0546379810896895
15.980752,6.4232219364613705,0.0542602268342091
15.98534,6.425444923501143,0.0539160303131723
15.989928,6.4319207133508645,0.0535814959224818
15.994523999999998,6.446613597943561,0.0532343284163097
15.999108,6.470423011726882,0.052874960394641
16.003695999999998,6.498485228320151,0.0525261786413218
16.008288,6.533620735780456,0.0521821643225407
16.012884,6.583758117973857,0.0518017311095453
16.017471999999998,6.638392672405496,0.0514266870193039
16.022064,6.70496424408485,0.0510392393629566
16.026652,6.778609106631239,0.0506587900232748
16.031244,6.855607337539929,0.0502928689071582
16.035832,6.931994644877891,0.0499630521426136
16.04042,7.010835886130505,0.0496471327859244
16.045028,7.089432757954828,0.0493447749978728
16.049616,7.169828498674447,0.0490463963859468
16.05422,7.249613315823336,0.0487809932287082
16.058812,7.32759926407693,0.048520995335162
16.063404,7.398556062912116,0.0483012318947373
16.068008,7.460684843433596,0.0481198762389736
16.072596,7.522813623955076,0.0479425898259359
16.077188,7.583387905009553,0.0477559202617625
16.081768,7.642285501882878,0.0475661055109217
16.086364,7.698484795413259,0.0473804012203267
16.090948,7.750064731991257,0.047203604150916
16.095548,7.800745234121608,0.0470290365701353
16.100132,7.842964272080689,0.0468719485401632
16.104724,7.869404185573175,0.046737522117616
16.109316,7.8853393965708065,0.0466298269999507
16.113912,7.886150548121197,0.0465529615694519
16.11852,7.878622420214467,0.0464855778665065
16.123112,7.864920435888346,0.0464111314851357
16.127716,7.844022975981046,0.0463347100043519
16.132312,7.815030606044911,0.0462561585722608
16.1369,7.784483736641775,0.0461654976150444
16.141496,7.744698153333867,0.0460826822529572
16.146076,7.696162594977773,0.0459864949888526
16.150668,7.640309376326352,0.0458923020259414
16.155255999999998,7.582002223760275,0.0457850199466453
16.159852,7.523284375603135,0.0456534771903003
16.164444,7.454961259398787,0.0455463982685789
16.169031999999998,7.377277244575524,0.0454520423206238
16.173624,7.289987961705055,0.0453837729444064
16.178216,7.197834952453908,0.0453292588897984
16.182807999999998,7.099141532640937,0.0452820916381539
16.187396,6.994929321427931,0.0452358275644218
16.191988,6.887896622157837,0.0451942742328194
