Time,Force,Position
15.278872,2.8575725685783557,0.1645598795165429
15.283459999999998,3.035644674604265,0.1635024925421223
15.288059999999998,3.2026248167497418,0.1624126646026267
15.292635999999998,3.3659528400242604,0.1609948522970854
15.29722,3.516634399951342,0.1598213289763212
15.301811999999998,3.655490887713117,0.1589031711147412
15.306403999999995,3.78746407295578,0.1578249299986152
15.310992,3.9137419010038967,0.1567492646849891
15.315587999999998,4.034446556571615,0.155565965725198
15.320176,4.1479013554777815,0.1543562157354391
15.324772,4.255005732170048,0.1530964993130601
15.329348,4.3519175794295295,0.151871309835361
15.333944,4.442601189189254,0.1505534227023866
15.338535999999998,4.519127977583166,0.1494218479665622
15.343135999999998,4.590325962924969,0.1481302322167237
15.347715999999998,4.656195145214664,0.1467349039777544
15.352315999999998,4.704231725082436,0.1456753388025984
15.3569,4.746338817959111,0.1447525248122672
15.361496,4.78890074787548,0.1439211990461325
15.366083999999995,4.834816046154147,0.1430646234352887
15.37068,4.87664486778564,0.1423509724052743
15.375276,4.923015003104002,0.1416297737912296
15.379876,4.977480048451194,0.1407647606599693
15.384467999999998,5.031578539655949,0.1399542268369664
15.389059999999995,5.089685464242361,0.13910986951213
15.393652,5.1546993535330365,0.1381179174374086
15.398235999999995,5.217181265643543,0.1372256021082538
15.402828,5.272878397763931,0.1365006696331262
15.407419999999998,5.32461123795129,0.1358769973740143
15.412015999999998,5.37327922065327,0.1353414088446654
15.416608,5.420436845336872,0.1348874620068224
15.4212,5.473113261420509,0.1343515462745202
15.425791999999998,5.526689111951792,0.1338237137466699
15.430387999999995,5.582430385520808,0.1332450244954308
15.434971999999998,5.640092712699265,0.1326420815117497
15.439556,5.69391293265884,0.1321259595375084
15.444147999999998,5.752963433141528,0.1315008673413432
15.448728,5.812502672480799,0.130851191461341
15.453315999999996,5.873552269838447,0.1301469940183453
15.457919999999998,5.92830582606256,0.1295428609551943
15.462504,5.981382698105523,0.1289585886763493
15.467108,6.032250005662127,0.1283944242925901
15.471699999999998,6.078209445389424,0.1278830783426321
15.476295999999998,6.1231031245063,0.1273541212643079
15.480884,6.164232739669811,0.1268377256599147
15.48548,6.198655618108722,0.126392059065647
15.49006,6.236876462317888,0.1258421367108032
15.494664,6.278650902869016,0.1252024134543414
15.499243999999996,6.323323874742751,0.1244712247122499
15.503836,6.367053270720211,0.1237066495744773
15.508432,6.404686853543798,0.122957430692739
15.513023999999998,6.434059200175783,0.122278606534557
15.517619999999996,6.455581006207227,0.1216836271137962
15.522212,6.472561498551804,0.1210983377233381
15.526791999999997,6.485000677209513,0.1205238755554825
15.531384,6.493797976628001,0.1199434310632068
15.535964,6.492168616817153,0.1194643505678338
15.540564,6.483954704995851,0.119026418007541
15.545151999999998,6.470055675611741,0.1186183513394587
15.549743999999995,6.452514766988411,0.1182022179402735
15.554336,6.431209794411716,0.1177867428000894
15.558923999999998,6.398945282300471,0.1174547962018934
15.563516,6.360995652626423,0.1171521918758054
15.568103999999998,6.316339286227772,0.116896869803592
15.572688,6.270494974504556,0.1166160546923655
15.577275999999998,6.221830174724249,0.1163720147702652
15.58186,6.1681353224004924,0.1161569020002238
15.586447999999995,6.1092882328191385,0.1159810397381794
15.591044,6.046965590161339,0.1158272342618207
15.595631999999998,5.982844078608244,0.1156886086134025
15.600223999999995,5.920765805378736,0.1155075683335413
15.60482,5.860242031616233,0.1153179503705444
15.609423999999995,5.802905300053254,0.1150594917832287
15.614012,5.743158776024253,0.1148621208033041
15.618607999999998,5.684966751462255,0.1146531944731049
15.623196,5.629106476100767,0.1144359365760819
15.627796,5.581463295482252,0.1141133969212291
15.632383999999998,5.541015590444923,0.1137051403527392
15.636979999999998,5.507518991560484,0.113231174071929
15.641564,5.482772367724233,0.112673735105909
15.646155999999998,5.465754099774374,0.1120534787971237
15.650764,5.462271489987862,0.1113368221945631
15.655355999999998,5.466272866659453,0.1105750956546761
15.659944,5.479557098684441,0.1097530176926347
15.664535999999998,5.496361025234504,0.1089538555937146
15.669124,5.5170512004520775,0.1081470878778627
15.67372,5.538196212709344,0.1074122345045667
15.678311999999998,5.561961485044036,0.1067044693884848
15.682896,5.588224832742011,0.1060393455074953
15.687483999999998,5.618374429107495,0.1053715661117692
15.692068,5.653964773607494,0.1047079406182641
15.696651999999997,5.691764682593855,0.1040553630169834
15.70124,5.732062666943497,0.1034500867706956
15.705831999999996,5.781887876074826,0.1027729790164398
15.71042,5.831757226654784,0.1021509890442946
15.714996,5.886656629778192,0.1015106007010993
15.719607999999996,5.937758067131346,0.1009802853362162
15.724192,5.985960973161893,0.1005506840695032
15.728803999999997,6.03445239006936,0.1001653778023064
15.733391999999998,6.0805340145108016,0.0998463967712519
15.737979999999997,6.125471835076304,0.0995614645952625
15.742576,6.164890864241776,0.0993370500572771
15.747168,6.205087143140748,0.0991202287749226
15.751763999999998,6.24054188037319,0.0989604992697913
15.756339999999998,6.279960909538659,0.0987558913460465
15.760939999999998,6.321667546456009,0.0985109105526352
15.76552,6.3696260830582645,0.0981752590231384
15.77012,6.421016031288338,0.097778155213548
15.774711999999996,6.470318599746195,0.0973661280397957
15.779307999999997,6.519987722346491,0.096938145491837
15.783891999999998,6.565404042136837,0.0965355318816353
15.788483999999997,6.613230154393209,0.0960925070597747
15.793083999999997,6.6619115596486,0.0956072839359493
15.797676,6.705152216769475,0.09512432526278
15.802272,6.750269786051164,0.0945838949221666
15.806863999999996,6.789580053055901,0.0940632129283773
15.811456,6.828968363326156,0.0934922199206057
15.816039999999996,6.867779651842571,0.0928649793731702
15.820619999999998,6.902171811386264,0.0922226040779861
15.825215999999998,6.932922091690737,0.0915617813529706
15.829808,6.957498515575822,0.0909348276076847
15.834387999999995,6.979987559688691,0.0902889947380221
15.838984,6.996669301524609,0.0896583744734045
15.843567999999998,7.011508033016602,0.0889950111387043
15.848152,7.014776301403318,0.0883982523461323
15.852739999999995,7.014935570856025,0.0877986493514426
15.857328,7.007244299708193,0.0872349811863274
15.861923999999998,6.994400791302767,0.0866890392554524
15.866504,6.982046021753924,0.0861141611379116
15.871091999999996,6.96351739578569,0.0855658747973833
15.875695999999998,6.942779205331095,0.0850027522589175
15.880288,6.911125616790581,0.0845030740840688
15.884884,6.86651339184056,0.084089493061577
15.889471999999998,6.822800601338186,0.0836661095740304
15.894071999999998,6.773446834721634,0.0832813962034885
15.89866,6.722294199209787,0.0829018136681727
15.90326,6.668198890926704,0.0825462690123696
15.907847999999998,6.614636462948833,0.0822013531907498
15.912447999999998,6.5604631114002325,0.0818866936425197
15.917032,6.506944824870989,0.0815760391540408
15.921627999999998,6.458168080008275,0.0812248581686243
15.926216,6.413766322669657,0.0808537617327275
15.930808,6.367976392026807,0.0805117530409501
15.935399999999998,6.324151656442027,0.0801949404497544
15.939995999999995,6.287155842295992,0.0798603380082382
15.944584,6.251347973474523,0.0795494017616681
15.949179999999998,6.222124656663511,0.0792366693045103
15.953768,6.195765969358217,0.0789472152029368
15.958351999999998,6.17227191155864,0.0786818313343259
15.96294,6.156506209645455,0.0783986047398537
15.967536,6.14552619084743,0.0781249994046399
15.972127999999998,6.145627896298097,0.0778317688959995
15.976716,6.163840475415867,0.0774482825292462
15.981308,6.186716552934651,0.0770882211637468
15.985895999999997,6.215155563302096,0.0767421192356299
15.990488,6.251200744841788,0.0763903592676068
15.995084,6.295873716715523,0.076022867682675
15.999671999999997,6.342511883647327,0.0756888374247018
16.004284,6.397489330036254,0.0753137329561785
16.008871999999997,6.459173513149779,0.0749419931936348
16.013479999999998,6.523555999606248,0.0745691646799822
16.018072,6.587449747206135,0.0742296000147295
16.022675999999997,6.663402696767881,0.0738321871931269
16.027272,6.743852818567866,0.0734237729481681
16.031859999999998,6.827245613139085,0.0730000620940095
16.036464,6.911293472729662,0.0725908428482705
16.041055999999998,6.99276521369144,0.0721920575882292
16.045659999999998,7.080122300195688,0.0717588061250666
16.050244,7.166702136966436,0.0713295268759321
16.054848,7.250950224536675,0.0708990056120283
16.059427999999997,7.33172275903047,0.0704782568198842
16.064024,7.409630664018547,0.070039648988312
16.068607999999998,7.482386331749028,0.069620962076855
16.073207999999997,7.550234131650205,0.0692011143362367
16.077787999999998,7.618159974816899,0.0687418631632241
16.082379999999997,7.683099003763729,0.068270561400779
16.086972,7.742475099861899,0.0677881249194573
16.091555999999997,7.800252555044437,0.0672648984819739
16.096135999999998,7.848014046588702,0.0667786958273573
16.100728,7.889313170836657,0.0662809074156799
16.105303999999997,7.925215688398728,0.0658003640173024
16.109892,7.960052445350375,0.0652930296372362
16.114476,7.983074369768455,0.0648228759709811
16.119068,8.001432795785522,0.0643347153132243
16.123659999999997,8.014638984544995,0.0638492113083248
16.128239999999998,8.026002162960541,0.0633318319466076
16.13282,8.033356907994433,0.0628002391062768
16.137411999999998,8.028119570761252,0.0622929812048654
16.142,8.018507246003981,0.0617879081696644
16.1466,8.00631880261791,0.0612815060706417
16.151183999999997,7.993597478926628,0.060758251657538
16.155772,7.977156232730612,0.0602451733499058
16.160368,7.953519510953409,0.0597417954258002
16.164959999999997,7.926407236099762,0.05923527641397
16.169563999999998,7.890711312360702,0.0587591380096654
16.174139999999998,7.845410120574434,0.0583190575558665
16.178739999999998,7.800231113502312,0.0578690756244924
16.183324,7.750965629783017,0.0574417366734778
16.187924,7.703376830244871,0.0570137537211913
16.192508,7.654399857402496,0.0566051028411617
16.197108,7.602480211788885,0.0562063079616832
16.2017,7.551093446480484,0.0558210815227481
16.206291999999998,7.501627734781525,0.0554235415445708
16.210884,7.448730611454749,0.0550586486742368
16.215476,7.398531791470917,0.0546873715242186
16.220076,7.347844232630502,0.0543350041378157
16.224667999999998,7.302064541619391,0.0539977678142797
16.229256,7.261559272580022,0.0536570563495753
16.233836,7.222075622702445,0.0533061628358983
16.238424,7.184024287577727,0.0529688531055742
16.243011999999997,7.147405267205868,0.0526453023015758
16.247604,7.110419692691573,0.0523358224253998
16.252187999999997,7.075154943807055,0.0520687094301868
16.25678,7.045042432180133,0.0518078112095673
16.26136,7.02506806890563,0.0515279421020083
16.265936,7.02033994979251,0.0511986871500827
16.270532,7.012713299356784,0.0509217237387803
16.275115999999997,7.008440017283357,0.0506536666501374
16.279704,7.005965604105231,0.0503842879875262
16.284295999999998,7.007088928717692,0.0501130550163184
16.288895999999998,7.013486675301894,0.049844741440014
16.293488,7.014121261057773,0.0495949931447524
16.298067999999997,7.014267107957068,0.0493681678668994
16.302671999999998,7.0169890734851625,0.0491452122982317
16.307256,7.014480758490143,0.0489590566466717
16.311856,7.007885966847951,0.0487966706489007
16.31644,6.995772383805723,0.0486409442195466
16.32104,6.980349573849826,0.0485153700082131
