Time,Force,Position
14.3261,3.3816876590658342,0.173877498676097
14.330688,3.595523492464586,0.1706480518542594
14.335287999999998,3.7969572319441895,0.1680609158849586
14.339864,3.986277388381569,0.1660711049160578
14.344452,4.162051647023864,0.1644568676488472
14.349048,4.317739597309247,0.1635798181017926
14.353636000000002,4.468220929256669,0.16252096745256
14.358244,4.6101422745038265,0.1614484091940166
14.362832,4.741704764155427,0.1603902209474062
14.367436,4.859432845135023,0.1594118645052828
14.372032,4.959440268775104,0.1586087434888938
14.37662,5.045324772866262,0.1578292031307661
14.381212,5.119129595732081,0.1570085455573137
14.385804,5.175991010991888,0.1563237077933601
14.390396,5.213499226179658,0.1558221958638382
14.394984,5.237750054449264,0.1554345397497931
14.399588,5.256027254279141,0.1550957986201067
14.404176,5.273971801783472,0.154666728520352
14.408776,5.291173001371189,0.15412597788519
14.41336,5.302278387805037,0.1536353952035431
14.41796,5.304711842456213,0.1532401655310261
14.42254,5.296674496429423,0.1529820817061099
14.427136,5.2896146281158,0.1526390669481315
14.431736,5.280545423295477,0.1522308910108219
14.436328,5.271143566149606,0.1517309328190981
14.440920000000002,5.260387437516394,0.1511667132600186
14.445512,5.247499787662338,0.1505492407629045
14.4501,5.227372520778472,0.1500135007864279
14.454684,5.203603374655386,0.1494886520699337
14.459272,5.177869033474232,0.1489497881606309
14.463864,5.151479627273719,0.1484030594735583
14.46846,5.128399447986879,0.1477447689243753
14.473052,5.101965900337737,0.1471300769909169
14.477644000000002,5.0693584962692055,0.1466227944776215
14.482224,5.040182503828491,0.1459931026022768
14.486816,5.01178376112128,0.1453517893485935
14.491404,4.983385018414068,0.1447053006638876
14.495992,4.952943037383268,0.1441086643877162
14.5006,4.922378871638323,0.1435161426640464
14.505188,4.896311878131619,0.1428332738649415
14.509784,4.880138663549039,0.1419589030175665
14.514372000000002,4.863354525395732,0.1411312510169815
14.51896,4.845060029224048,0.1403722315238907
14.523556,4.827586924234495,0.1396623181670804
14.528148000000002,4.807992537655838,0.1390730865599211
14.532752,4.789341726973456,0.1385221322049081
14.53734,4.769591253863762,0.1380660316949727
14.541936,4.756958213069734,0.1375431830149313
14.546512,4.750420985429578,0.1369842179159951
14.551100000000002,4.749979570943294,0.1363885701011734
14.555684,4.752280601248582,0.1358012222217504
14.560276000000002,4.753237599698269,0.1353366312006426
14.564868,4.76106766103533,0.1348353780863073
14.56946,4.777814023583352,0.134242074246923
14.574048,4.794893038456923,0.133750820419758
14.578648,4.812016194779122,0.1333241069875557
14.583236,4.835357348969337,0.1328638101296902
14.587832,4.86683755463701,0.1323318937717802
14.59242,4.897995347610876,0.1318926160873451
14.597004000000002,4.93369445427161,0.1314488745727239
14.601592,4.96469616071444,0.1311632671576315
14.606184,5.0013829847200775,0.1308275182885216
14.610776,5.042200426821518,0.1304558015326563
14.615364,5.089069540628203,0.1300176664451678
14.61996,5.146076802787304,0.1294160774806785
14.62454,5.209013551937503,0.128758516053932
14.629131999999998,5.272238811964621,0.1281352791936839
14.63372,5.335874767582804,0.1275509311043539
14.638308,5.399877277343426,0.1269593470436047
14.642904,5.465267960408277,0.1263343341866193
14.647488,5.533601316244363,0.1256648159968028
14.652080000000002,5.6023012262228855,0.124971186484758
14.656676,5.666870518105608,0.124322054660581
14.661276,5.729108060787822,0.1236982248434472
14.665868,5.79399976536435,0.1229996138429887
14.670456,5.856559720740374,0.1223113590725373
14.675048,5.913678927981883,0.1216562117738481
14.679636,5.963314148765288,0.1210727089429429
14.684232000000002,6.017402400338305,0.1203930347890818
14.68882,6.068626022405603,0.1197242493452955
14.69342,6.125568663852599,0.1189272719812491
14.698012,6.181445544689173,0.1181143422004993
14.702604,6.23535723046768,0.1172974217563753
14.707184000000002,6.281662745073936,0.1165523174148532
14.711776,6.31856321961265,0.1158981570383998
14.716368,6.349123511569199,0.1152736976001805
14.720960000000002,6.381027835381351,0.1145653296669825
14.725548,6.407980149915569,0.11383937793616
14.730136000000002,6.426060304687455,0.1132004819424665
14.734724,6.440132026077685,0.1125829511610578
14.73932,6.451461302676343,0.1119539262390631
14.743912000000002,6.459559395626846,0.1113368754173241
14.748504,6.467857716557013,0.1106593177754597
14.7531,6.471492539086167,0.1099880413173183
14.757676,6.469197874624222,0.1093573537590896
14.762272,6.467514133733007,0.1086866371492285
14.766852,6.462354839765346,0.1080384590823356
14.771440000000002,6.458339349673623,0.1073637742488292
14.776048,6.443897200352564,0.1067681420287351
14.780636,6.422259575450322,0.1062383333553271
14.785224,6.390850356338098,0.1057912114359915
14.789812,6.351834966053628,0.1053844776249202
14.7944,6.307422969083268,0.1050239667875365
14.798992000000002,6.262478091807699,0.104643855998618
14.803572,6.219332083427423,0.104242072584241
14.808168000000002,6.172466152542414,0.1038779539844631
14.812756,6.120980864705018,0.1035570753613178
14.817356,6.070028457172834,0.1032464898163098
14.821943999999998,6.02189653769774,0.1028999877693395
14.82654,5.973520248794353,0.1025643096703655
14.831124,5.918892060206059,0.1023329785668207
14.835719999999998,5.869005413284296,0.102036648760283
14.840312,5.821083961420602,0.1017573146149526
14.844908,5.779091996548008,0.1014400733288235
14.849504,5.738654531142416,0.1011184885957674
14.854104,5.698872130756183,0.1008005301441576
14.858696000000002,5.664241967627543,0.1004483375008384
14.863288,5.629611804498906,0.1000919013917262
14.867876,5.601033313075511,0.0996929996932098
14.872468,5.580671916395092,0.099213118143444
14.877047999999998,5.566650702296837,0.0987264680843639
14.88164,5.5628117779996265,0.0981877591137388
14.886232,5.565679590427017,0.0976201634544556
14.890812,5.57153421707427,0.097063042000935
14.895408,5.580620027369678,0.0965042271233584
14.899996000000002,5.60217573521801,0.0958549940282887
14.904592,5.628394941467355,0.0952112706070272
14.909184,5.657845331364854,0.0945656584094862
14.913772000000002,5.696045696310541,0.0938738791125703
14.918368,5.736333441028443,0.0932050138536971
14.922956,5.787658768546411,0.0924378922261801
14.927548000000002,5.840049856674799,0.0917209587800436
14.932132,5.889376087317808,0.0910527488720637
14.936724000000002,5.937436329370732,0.0904266341784373
14.94132,5.988483385643519,0.0898189679523958
14.945908,6.03994113750737,0.0892408870909602
14.950508,6.091931769676433,0.0886864211424775
14.955088,6.146787031351213,0.0881593182790921
14.959688,6.204629107245856,0.0876538493489914
14.964276000000002,6.262881878731565,0.0871868803197563
14.968876000000002,6.321379019645565,0.0867112844869805
14.973468,6.376034053340682,0.0862825223583208
14.97806,6.429789652588152,0.0858663140006974
14.982648,6.48276800210212,0.0854514633126097
14.987244,6.531904244397204,0.0850767930840219
14.991832,6.571801772787517,0.0847780995943717
14.996424,6.612965289767917,0.0844578225193861
15.001012,6.655516980052545,0.0841108701083927
15.005608,6.692794248365434,0.0837953195054499
15.010192,6.730682440249051,0.0834490848767086
15.014780000000002,6.76035353738969,0.0831567807419696
15.019368,6.783972962825088,0.0828847267781088
15.02396,6.8078367576887775,0.0825983860363271
15.028556000000002,6.8274477497425154,0.0823220950881556
15.033136,6.842273058681098,0.0820397288201286
15.037728,6.855543868152674,0.0817531605921872
15.042316,6.865583493976097,0.0814647161978863
15.046904,6.870715251970216,0.0811762316985466
15.0515,6.874003999620409,0.0808559378034218
15.05608,6.87009727168942,0.0805708883518708
15.060676,6.864513859577281,0.0802884503507353
15.065268,6.858764121302369,0.0799700914692504
15.069848,6.850804818541096,0.0796377299765566
15.07444,6.843212069922259,0.0792851271450009
15.07902,6.839050732931243,0.0788807161380234
15.083616,6.835133765368514,0.0784609741953139
15.088196,6.824676387243961,0.0780822797258538
15.092796,6.809233098024586,0.0777501971440241
15.09738,6.790069886300472,0.0774392411467697
15.101972,6.766409502338122,0.0771460747089167
15.106564,6.7474906600423,0.0768192972521189
15.111160000000002,6.731392305803568,0.076472899801824
15.115748,6.716315570726628,0.0761152265236041
15.120344,6.702793335116694,0.0757616119000464
15.124932,6.691847218135558,0.0754019443500513
15.129528,6.680246036135066,0.0750309206043841
15.134116,6.672486961353456,0.0746316808244732
15.138708,6.668203439648291,0.0742238837054599
15.143296,6.658689637420013,0.0738728727971107
15.147892,6.652240692677117,0.0734886165097395
15.152484,6.643748509610633,0.0731240250581007
15.157072,6.63272434936398,0.072806152324056
15.16166,6.620312015813096,0.0725175207881529
15.166244,6.608432562567422,0.0722456919253887
15.170840000000002,6.591322828798634,0.072030390755863
15.175428,6.578954636696379,0.071784571603375
15.180016000000002,6.571327986260654,0.0715079759586101
15.184608,6.568565062205604,0.0711955211925466
15.189196,6.569399875941146,0.0708697725983263
15.1938,6.574609677200781,0.0705353453579947
15.198384,6.5757330018132425,0.0702405551889986
15.202976,6.577877945587498,0.0699369407331074
15.207568000000002,6.581044508523547,0.0696246995617487
15.212148,6.589074797840271,0.0692800861266923
15.216752,6.601724444109381,0.0689186431852097
15.221332,6.617605274026646,0.0685670715420037
15.225928,6.632220115353825,0.0682408131526105
15.230512,6.64695714139515,0.067910019638154
15.235112,6.668478947426593,0.0675358009390483
15.239696,6.69155525292504,0.0671712330989757
15.244292000000002,6.71961746951831,0.0667708871003811
15.248888,6.752543412492255,0.0663407375553944
15.253484,6.791232516294524,0.0658803496205382
15.25808,6.831842673706235,0.0654140750052973
15.26268,6.878338176660416,0.064910332730113
15.267272000000002,6.919725583805628,0.0644530500866832
15.271864,6.964832913455579,0.0639884032784844
15.276452,7.008918623943735,0.0635390834458091
15.281036,7.055169757469624,0.0630732402072581
15.285624,7.098600402938424,0.0626225098716156
15.29022,7.147139144216193,0.0621344597600452
15.294812,7.195555700779815,0.0616575436011307
15.2994,7.244627322362794,0.0611961853985827
15.303996,7.287036348669799,0.060768226937012
15.308584,7.324703833310275,0.0603661685050874
15.313176,7.362493502664897,0.0599615825786605
15.317764,7.401304791181312,0.0595531235517111
15.32234,7.442037133307168,0.0591407884352056
15.326952,7.480848421823583,0.0587421926016885
15.33154,7.521702948663585,0.058333686972867
15.336128,7.560636421894146,0.0579391920591345
15.340712,7.597893210943557,0.0575460470612425
15.345300000000002,7.63143007748823,0.0571676634207746
15.349896,7.661247021528166,0.0568018756151459
15.354484,7.6864446086157185,0.0564493557311288
15.359084,7.712908184293354,0.0560782317734732
15.363672,7.732176284389808,0.0557177914708099
15.368272,7.74784664669567,0.0553622071735751
15.372852000000002,7.75967490178265,0.0550234293676883
15.377452000000002,7.773424210479071,0.0546781459181315
15.382044,7.782187608080671,0.0543602844849703
15.386636,7.789029952072829,0.0540500072881976
15.391216,7.791375123826747,0.0537433010439791
15.395808,7.798706206675486,0.0534111225850977
15.400412,7.801540117285987,0.053080650873947
15.405008,7.798322356191246,0.0527425899457815
15.409592,7.790607422858264,0.0524071590222545
15.414180000000002,7.773531590906367,0.0520922385515779
15.418768,7.750814782840291,0.0517898082030609
15.423348,7.720658129764741,0.0515008856961785
15.427944,7.68293944696557,0.0512294710528437
15.432536,7.638680353604576,0.0509691475978077
15.437128,7.586737045805814,0.0507318460221484
15.441716,7.5292749466070195,0.0504992874522423
15.446308000000002,7.470546858818141,0.050281998815121
15.450896,7.4098977174198195,0.050068035198689
15.455492,7.345939349107826,0.0498809720880768
15.460076,7.274174581643923,0.0497233685555935
15.464664,7.1994671414087845,0.049575495997958
15.469252,7.11449936810708,0.0494455651368933
15.473848,7.026955476176582,0.0493069858512174
15.478436,6.931971739236607,0.0491797408456752
