Time,Force,Position
19.85628,2.2687564324094245,0.1680419524803341
19.860872,2.381488362662457,0.1648743275797941
19.865468,2.4867702082742764,0.1621998091639319
19.870056,2.579738242864208,0.1602765451174168
20.003288,2.6864357977538007,0.1583554008828078
20.00788,2.68479301538954,0.1581754036748084
20.012476,2.690834447463045,0.1576326671099924
20.017064,2.698796933145992,0.1569838603344221
20.021648,2.700629703858177,0.1566766802732079
20.026236,2.7006636056750657,0.1564390585744705
20.030824,2.700575322777809,0.1562209014387098
20.035432,2.702163724061703,0.1559450510395844
20.040024,2.700687267860216,0.1558483925840055
20.044624,2.702397853858256,0.1555600878530117
20.04922,2.7039862551421496,0.155294831517493
20.053808,2.7017325492071604,0.1552144426962377
20.058412,2.701810592472678,0.1550876130642982
20.063,2.7030324396141348,0.1548867127316526
20.067596,2.708629274279685,0.1545274280518988
20.072176,2.7082185786886197,0.1544821431536157
20.076776,2.712305055335793,0.1542667515717661
20.081356,2.719989269773559,0.1539188627262307
20.08596,2.7278398103740984,0.1536566092497723
20.090552,2.7371226657274965,0.153379516343647
20.095152,2.7488594549955474,0.1530535050241072
20.099744,2.760762570426371,0.1528186384042222
20.10434,2.768579209210021,0.1527906871045084
20.108924,2.7811373896602016,0.1525721477906011
20.11352,2.799458730938706,0.152105217274808
20.118116,2.826119351674333,0.1513339539625835
20.122716,2.8582987638099926,0.1503828840542693
20.127308,2.8898231109262955,0.1494146799105637
20.1319,2.92494519583319,0.1483161165997686
20.136488,2.950994892998088,0.1476516574598554
20.141076,2.9770445901629863,0.1469965561062042
20.145668,3.0050153409373257,0.1462603910143822
20.15026,3.036295318625337,0.1453721568280461
20.154856,3.066553677151555,0.1445499397964753
20.159444,3.097833654839567,0.14370584807312
20.16404,3.1338551741941094,0.1426730667852122
20.168632,3.1633362829868257,0.1418914693280726
20.173224,3.190241273150744,0.1411913736070276
20.177808,3.216857752437742,0.1404355626816826
20.182396,3.2466612739242664,0.1395406301800885
20.187004,3.272744872906054,0.1387863311414315
20.191592,3.296496722687335,0.138063286331853
20.196188,3.323557799382288,0.1371844029544464
20.200784,3.345100084677208,0.1364870395213612
20.205372,3.366109489666917,0.1357877259875206
20.20996,3.380700668808946,0.1352916796211968
20.214552,3.390916860426881,0.1349088489552943
20.219156,3.4059967784254925,0.1343748883128797
20.223752,3.420543816118893,0.1338254359893759
20.228344,3.442120003230703,0.1330238834292361
20.232924,3.4629189406090104,0.1322341172935346
20.237524,3.482163378520314,0.1314606654837429
20.242112,3.4971991550702977,0.130862326827889
20.24672,3.510558247439131,0.1302928195090704
20.251312,3.518398548407932,0.1298661749591797
20.255908,3.526483218805024,0.1294172705483193
20.260492,3.537632746687496,0.1288599998639658
20.265088,3.5496817090176163,0.1282853220068245
20.269692,3.56442897469068,0.1276588265510829
20.274284,3.579542794506181,0.1270078086410745
20.278884,3.595922602911766,0.1262979864838642
20.283476,3.615900149107945,0.125518285797977
20.28806,3.6316690339428015,0.1248867653118787
20.292652,3.6502584068347472,0.1241819657382195
20.297244,3.664639118365374,0.1236252375159332
20.30184,3.679552710201212,0.1230888574578674
20.306428,3.694999182342261,0.1225785633336095
20.311016,3.7093018506073694,0.1221312109471147
20.315612,3.721561280548893,0.1217490783268677
20.320188,3.728179734376236,0.1215038756151656
20.324788,3.735697622651228,0.1212423632617998
20.329364,3.746568879288519,0.1209401442913403
20.333952,3.759972113105981,0.120525591974383
20.338556,3.772231543047503,0.1201510555821446
20.343144,3.788455264922054,0.1196617308440474
20.347744,3.803657367634811,0.1192114850144866
20.352336,3.8177156664716287,0.1188086719303467
20.356924,3.830752346146653,0.1184386936782233
20.36152,3.8427674066598847,0.1181075250449426
20.366108,3.848652752202355,0.1179557657944037
20.375304,3.8475869915919336,0.1179092688238679
20.379908,3.849586088466893,0.1177745412370996
20.384496,3.853750608379584,0.1175713216497246
20.389096,3.857382247987065,0.1173414172301699
20.393676,3.8586821383940384,0.1171189775253888
20.398272,3.856628660438712,0.1169353990952069
20.402864,3.850078010245147,0.1168347721178401
20.40746,3.8427501103180792,0.1167374192642011
20.412052000000003,3.84220699038113,0.116470271085245
20.416644,3.838188317367734,0.11625489485054
20.421232,3.8319600798679785,0.1160357953489134
20.425824,3.820990300701692,0.1159220807860015
20.430412,3.811164325411344,0.1157660449971715
20.439592,3.780352607316438,0.1156891166338799
20.444184,3.764474960320847,0.1156174197036933
20.448772,3.747164998572397,0.1155372942481361
20.453364,3.7263794837475017,0.1155065581750468
20.457956000000003,3.707881576674484,0.1153919494153782
20.462548,3.691959788230265,0.1152420862589892
20.46714,3.6786141184148433,0.1150560084961495
20.476312,3.6365543499084687,0.1150497544487908
20.480904,3.618344953712371,0.1149787367116153
20.485492,3.603078230287508,0.1148308025810024
20.490084,3.5906319949197343,0.1146193456283093
20.494664,3.583049485932637,0.1142844204470749
20.499252,3.5800863338979245,0.1138564157609332
20.503848,3.572381640196681,0.1135353858326672
20.508448,3.5689297493053864,0.1131632838913904
20.513044,3.560125393176832,0.1129616832187796
20.517624,3.552875536515282,0.1127546033887703
20.52222,3.5466472990155262,0.1125169380007754
20.526808000000003,3.547981091239389,0.1121130737004639
20.531408,3.5532791753962814,0.1116036862789674
20.535996,3.5552680326395016,0.1112095519110692
20.540596,3.560732442959168,0.1107682751847861
20.54518,3.5659524838505416,0.1103499823098224
20.549772,3.5727270242089206,0.1099287198208379
20.554364,3.5796237492814456,0.1094940631458735
20.558956,3.5879086476582005,0.1089921641199531
20.563560000000003,3.5958269918925185,0.1085289062386811
20.568156,3.6111851811363103,0.1079108802270912
20.572748,3.623600697608868,0.10738085956332
20.57734,3.6367934638149273,0.1068546660746062
20.581928,3.651540729487991,0.1063312791482649
20.586516,3.658481596009144,0.105989800450455
20.591104,3.6596593017019727,0.105775543539564
20.595696,3.6604704532523655,0.1056007993157163
20.600288,3.66177034365934,0.1053749269458799
20.604876,3.669977198770577,0.1049794385963828
20.60946,3.6802272922054016,0.1045293200412929
20.614040000000003,3.6950967425926113,0.1040069734286066
20.618632,3.705102466599144,0.1036025327408348
20.623216,3.71306495228209,0.103252149088338
20.627804,3.722049057126831,0.1028715719308838
20.632412,3.725392185857392,0.1025958869760878
20.637,3.732455237092689,0.1022539682038658
20.641592000000003,3.741028646346364,0.1018392327503772
20.646192,3.74984642502833,0.1014003525377865
20.650784,3.7591970840155073,0.1009935838938062
20.655376,3.770713166040416,0.1005239540256678
20.659956,3.779408760008237,0.1001096227112665
20.664552,3.7840178773288815,0.099792760375102
20.66914,3.7874831907735897,0.0995147701100716
20.67374,3.790415623913086,0.0992139228095434
20.678324,3.8000106523285537,0.0987888271712898
20.682924,3.815735395714783,0.0982181700674829
20.687516,3.832603942976951,0.0976082810862022
20.692112,3.8480843169348886,0.0970691282621874
20.696692,3.86458631005462,0.0965182039368097
20.701288,3.881987737622,0.0959642115196026
20.705884,3.892848754627552,0.0955174857068141
20.71048,3.9016665333095184,0.0951139280161296
20.715068,3.917146907267457,0.0946093928742263
20.719652,3.9374910076060714,0.0940245709136221
20.72424,3.9614328457352768,0.0933904276341152
20.72884,3.984597434130979,0.0927635221750305
20.733428,4.0072732836701,0.0921965219575862
20.73802,4.032403067123873,0.0916324218821555
20.742616,4.053035678339407,0.0911163490463829
20.747196,4.071747235945499,0.090633071220209
20.751788,4.086616686332708,0.090205638475913
20.756376,4.107615851690679,0.0896517170202209
20.760968,4.130780440086382,0.0890497507557191
20.765564,4.155866082091527,0.0884312106854053
20.770152,4.178131236039583,0.0878556522151796
20.774756,4.195166109464525,0.0873970277908508
20.779336,4.209502679546524,0.0869620135229237
20.783924,4.2221625654473725,0.0865337268737786
20.788528,4.233145767167071,0.0861191396529184
20.793116,4.241841361134893,0.0857681234119164
20.797708,4.252580193426299,0.0853775832029955
20.802288,4.266628252631378,0.0849063167236784
20.80688,4.27107104378925,0.084576010404558
20.81146,4.27167172772824,0.0843030580502546
20.816064,4.27533726915261,0.0839764786599876
20.820656,4.277203941681684,0.0836657951164122
20.825252,4.272530203648933,0.0834285044738641
20.829844,4.264380912539735,0.0832110606425575
20.83444,4.262649847278218,0.0829308528389513
20.839036,4.26206258589264,0.0826212417768992
20.843632,4.268504473925471,0.0821953126564092
20.848228,4.271881504472922,0.08182721618024
20.852828,4.274114731144433,0.081490465075332
20.85742,4.270340427559328,0.0812480038182218
20.862012,4.2702860464789625,0.0809691259651546
20.866604,4.273418707598121,0.0806276345369886
20.871188,4.283091779279107,0.0802206388471948
20.875776,4.292887035674237,0.0798021688034865
20.880372,4.300272499603346,0.0794503422705413
20.884964,4.308268887103181,0.079046218528984
20.889556,4.316143089888872,0.0786541133198216
20.894152,4.325571792141566,0.0782759568485748
20.89874,4.341785274384378,0.0778133212555882
20.903336,4.354401018836599,0.0773716579814699
20.907924,4.36419627523173,0.0769635795915268
20.912512,4.374890966074508,0.0765500265638197
20.917104,4.395845989983851,0.0760422097392861
20.921692,4.416678829179048,0.075544037022698
20.9263,4.433014496136006,0.0750807756101971
20.930888,4.45000522811232,0.0746355749977701
20.935476,4.465485602070258,0.0742542344762749
20.940072,4.479289291847045,0.0738728706989145
20.944672,4.490761232423326,0.0734780096257376
20.949264,4.506441834360927,0.0730108805758812
20.953852,4.52122300185088,0.0725562640635775
20.958452,4.539724091845571,0.0720821568179002
20.963032,4.553605824887876,0.0716468250968872
20.967632,4.568142622949538,0.0712262759110694
20.97222,4.583045975153637,0.0707747988738515
20.97682,4.59897094651953,0.0703132362853524
20.981412,4.613629929295337,0.0698847907046015
20.986008,4.625712793442346,0.0694645263936667
20.990604,4.633176300636971,0.0690773221533743
20.9952,4.6473024031075685,0.0686333081946912
20.999788,4.662327940025813,0.0681879317374123
21.004384,4.679274530553499,0.0677294032604118
21.008968,4.692090502985383,0.0672711949495544
21.013572,4.703229791236116,0.066808029904594
21.018164,4.71436907948685,0.0663442944542518
21.022752,4.72755160606117,0.0658602459177034
21.02734,4.737380764273191,0.065371927374613
21.031936,4.751829279437597,0.0648604259800091
21.036524,4.764889621297773,0.0643859139372703
21.0411,4.777705593729656,0.0639342372288618
21.045684,4.787168197799239,0.0634783814297718
21.050264,4.792133629630584,0.0630435548014086
21.05484,4.797998495909577,0.0626059564692866
21.059444,4.805373720206944,0.0621222717926369
21.064032,4.8147921828279,0.061616935136395
21.068616,4.82408846073471,0.061124687141102
21.073208,4.832974043050454,0.0605964257774029
21.077792,4.839816387042612,0.0600901086270187
21.082396000000003,4.8493570343777135,0.0595769536476191
21.086988,4.8541561400462845,0.0590955461037972
21.091588,4.8591996151431465,0.0585993641642277
21.096168,4.86142260218292,0.0581199605446261
21.100764,4.859559112575518,0.0576827301564032
21.105344,4.863336599082294,0.0572177000850057
21.10994,4.866092466427278,0.056761230568465
