Time,Force,Position
19.05964,2.056393984112057,0.1725921767915523
19.064224,2.1456389132755778,0.1723208471249851
19.068812,2.231075637037105,0.1722639867156669
19.073388,2.3168686753093297,0.1716463107846336
19.077988,2.399053736159225,0.1708834754279516
19.08258,2.469291540129668,0.1704511740166926
19.087168,2.53003602113531,0.1701911733923579
19.09176,2.589093578328064,0.1696329552542046
19.096336,2.643810049813613,0.1690423973703849
19.100916,2.702358388886307,0.1678998936838674
19.105512,2.753334458603642,0.1668665553144789
19.110104,2.7964938895373272,0.1659456359444029
19.114692,2.839110200534062,0.1647209807075229
19.119276,2.880650511288637,0.1631361733240346
19.123864,2.9106984022034537,0.1619350928720362
19.12846,2.9391917936512657,0.1607936922154788
19.133036,2.967196446242495,0.1597321845729954
19.137636,2.9945901752629958,0.1587466362658931
19.142224,3.0230055234452893,0.1576983177675006
19.146824,3.053341925237025,0.1565627686547602
19.151412,3.0767272208758687,0.1556502998028613
19.156012,3.098391690884934,0.1546995933515513
19.160596,3.112205620293461,0.1540267187213223
19.165188,3.121155823321311,0.1535978550650694
19.169776,3.1252422999684857,0.1533923393428055
19.174372,3.135091937443984,0.1529357824922917
19.17896,3.1500496707284498,0.1522297073721129
19.183552,3.1614096662223243,0.1516690747160267
19.188132,3.1703157278015466,0.1511692741973839
19.192724,3.1717819443712947,0.1509600097988213
19.197312,3.171571476759893,0.1507930211984484
19.201904,3.173648616900369,0.1504993294132421
19.2065,3.1712285848026065,0.1503527121725529
19.211088,3.166520944952965,0.1503283294928109
19.215684,3.1643452822834943,0.1501476404873779
19.22026,3.158938435965868,0.1500278461605534
19.22484,3.1558191974001204,0.1497857137283159
19.229432,3.1557648163197536,0.1494103550052208
19.23402,3.154033751058237,0.1490717257157245
19.238612,3.1496043824537763,0.1488157602024984
19.2432,3.152081978553579,0.1482765866622595
19.247792,3.154681759367528,0.1477221616274066
19.252388,3.1602242129527114,0.1470392389182571
19.25698,3.166377590108622,0.1462733317351041
19.261572,3.1748185750164124,0.1453770516124364
19.266152,3.17941745270532,0.1446366009281723
19.270748,3.179030419299405,0.1441059879443685
19.275336,3.176355778141612,0.1436961982586804
19.27994,3.1747027561456123,0.1432406974909499
19.284528,3.17202811498782,0.1428271876155953
19.289128,3.171274527439468,0.1423405722770575
19.293724,3.165002148491083,0.1420371523530175
19.298316,3.158485400114407,0.1417672684661302
19.302904,3.1533568250419624,0.1414008102790198
19.307496,3.1490054997030192,0.1410242123050493
19.31208,3.1448985437923684,0.1406101254339363
19.316676,3.1351506117675387,0.1403917884332132
19.32126,3.1243810605809155,0.140215889221531
19.325848,3.114633128556085,0.1399952507499375
19.330436,3.1086051190359925,0.1396481042683664
19.335032,3.1005338711923125,0.1393874012442317
19.339624,3.094139307529782,0.1390905752438489
19.344208,3.092364100819637,0.1386520411031155
19.348804,3.088834166662824,0.1383538294938494
19.353392,3.0850598630777197,0.1380884449373723
19.357984,3.08398386283556,0.1377498177227749
19.362572,3.0875272195457835,0.1372740681531666
19.36716,3.09437980316968,0.1366413949022739
19.371756,3.10393069013652,0.1359462583197229
19.37634,3.1173236843222427,0.1351247131063336
19.380936,3.1276518210225848,0.1344215538059581
19.385528,3.1458304983234666,0.133541389403917
19.390116,3.161066502853113,0.1327551756201424
19.394724,3.1750365187926746,0.1320502296054234
19.399324,3.1865967422662123,0.131474753208815
19.403916,3.201388149387904,0.1308564882109469
19.408504,3.222597782357276,0.1300572536105491
19.413108,3.246750088097885,0.1291732139420854
19.417684,3.274622316343229,0.1281982586460215
19.422284,3.2995518718173384,0.1273305362167382
19.426872,3.323337623415509,0.1265159935335643
19.431472,3.3422596486330027,0.1258586083413708
19.436056,3.3542747091462344,0.1254386264995986
19.440652,3.366656323801902,0.124966281674254
19.44524,3.380059557619364,0.1244606043985456
19.449832,3.38884343448444,0.1240794567048984
19.454432,3.393252323825423,0.1237943660825343
19.459032,3.3974168437381143,0.123543820782761
19.46362,3.3987608755937164,0.1233745291669025
19.468216,3.3972844193922302,0.123282833777857
19.472804,3.399772255123772,0.1230635623932581
19.477388,3.398007288045366,0.1229171477907197
19.481976,3.398163374576401,0.1227138709697775
19.486572,3.400118330002732,0.1224719652907505
19.491164,3.404360893180941,0.1221296544453037
19.518704,3.3670765681579877,0.1218783897679162
19.523312,3.3624911130224917,0.1218046847569867
19.5279,3.362114319248316,0.1215784259484934
19.532512,3.362636959921788,0.1213322941406939
19.5371,3.3599725583957336,0.1212042332960206
19.541692,3.361150264088562,0.1209668544469966
19.546284,3.362860850086601,0.1207533269277073
19.550872,3.363794186351139,0.1205454356410279
19.555476,3.3625620995779437,0.1204218691372168
19.560068,3.3630066969858974,0.1202738115964124
19.564672,3.3625518599462043,0.120146681118821
19.56926,3.36185265347822,0.1200497149586899
19.57386,3.364218304495615,0.1198509555021592
19.578448,3.3646629019035696,0.1197061314348806
19.583044,3.3666619987785285,0.1195557976378802
19.587632,3.372747572300661,0.1192749415317351
19.592232,3.3761348424798507,0.1190477386838669
19.596816,3.37952211265904,0.1188169305782218
19.601408,3.388794728380699,0.1184173049359168
19.606,3.3974564205316304,0.1180921802738681
19.610592,3.4044414285014115,0.1177896813985592
19.615192,3.4132253053664883,0.1174566492660489
19.619784,3.4206210089273337,0.1172017552067218
19.624364,3.4299377660976216,0.1169007447765578
19.628956,3.442441565467435,0.1164878712339048
19.633544,3.4547009954089574,0.1161083828132381
19.638144,3.4708025325693623,0.115634675674399
19.642732,3.4865375155873304,0.1152045849678751
19.647312,3.5023946833194444,0.1147500145394236
19.651904,3.516452982156262,0.1143307711161128
19.656492,3.530389096278934,0.1139316080730052
19.661088,3.543303591239813,0.1135618577717748
19.665668,3.5539304784488133,0.1132880437910979
19.670252,3.5666006039814007,0.1129555402620148
19.674852,3.575917361151688,0.1126656124578326
19.67944,3.5837237603035987,0.1124663381439849
19.684028,3.594472832226745,0.1121903231131462
19.68862,3.609308380797066,0.1117947788681612
19.693208,3.620424006862649,0.1114847480787123
19.697804,3.632805621518317,0.1111186095107849
19.702384,3.648007724231074,0.1106953612829342
19.70698,3.659489904439094,0.1103511850107383
19.711568,3.671993703808908,0.1099789666138792
19.716168,3.683353699302783,0.1096539516235367
19.720756,3.69549094453016,0.1093327666505043
19.725356,3.707628189757536,0.1090140742093623
19.72994,3.716167697194321,0.1087561249600751
19.734532,3.7259731932211912,0.10844618955111
19.739128,3.740886785057029,0.1080034632815022
19.74372,3.75682199605466,0.1075326330235983
19.74832,3.771613403176352,0.107103546619636
19.75292,3.7895918524975696,0.1065837472890021
19.757512,3.806915236799432,0.1060501101852813
19.762104,3.822195382777706,0.1055751626299666
19.766692,3.838008409061191,0.1051241218876294
19.77128,3.853166370325321,0.1046627185014913
19.775868,3.8689793966088057,0.1042194998621536
19.78046,3.8817275654069103,0.1038578499324771
19.785052,3.896274603100312,0.1034735989774705
19.789644,3.908123337450769,0.1031284400887487
19.794236,3.917151583744136,0.1028372504045226
19.798812,3.928223068361092,0.1024960623808054
19.803408,3.9405605415681295,0.1021098366984699
19.808004,3.952120765041668,0.1017255170378657
19.812592,3.962781554067559,0.1013581258356592
19.8172,3.9726650933599457,0.1009922765784326
19.821788,3.9833258823858353,0.1006257738680482
19.826376,3.990921813926345,0.1003319784857328
19.830972,3.997373941590914,0.1000804150846457
19.83556,4.008811980350307,0.0997301537291469
19.840156,4.020616573252136,0.0993447063278609
19.844748,4.02833468950679,0.0990524864789684
19.849348,4.037074424923239,0.0987373165501785
19.85394,4.042338607263242,0.098452057990266
19.85854,4.047192094012179,0.0981298701013582
19.863128,4.052945015208764,0.0977978174006104
19.867728,4.056366187204843,0.09746500213115
19.872308,4.0606867936485695,0.0971202370880641
19.876904,4.059488608692264,0.0968529142133491
19.881492,4.063031965402488,0.0965075219803588
19.886084,4.069273625455656,0.0961306928590157
19.890684,4.072694797451735,0.0957982240953911
19.895276,4.071374427781283,0.0955433690799885
19.899872,4.067111385339596,0.0953435695674861
19.904472,4.059128420393172,0.0951989720236346
19.90906,4.050368205713247,0.0950525839223006
19.913656,4.040952926013965,0.0948924964067096
19.918244,4.032803634904767,0.0946844276170264
19.92284,4.022611105471982,0.094522350177696
19.927424,4.005389426620789,0.0945055443469823
19.932024,3.989189366931389,0.0944634644562971
19.936616,3.974377480546219,0.0943631012095281
19.9412,3.9622638975039934,0.0942299009304354
19.945788,3.9556691058618,0.0940224627022754
19.950368,3.950628813686611,0.0938179121308539
19.95496,3.945832890939713,0.093590199981146
19.959544,3.942591467659821,0.0933660309051907
19.964136,3.939716598522364,0.0931067103552659
19.968728,3.9396622174419975,0.0928032613181032
19.973316,3.93654297887625,0.0925663418282827
19.977904,3.93072543696756,0.0923585832986594
19.9825,3.926706763954164,0.0921307431940538
19.9871,3.927551817321445,0.091819543687418
19.991696,3.931706097602398,0.0914189198829125
19.996284,3.942767342587613,0.0908960014192762
20.000876,3.956649075629919,0.0903374438219483
20.005456,3.974372915891107,0.0897260561351155
20.010056,3.9940178097617367,0.0890886921024173
20.014644,4.01300763861301,0.0884367586358839
20.019244,4.033263456054367,0.0877359228301673
20.023828,4.052497654333932,0.0870615182420141
20.02842,4.070710233451703,0.0864055733510552
20.033008,4.086346693940675,0.0857728375419395
20.037604,4.100306470248498,0.0851518631016002
20.042204,4.114388431270466,0.0845245569713492
20.0468,4.128470392292435,0.0839039686519883
20.051388,4.141897288295047,0.0832726367695702
20.05598,4.158144672354748,0.0826164082768619
20.06056,4.178234163633332,0.0819146429953682
20.065156,4.197912959320851,0.0811772205058202
20.069744,4.22065661249375,0.0803909977651916
20.074328,4.244666254256735,0.0795711596684614
20.07892,4.266510472981986,0.0788060002588089
20.0835,4.289009756726594,0.0780623030562101
20.088092,4.305501510214588,0.0774182631680687
20.09268,4.319172775645491,0.0768081059837866
20.097272,4.327203064962216,0.0762585221392461
20.101864,4.337032223174236,0.0757043803949463
20.106452,4.347883000548051,0.075134770761457
20.11104,4.359633212369512,0.0745598509062016
20.115628,4.370239620315036,0.0740109751809265
20.120216,4.385343200498798,0.073437303352903
20.124808,4.400202411254269,0.0728864477053042
20.1294,4.415472317600805,0.0723738604333202
20.133996,4.428943355052045,0.071873869365495
20.138584,4.439349535017905,0.0714206606537371
20.143184,4.449511345555473,0.0709894980363533
20.147768,4.455708864160012,0.0706125605593414
20.152368,4.459208079421608,0.0702538555963829
20.15696,4.464139609436063,0.0699169718537845
20.161556,4.46510684751749,0.0696293412163365
20.166148,4.464930281722978,0.0693672468809367
20.170736,4.464631531214319,0.0691151998816696
20.175328,4.463188976829722,0.068887964338322
20.17992,4.461990791873416,0.0686389591779649
20.184504,4.459770987755316,0.0684029622756327
20.1891,4.463847224770751,0.0681380589958339
20.193688,4.4620381162437175,0.0679385137106153
20.198272,4.461905691897833,0.0677417241044354
20.202856,4.461773267551948,0.0675451384216194
20.207444,4.463928450957941,0.0673014459292196
20.212036,4.46428476546864,0.0670676419965712
20.216616,4.466029253283569,0.0667921806760965
20.221208,4.466585795773931,0.0664754294745443
20.225796,4.469962826321381,0.0661399170708167
20.230384,4.47448366074477,0.0657797746401223
20.234988,4.478105060720513,0.0654226490518588
20.239576,4.480704841534462,0.0650766637969321
20.244184,4.485880740977208,0.0647334976990123
20.248772,4.489379956238804,0.0643876393273691
20.25336,4.494800225109841,0.0640248109906339
20.257956,4.500997743714381,0.0636699803185127
20.262536,4.508583435623152,0.0632752085920708
20.26714,4.5175573008361525,0.0628409743052774
20.27172,4.531150523001538,0.0623854731135904
