Time,Force,Position
26.50152,4.274715170598762,0.1283628145247522
26.506104,4.265788629756063,0.1282298540528696
26.510696,4.250766275759491,0.1281210660526268
26.5153,4.233612400542077,0.127932338443584
26.519892,4.21065122304771,0.1278133485159328
26.524484,4.188256827675442,0.127559018899941
26.52908,4.155802327216275,0.1274411929876818
26.533656,4.126368542793861,0.1271569481506806
26.538248,4.087651903018048,0.1270004608131153
26.54284,4.043372330393575,0.1268854024553809
26.547424,3.9986820621780352,0.1267357182012021
26.552016,3.952681663923783,0.1265643061184567
26.556592,3.905615505059109,0.1263502931675413
26.56118,3.8562175969939294,0.1261490563627924
26.565764,3.8068196889287496,0.1259458457215577
26.57036,3.7511257397300346,0.1258685537728054
26.574944,3.700662071054433,0.1256034473618718
26.579528,3.655595009064719,0.1252180555533222
26.584128,3.613759130723158,0.1247857064280035
26.588716,3.578097108800987,0.1242286657834134
26.593304,3.5394924141075808,0.1237465129325613
26.597896,3.4943914503009776,0.1235001111693533
26.602488,3.4523994854283817,0.1232322298942638
26.607092,3.4151932036709454,0.122914792152678
26.611684,3.382239724723456,0.122526822795423
26.616276,3.348186583348657,0.1222650326339529
26.620856,3.3207179939843123,0.1219262156731856
26.625456,3.2920275574785105,0.1217319054061785
26.630036,3.2676340652312845,0.1215590293324434
26.63462,3.250358005299724,0.1213216560409503
26.639208,3.237867628483322,0.1210374573352202
26.643792,3.228896946191994,0.1207737826985269
26.64838,3.2281875000922704,0.1204056660646973
26.652972,3.2318971829652687,0.1200397840984331
26.657564,3.2411697986869283,0.119630796923763
26.662156,3.2573154772959616,0.1191917259259713
26.666744,3.27416036237298,0.1188617594839768
26.671332,3.291704453917982,0.1186336869673822
26.680516,3.3256590727637865,0.1185047459277459
26.6851,3.345911707283471,0.1184964232124424
26.689688,3.37695755517493,0.118267902175829
26.694288,3.412789086181548,0.1180109626928985
26.698864,3.451607431408029,0.1177680466301249
26.70346,3.494556394730312,0.1175009190044709
26.708056,3.544700833633778,0.1171061363326286
26.712644,3.601507867813216,0.1165795760275225
26.71724,3.6628120742308927,0.1159726271435267
26.721824,3.730901060638688,0.1152120000123947
26.726412,3.795270124541745,0.1145409038448424
26.731012,3.8577181348353617,0.1139293943715796
26.735604,3.921309949004917,0.1132910691313335
26.740208,3.9813040253838814,0.1127436068039264
26.744804,4.042808459781221,0.1121333981896872
26.749396,4.103780013873351,0.1115226983595781
26.753984,4.167650099288087,0.1107997409516526
26.758584,4.230087869949965,0.1100803685125022
26.763164,4.29260368387736,0.109292582558623
26.767764,4.354953171641982,0.1084613036103803
26.772348,4.4198346365867724,0.1075363382568726
26.77694,4.48454977536879,0.1065739391757841
26.78152,4.545500850197442,0.105640309256874
26.786112,4.602687861072729,0.104717974030784
26.790712,4.656110807994649,0.103805351103568
26.795304,4.700128714849027,0.1029831813990508
26.799892,4.737439884978805,0.1022214394847578
26.80448,4.763835657022663,0.1016104035470272
26.809064,4.786589549827301,0.1009865607048831
26.813656,4.8014929020314,0.1004437184563005
26.818248,4.813531624729781,0.0998750311390552
26.822835999999995,4.825404021265388,0.0992567944792637
26.827428,4.832246365257546,0.0986702283662388
26.832008,4.832914852830314,0.0981420927323877
26.8366,4.829208352878989,0.0976562247473973
26.841187999999995,4.8195723659365655,0.0972089113625475
26.845776,4.80274090341296,0.0968406618452722
26.850384,4.785620930012434,0.0964287573664336
26.854972,4.763470904068459,0.0960393711846141
26.85958,4.73808969447633,0.0956536169941951
26.864172,4.708700051502543,0.0952686274969609
26.86876,4.67583485545231,0.0949056030606496
26.873352,4.638105933021403,0.0946137419027884
26.877952,4.601765183894724,0.0942645122031611
26.882544,4.562071066405745,0.0939237248822799
26.887124,4.525852501993213,0.0935547693788314
26.891724,4.491799360618413,0.0931308764614644
26.8963,4.461832695890787,0.0926252777312964
26.9009,4.431866031163161,0.0921132416574386
26.905488,4.405741473654419,0.0915414585789467
26.910088,4.38423627309806,0.0909118565423867
26.914684,4.362608887827557,0.0902897146935709
26.919276,4.342902556166496,0.08963528966355
26.923864,4.327282701152607,0.0888987759975871
26.92846,4.314483334195809,0.0881254490902584
26.933048,4.30503733560131,0.0873354884106028
26.937644,4.299066890083257,0.0865216311352208
26.942224,4.289665032937386,0.0857908900847199
26.946816,4.283372174725524,0.0850661894352329
26.951404,4.2767127623712256,0.0843684637840284
26.955996,4.2750834025603766,0.083657822334904
26.960584,4.275008542216533,0.082951679049866
26.965171999999995,4.281351907720369,0.0821824297646594
26.969764,4.284019492168095,0.0815211459922374
26.974344,4.291717129159272,0.0808476396396191
26.978936,4.301335819759892,0.0801511528413627
26.983524,4.309321967627988,0.0795266008229721
26.988112,4.318496060820652,0.078943314915939
26.992716,4.331678587394973,0.0783752245296114
26.997304,4.343472940665063,0.0778597070540744
27.001892,4.3586206622974535,0.0773507786124989
27.00648,4.371358591463819,0.0769046644159267
27.011068,4.387449888992485,0.076459888411253
27.015664,4.408571239064601,0.076018956455701
27.02024,4.429570404422572,0.0755944817329509
27.024844,4.452490623389985,0.0751543356438117
27.029428,4.472345984872016,0.0747608518118925
27.034032,4.495021834411138,0.0743386860614706
27.038616,4.521417606454995,0.0738932025643803
27.043208,4.552310550737092,0.0734260137752558
27.047804,4.5783397686385126,0.0730172672604087
27.052396,4.604368986539933,0.0726111931525546
27.056984,4.626800466650763,0.0722302917465305
27.061572,4.65319623869462,0.0718017036000716
27.06616,4.680735814614418,0.0713587205090243
27.070752,4.709174824981862,0.0709187395576171
27.075344,4.737736020063453,0.0704676495029073
27.079927999999995,4.766785954001626,0.0699835210022054
27.08452,4.788884781786908,0.0695170002049624
27.089116,4.81404846705757,0.0690160988590618
27.093703999999995,4.828052384814021,0.0685912473476907
27.098288,4.846387148645938,0.0680958814312209
27.102884,4.862267978563202,0.0675994111824615
27.107472,4.871852767346931,0.0671333488517511
27.11206,4.880293752254722,0.0666913477685678
27.116644,4.881172707438892,0.0663024950390738
27.12122,4.885238704822588,0.0658660576062179
27.125816,4.889671256348722,0.0654029265237336
27.130404,4.885642343703587,0.0649969836305387
27.134992,4.878137877982009,0.0645962073234995
27.139588,4.874842073621748,0.0641372024298907
27.14418,4.871790638689779,0.0636603140669147
27.148784,4.869394268777166,0.0631980808993927
27.153364,4.863644530502253,0.0627294132414749
27.15796,4.85315325056081,0.062293172098961
27.16254,4.837920428952837,0.0618869951161303
27.16714,4.827673518439685,0.061433510520235
27.171728,4.814606119869444,0.0609947863361185
27.176328,4.804892089661503,0.0605611190254856
27.18092,4.788637648891736,0.0601599529185439
27.185512,4.781744106740885,0.0597060490055104
27.190104,4.77076408794286,0.0592966243126269
