Time,Force,Position
25.975424000000004,3.2032945846272662,0.1302763534732489
25.980004000000008,3.19203629458406,0.1301298351767183
25.984604000000004,3.191981913503693,0.1297851993868555
25.989196000000007,3.1994115188814285,0.1293398998361844
25.993792,3.2124040571078245,0.1288452954132249
25.99838800000001,3.2282612248399385,0.1283559512322797
26.002984,3.25004787956315,0.1277707706576739
26.007588,3.2782969015826704,0.1271080309191445
26.012184000000005,3.310554356983848,0.1263922841232698
26.016788000000005,3.3459208113190333,0.1256541084784704
26.021384,3.387094567931171,0.1248485861580367
26.025964,3.434075626820261,0.1239741398737481
26.030552,3.48416568464336,0.1230778205375007
26.03514,3.5353215030768803,0.1222358535297058
26.03974000000001,3.587010201815612,0.121426074789374
26.044324000000003,3.6329357397260185,0.1207995488835025
26.048919999999995,3.676818039312839,0.1202444707638969
26.053512,3.721966327489744,0.1196365346312585
26.05809600000001,3.773288472086039,0.1189065178521004
26.062696000000003,3.8171707716728593,0.118361978064868
26.067276000000007,3.858110398488445,0.117918389984033
26.071872,3.8945528530657914,0.1175792036874153
26.081052,3.9363682521438736,0.1175586431576408
26.085656,3.9555551260531367,0.117501817925197
26.090244,3.97445348908548,0.117395974962881
26.094832,3.991142287631463,0.1172910448560353
26.099428000000003,4.005988075833522,0.1171468798721825
26.10402000000001,4.022344222053957,0.116926348988797
26.108612000000008,4.038411857397472,0.1166618275934332
26.113208,4.048550005749891,0.1164701077252994
26.117804000000007,4.05390247098715,0.1163089764111415
26.122384,4.056268122004545,0.1161452217421073
26.126988,4.056135697658661,0.1159290244571225
26.131575999999995,4.05146195962591,0.1157138768703663
26.136172,4.046255341287948,0.1154750862428539
26.140764000000004,4.0407602120730655,0.1151880311031948
26.145364,4.031789529781737,0.1149479927710048
26.14994800000001,4.018277533803542,0.1147087800594755
26.154544,4.010118003062606,0.1143077057115344
26.159132,3.998072223654158,0.1139155254409454
26.16372,3.9853713792263545,0.1135120068240995
26.168308,3.980599118664608,0.112910158618513
26.172892000000004,3.9740279892075647,0.1123340092554286
26.177484000000007,3.9624709486557,0.1118846327508965
26.182068,3.950014473656188,0.1114486240540053
26.186651999999995,3.940256301999619,0.1109691060482221
26.191248,3.9311531953624064,0.1105001417191322
26.195832,3.9211506542775454,0.1100464026243642
26.200424,3.909104874869098,0.1096441266848258
26.205020000000005,3.900534648537096,0.1091988816448209
26.209608000000003,3.891720052776803,0.1087764048657074
26.214192,3.887280444540604,0.1082990432804401
26.218788000000004,3.885827650524268,0.1078298392424241
26.22338000000001,3.893902081289621,0.1072576695680903
26.227976,3.909049802922011,0.1066029390776367
26.232568,3.927428708202556,0.1059393761429972
26.237168,3.949160981845401,0.1052508931787414
26.241764000000003,3.978499426660493,0.1045154502142025
26.246352,4.008781447371862,0.1038549598976195
26.250964,4.044748585646038,0.1031705866876054
26.25555200000001,4.081370788939569,0.102497551823848
26.260148,4.119547491700105,0.1018437835830225
26.264736,4.166474169508829,0.1011118902801335
26.269336,4.21879745400344,0.1003176998398888
26.273916,4.274596291574495,0.0995007770938868
26.278516,4.331050194164908,0.0987232995896519
26.28310400000001,4.390857465117622,0.0979464114961407
26.287704000000005,4.450175997213751,0.0972224002864172
26.2923,4.514113886262266,0.0964497859759031
26.296896000000004,4.573432418358396,0.0957378675706229
26.301476000000008,4.637614676835202,0.0949600108009181
26.306072,4.702940739187947,0.0941817286957408
26.31066,4.764791248464247,0.0934328824277017
26.315252,4.820834455463595,0.0927345750292655
26.319844000000003,4.868904937148258,0.0921169370672689
26.324432,4.915787473508353,0.0914801958709789
26.329024000000004,4.9605826300962335,0.0908264237283935
26.33360400000001,4.992907889131189,0.0902815793460176
26.338196,5.01697191197454,0.0897574217385499
26.342792000000003,5.0380491205980285,0.0892207304657608
26.347384000000005,5.061780491115831,0.0886065277475228
26.351976000000008,5.077783505747241,0.0880343708699252
26.356572,5.081927546396455,0.0875125908708569
26.36116,5.0796092197493605,0.0869931936532358
26.365756000000005,5.071605775539458,0.0864759665351238
26.370352,5.055218910423807,0.0859800293640894
26.374939999999995,5.028894124935401,0.0854980163269137
26.379552000000004,4.997905841045982,0.0849960101759911
26.384132000000008,4.958289766822521,0.0845296840712461
26.38874,4.920428420045728,0.0839809231152092
26.393324000000007,4.874472163240105,0.083487566564515
26.397904,4.817478323634416,0.0830893654272555
26.402504000000008,4.762239211475395,0.0826047811686409
26.407096,4.704179611259284,0.0821398780449665
26.411692,4.644565511576168,0.0816604134568398
26.41628,4.580576424368958,0.081189693844271
26.42088,4.516465152447604,0.080717413889796
26.425472,4.459016475802224,0.0801604662424153
26.43006800000001,4.406187156109226,0.0795490683569729
26.434656000000004,4.35245840196858,0.0789338507994679
26.439248000000006,4.295664790342553,0.0783559045515675
26.443836000000005,4.246188839011856,0.0777106216218878
26.448428000000007,4.203541809119903,0.0770381647267674
26.453019999999995,4.163226528428458,0.0763685429374521
26.457612,4.130639603623407,0.0756753375037595
26.4622,4.103859981095306,0.0749763564144908
26.466796,4.086485398634751,0.0742535758862841
26.471384,4.074263053431791,0.0735137246954356
26.475980000000007,4.06797019521993,0.0727616132744157
26.480571999999995,4.06466415122793,0.0720421263197023
26.485152,4.067531963655321,0.0712952703427809
26.48974800000001,4.082336793330426,0.0704608373216959
26.494340000000008,4.099884067797101,0.0696894518304591
26.498936,4.119885276178429,0.0689234423420687
26.503528000000003,4.146837590712647,0.0681422949092691
26.508123999999995,4.182295510866762,0.0673692888720139
26.512704,4.222128418544971,0.0665985915320341
26.517296,4.267113563480775,0.0658448866819598
26.52189200000001,4.319049814569471,0.0651020441642426
26.526476,4.376260487629909,0.0643604641028235
26.531084000000007,4.437846148214439,0.0636271351455035
26.535672000000005,4.498165820208885,0.0629465201667445
26.540260000000004,4.561183795546275,0.062273896841213
26.544856,4.626777889512463,0.0616109221305623
26.549448,4.687874811240411,0.0609795209451011
26.554044000000005,4.750892786577801,0.0603464847490285
26.558632000000003,4.8092914049628055,0.0597469873881072
26.563240000000008,4.872553749728485,0.0591297747036033
26.56782800000001,4.937614963389462,0.058519124796525
26.572428,5.00459723065988,0.0579103739336953
26.577012,5.072478932377946,0.0573144936346769
26.581616,5.136396342162984,0.0567663906410944
26.586208,5.198637067766871,0.0562215719792736
26.590808,5.260877793370759,0.0556814477270622
26.595404,5.321441834793495,0.0551463220421281
26.60000000000001,5.375709835082698,0.0546312921042003
26.60458,5.423437424810074,0.0541473122100549
26.609176000000005,5.462048485346825,0.053690122625256
26.61378000000001,5.492564635854746,0.0532513045140818
26.618372000000008,5.51576312606734,0.0528313701639258
26.622964,5.531399586556312,0.0524443548133213
26.627564000000007,5.542538874807047,0.0520622690660175
26.632148,5.547137752495955,0.0517033870378463
26.636744000000007,5.548261077108415,0.0513401214557787
