Time,Force,Position
21.70664,4.028480276541651,0.1217086371749066
21.711224,4.0295018957034445,0.1216798873219833
21.715824,4.03436562208412,0.121562858077925
21.720412,4.043193640397825,0.1213449992028548
21.72502,4.051366593692173,0.1211196204649288
21.729608,4.054920190034136,0.1209852653731693
21.734196,4.058962525232682,0.1208019393501816
21.738792,4.065414652897252,0.1205220766363651
21.743384,4.071333900256612,0.1202228736545655
21.747988,4.072100910358375,0.1199921034503732
21.752576,4.072335040154928,0.1197404467827701
21.757168,4.073546647664647,0.1193915100296678
21.761756,4.077168047640388,0.118948665935593
21.766352,4.081522555901004,0.1184326479784775
21.770944,4.081868630779963,0.117945535740705
21.77554,4.087689355610327,0.1172882633526141
21.780124,4.103481902630335,0.116393541750948
21.78472,4.114122212392748,0.1155699321100545
21.789296,4.127416684049475,0.1146318185598569
21.793892,4.139156656239198,0.1137018491363365
21.798492,4.147543260066622,0.1128071850238509
21.80308,4.155929863894045,0.1119100992321077
21.807668,4.160718729930877,0.1110746718025551
21.812256,4.164730346234206,0.1102484068014701
21.816836,4.165022040032799,0.1094807428974529
21.82142,4.166579722421476,0.1086559060360567
21.826012,4.169814088991304,0.1078222095457244
21.8306,4.173825705294634,0.1069870344790044
21.8352,4.176815702436169,0.1061772770622785
21.839776,4.185324490977738,0.1052757554331551
21.844372,4.195509963700457,0.1043674895784527
21.848956,4.202386209509505,0.1035574620620138
21.853544,4.207996466728467,0.1027953916296807
21.858156,4.213117985090846,0.1020824858060287
21.862744,4.220204698511294,0.1014029597470921
21.867328,4.221039512246837,0.1008795607114771
21.87192,4.211902503792735,0.1005695971095107
21.87652,4.204975059824994,0.1002698785602679
21.881124,4.198213942020026,0.1000276121531379
21.8857,4.190064650910829,0.09984166571919
21.890292,4.184002739573847,0.099678524406819
21.89488,4.17973969713216,0.0994921879226166
21.899476,4.173433416366886,0.099350608166436
21.904064,4.162263409220936,0.0993008870728176
21.90866,4.154813324579723,0.0991927679273587
21.913244,4.1535370963579,0.0990162285199826
21.917836,4.152915933155432,0.0988535243280379
21.922428,4.152050400524673,0.0987138694411812
21.927024,4.152617182646774,0.0985870154933931
21.93162,4.1530617800547285,0.0984728894804388
21.936212,4.150563704691448,0.0984129398107832
21.9408,4.152440616852262,0.0983125298513565
21.945392,4.157915266803666,0.0981719409342558
21.94998,4.162368297593278,0.0980525533487669
21.954576,4.166166263363533,0.0979213365194432
21.959164,4.173029086619168,0.097724482226107
21.963752,4.185532885988982,0.0974414070472177
21.968344,4.1962378164635,0.0971791536516698
21.972928,4.208086550813957,0.0968873722844917
21.977524000000003,4.223533022955005,0.0965546321864925
21.982112,4.237547180343195,0.0962091410312532
21.986704,4.251561337731385,0.0958676250458578
21.991292,4.2709721018054605,0.0954670727424779
21.99588,4.299743764498454,0.0949386633596037
22.000476,4.329414861639094,0.0944057604987803
22.005064,4.353567167379701,0.0939507790694935
22.009652000000003,4.372200681720276,0.0935642194606457
22.014248,4.392222369365081,0.0931284084619061
22.01884,4.407624700057502,0.0927461107692628
22.023436,4.418407673797537,0.0924219644541203
22.028024,4.429312832251719,0.0920853972146984
22.03262,4.436742437629453,0.0917773611062825
22.037208,4.4417181090925375,0.0914783902695447
22.041808,4.451924061078734,0.0910744549563914
22.046396,4.464173251388518,0.0906353654265713
22.050996,4.481163983364832,0.0901413772836194
22.05558,4.498521269483582,0.0896240695732129
22.060172,4.518166163354211,0.0890513248075973
22.064764,4.533191700272456,0.0885294681144731
22.069356,4.548050911027926,0.087960652588928
22.073952,4.564831175392838,0.0873686476224796
22.078544,4.581733624471895,0.0867720149626564
22.08312,4.598758258265099,0.0861754891006922
22.087716,4.607565797315328,0.085659409805754
22.0923,4.618294389974995,0.0851258680938824
22.0969,4.633886709015341,0.0845349798105372
22.101488,4.653443319988713,0.0838867050126579
22.106068,4.672633376819649,0.0832733282110633
22.110656,4.702450320859586,0.0825374792468539
22.115236,4.738685490747203,0.0817509077863788
22.119828,4.77606446451076,0.0809403591319672
22.12442,4.815731046026195,0.0800843563482493
22.129008,4.855153258113338,0.0792515912797163
22.13362,4.89012243941087,0.0785225689093528
22.138208,4.923292751813107,0.0778139566476225
22.142812,4.95069990338702,0.0771778677035999
22.147396,4.976063816637345,0.076578079068009
22.151988,5.001183360459379,0.0760029996704235
22.156588,5.033742749290887,0.0753729552355994
22.16118,5.06646846428517,0.0748008821047291
22.165772,5.098827625137016,0.0742606257325719
22.170352,5.13286347017001,0.0737281649718766
22.174952,5.163423762126559,0.0732117398110571
22.17954,5.1975817918737,0.0726768863420016
22.184128,5.22891933356375,0.0721717137994054
22.188716,5.255515333587272,0.0717131045878131
22.193316,5.283132952772587,0.0712485498268275
22.197908,5.311239310814484,0.0707551230504587
22.2025,5.334726311903997,0.0703035513157923
22.207108,5.354615575202917,0.0698722595751392
22.2117,5.378346945720721,0.069417055902489
22.216288,5.401589577381942,0.0689990976807526
22.220884,5.42405495930966,0.0685768383757911
22.225472,5.445987460932169,0.0681330020129956
22.230064,5.467797777840531,0.0676994765733642
22.234652,5.491773517786625,0.0672371606448395
22.23924,5.515871442446866,0.0667690241188982
22.243828,5.540091551821252,0.0662969260303279
22.24842,5.559936673671544,0.0658391791676109
22.253016,5.578471665483123,0.0653585938727053
22.257604,5.596840331131929,0.0648364163835869
22.262204,5.609934574808994,0.0643243317113976
22.266792,5.624050437647853,0.0638029762638102
22.271384,5.635590181857912,0.0632820124268849
22.275976,5.647374295496264,0.0627470183029164
22.280564,5.657603909667611,0.0621991021088271
22.285168,5.662192547724779,0.0616806174652554
22.289752,5.66281689384892,0.0611942203543682
22.29434,5.660742936630116,0.060715861621523
22.298936,5.659157718267895,0.0602068774999865
22.303524,5.6501326548962005,0.0597292419242359
22.308128,5.638120777304643,0.0592182178853069
