Time,Force,Position
21.034804,2.148389822252778,0.1779406993162855
21.039392,2.225432885476817,0.1768386870370771
21.043988,2.2964140373638724,0.1757647712665307
21.048576,2.3582684204285647,0.1750720471661647
21.05316,2.4142272183190485,0.1745524990808104
21.057744,2.462858116282465,0.1741911515284466
21.062332,2.5067372329476125,0.1737450821591784
21.066908,2.5432884496856927,0.1733579475632681
21.076088,2.582836720275376,0.1733452112489277
21.080676,2.597071584906706,0.1728976656023349
21.085272,2.603201299877467,0.1724915469773411
21.094472,2.5839159034392085,0.1723654416324577
21.099052,2.5724471457846,0.1721563576068853
21.103648,2.5581579000729024,0.1720930375842816
21.108236,2.544479577931933,0.1719151279860388
21.112828,2.5267928224093072,0.1718584905133752
21.11742,2.510616424905057,0.1716610765126904
21.12202,2.4951731356856817,0.1713323269802797
21.126604,2.485981746151213,0.1705662930770031
21.131196,2.4770347260450363,0.1697480037238756
21.135791999999995,2.4679655212247136,0.1689507453728678
21.140384,2.460817370013832,0.1680393275089772
21.144972,2.446473743221768,0.1674831191406028
21.149564,2.428165824496674,0.1671800116644765
21.154143999999995,2.4074481133055574,0.1670936910615697
21.158736,2.390738835496097,0.1668594705253248
21.163324,2.3790596102300867,0.1664223431533295
21.172508,2.3498260537873352,0.1662863167040997
21.177096,2.3373798184195613,0.1662397451754594
21.181688,2.3267765933957114,0.1662286733762336
21.186276,2.3194045520200155,0.1661041802984955
21.190867999999995,2.315918759311832,0.1658759454353407
21.195452,2.316441399985304,0.1655245245452295
21.20004,2.3197064854503475,0.1651686250491862
21.204632,2.3294339382117,0.1646185191061973
21.209212,2.347011931573592,0.1637640446268938
21.213804,2.371541031088375,0.1626692303818895
21.218396,2.391250545671111,0.1619776950742962
21.222988,2.4161122975114417,0.161119110988048
21.22758,2.4424063641046314,0.1602655678597886
21.232168,2.4679673224129477,0.1595511469380803
21.236768,2.501012267179365,0.1585790896243659
21.241356,2.541252687526965,0.1573204569003638
21.245956,2.5881557031505382,0.1557579143572628
21.25054,2.627741058478782,0.1545092281426282
21.25514,2.666959859664589,0.1533513663356917
21.259732,2.7136185058598707,0.1518894390229616
21.264328,2.758478283159856,0.1504848156739317
21.268912,2.801172637422109,0.1492251858067917
21.273508,2.845010795560301,0.1478819492917719
21.278096,2.8896262034319964,0.1465899320048177
21.282688,2.9305216887989536,0.1454822902447157
21.287268,2.97117280473762,0.1444339556244885
21.291852,3.0088812479050517,0.1435343901783169
21.29644,3.0455680719106883,0.1427250573222393
21.30104,3.0791900384309456,0.142112177388184
21.305623999999995,3.1078260938563806,0.1417421555547784
21.310216,3.136584333995961,0.1413418491169701
21.314812,3.1634215205261005,0.1410351161405652
21.319396,3.190380891770385,0.1407225679125742
21.323992,3.2204051205000503,0.1402908333145218
21.328579999999995,3.2491192191910034,0.1398527169814463
21.333168,3.2760344489866604,0.1394922181438211
21.33776,3.298208137115786,0.1392997966271328
21.342348,3.32716660523503,0.1388701522262347
21.34694,3.355714377763209,0.1384080078273598
21.351532,3.377843924443707,0.1381412911974
21.35612,3.404837197504881,0.1377175148741415
21.360724,3.4342402630320787,0.1371749034080209
21.365312,3.464909317149362,0.1365752371530422
21.369907999999995,3.48760564595196,0.1361613311408113
21.3745,3.5107907136111414,0.1356863829223965
21.379092,3.5330322053740457,0.1351571217538664
21.383672,3.556906239869473,0.1345175048133417
21.388259999999995,3.5779156448591825,0.1338853400807791
21.392855999999995,3.5941393667337334,0.133311701088229
21.397448,3.608275708836069,0.1327260883311848
21.402044,3.619547421432687,0.1321299624832266
21.406636,3.627710135095296,0.1315644139353415
21.411228,3.633663284271545,0.1310091807141148
21.415824,3.633931315884987,0.1305353051372344
21.420416,3.634932455783303,0.1299762711729706
21.425008,3.6300041086905206,0.1295201488022835
21.4296,3.621844577949585,0.1291016707550208
21.434183999999995,3.610209494132202,0.1287528053148432
21.438772,3.595465411380811,0.1284259329463643
21.443368,3.5796555680189988,0.1280496579745923
21.447964,3.557916237666088,0.1277724462326349
21.452552,3.534622407846173,0.1275004995092305
21.457144,3.509774078559255,0.1272327167277383
21.461735999999995,3.489012225919509,0.1268244479739517
21.466332,3.467595308260408,0.1264024278141636
21.47092,3.446056205887161,0.1259898397368993
21.475508,3.4209193657233223,0.125652392323211
21.480104,3.394638721683544,0.12536060018477
21.484691999999995,3.370812011558419,0.1250367508233732
21.48928,3.3489063550427347,0.1246543026708531
21.493872,3.3314978707652894,0.1241676028667715
21.49846,3.3147444515072007,0.1236878899591982
21.503068,3.2995455317161166,0.123195198286349
21.50766,3.285656741963745,0.1227186451426044
21.512256,3.2656382372406134,0.1224506278182667
21.516836,3.248973100879781,0.1221305556330545
21.521436,3.236805136757188,0.1217055490797475
21.526019999999995,3.228112725711041,0.1212144550172389
21.53062,3.2224071288847567,0.1207177447345078
21.535212,3.2204655960118376,0.1202126028685209
21.539812,3.2207336276252803,0.1197059277950995
21.544396,3.2203907356679937,0.1192775513870543
21.548992,3.218537485692331,0.1189461491012137
21.553584,3.2226137227077656,0.1185304458473061
21.558176,3.226978470600121,0.11817160074481
21.562776,3.233919337121274,0.1177772780940895
21.567376,3.24384701786229,0.1173811487714381
21.571968,3.2570058822514603,0.1169559965632369
21.57656,3.2720858002500712,0.1164848535652861
21.58114,3.288720217715688,0.1160148500801399
21.585724,3.308585818829457,0.1155342055754573
21.590312,3.33229352716211,0.1149644731775451
21.594908,3.3537136277428847,0.1144871610162634
21.5995,3.3786092814001045,0.1139621755986813
21.60408,3.4098009761908594,0.113308116079139
21.60868,3.43972668239153,0.1127107522077022
21.61326,3.471451257487496,0.1120974510701605
21.617852,3.5003553445263726,0.1115619569790428
21.622448,3.5291372468511044,0.1110447550163266
21.627036,3.5534219769375963,0.1106046896466385
21.631644,3.5797499453476758,0.1101106528905935
21.636236,3.6073439023478393,0.109561859936783
21.640832,3.638002716833384,0.1089265450164568
21.64542,3.660444436575952,0.1084571827937694
21.650008,3.682231091299164,0.1079735466224059
21.654604,3.6982545851940514,0.107626481973694
21.65918,3.714889002659667,0.1072143344767056
21.663784,3.728414421191274,0.1068099985410256
21.668368,3.74001878611344,0.1064544768950845
21.672968,3.751867520463897,0.1060796270559264
21.677547999999994,3.756765148661463,0.1057966006864166
21.682148,3.7569212351924977,0.1056124561448717
21.68674,3.758587679741909,0.1053473393354789
21.691336,3.757145125357311,0.1050867398281859
21.69592,3.7572129289910894,0.1047510525095142
21.700516,3.763532632309776,0.1042514447303893
21.705104,3.766132413123725,0.1038194695316424
21.7097,3.7666889556140863,0.1034365377082692
21.714288,3.766179737494026,0.1030031475849487
21.718872,3.77090079989708,0.1024295181147949
21.723451999999995,3.772923558957189,0.1018961544487009
21.728052,3.772492384102646,0.1013744701715181
21.73264,3.7714061442287465,0.1008442125338891
21.737227999999995,3.775183630735524,0.1002161284062731
21.74182,3.782925409175329,0.0995089099618843
21.7464,3.7900121225957775,0.0987750147841873
21.750996,3.794400532673283,0.0980776938427394
21.755584,3.8004656269319375,0.0973676357919315
21.760164,3.805875656171237,0.0966438508156325
21.764756,3.8066663284581512,0.0959910332979464
21.769336,3.809255869640361,0.0953094142765842
21.773928,3.812744845270218,0.0946114242344637
21.778524,3.815090017024136,0.0939504636308274
21.783116,3.816047015473824,0.0933490810433317
21.787712,3.813816971723986,0.0928386110923856
21.7923,3.8028810943745888,0.0924930534093636
21.7969,3.79476570508228,0.0921018002423837
21.80148,3.790736792437146,0.0916163175157871
21.80608,3.789161813706664,0.0911253769674797
21.810668,3.785299227224304,0.090707448954611
21.815268,3.784012759370741,0.0902723788702512
21.819852,3.785590921022896,0.0898711508715388
21.824448,3.78385985576138,0.089561242316506
21.82904,3.779186117728627,0.0893062652270129
21.833636,3.769404283886908,0.0891611550637117
21.838224,3.7688611639499583,0.0888960605124386
21.84282,3.773348096556459,0.0886125438104379
21.847408,3.782332201401199,0.0882886292639231
21.851992,3.793648055446445,0.0879755254934878
21.856584,3.807417843406344,0.0876572528027114
21.86118,3.827605857213923,0.0872743381849911
21.865768,3.851391608812093,0.0868611953168378
21.870363999999995,3.87697622930556,0.0864326390802898
21.874956,3.908201825913205,0.0859349796406182
21.879535999999995,3.938405803359056,0.0854567255762525
21.884136,3.973473507185583,0.0848985634768964
21.888724,4.007641776564462,0.0843594472863967
21.893316,4.03821230815275,0.083859724940816
21.897912,4.071358958369837,0.0833649889090282
21.902491999999995,4.107448281358158,0.0828344170860579
21.9071,4.141083670431827,0.0823100601668979
21.911688,4.173531114180928,0.0817492489543459
21.916292,4.209165600129556,0.0811221903512068
21.920888,4.246843324401771,0.0804629054685541
21.925476,4.290650763644747,0.079703080197408
21.930076,4.327917792325896,0.0790306241329436
21.934667999999995,4.358111530140008,0.0784027812833913
21.939264,4.380987607658792,0.077844811273039
21.943844,4.4026757398530085,0.0772528952099849
21.948443999999995,4.425507675923165,0.07663637553948
21.953032,4.439223082802696,0.0760982559779718
21.957632,4.451383990215224,0.0755581445768396
21.962219999999995,4.46468870150369,0.0749972399833086
21.96682,4.473496240553917,0.0744697706659582
21.971412,4.483569768194229,0.0739059915174639
21.976008,4.494298360853898,0.0733625116482697
21.980599999999995,4.503228084618271,0.072831074605414
21.985195999999995,4.513712307849647,0.0723085881049014
21.989792,4.517001055499841,0.0718303108397054
21.994388,4.516569880645299,0.0713845152355761
21.998976,4.5167937708101125,0.0709534733961518
22.003575999999995,4.519960333746161,0.070492472938533
22.008164,4.522105277520416,0.0700476883419796
22.012752,4.523228602132877,0.0696187637658054
22.017344,4.518466581202869,0.0692562659138049
22.02194,4.516891602472387,0.0688436544215374
22.026528,4.522223588446169,0.0683550713264053
22.031116,4.531397681638833,0.0678305098067458
22.035708,4.538161982365473,0.0673615378740082
22.040296,4.546070086968053,0.0668742152536979
22.044892,4.559496982970665,0.0663550801275602
22.04948,4.568426706735037,0.0658527496138318
22.054068,4.572859258261171,0.0653683131259401
22.058664,4.579212863396745,0.0648687870763628
22.063256,4.589164206322912,0.0643623482289102
22.067844,4.59768323449622,0.0638374218624472
22.072432,4.609267120154908,0.0632788983004678
22.07702,4.623016428851329,0.0626909771053129
22.081627999999995,4.640485660052487,0.0620824800260239
