Time,Force,Position
25.682508,5.694446545589198,0.1529924185065485
25.687088,5.782839364675374,0.1526741376999186
25.69168,5.865692913098039,0.1521325363500972
25.696268,5.933768476952423,0.1515864510149301
25.700856,5.986410991219172,0.1510257160486568
25.705464,6.022765162899264,0.1505222894742112
25.710056,6.047538631842337,0.1500718089738531
25.714648,6.0662604290801685,0.1497204879902199
25.719236,6.093243462509605,0.149275662075211
25.723824,6.12219169099711,0.14883830786345
25.72842,6.1492630073238015,0.1484885332024236
25.733012,6.174046715898615,0.1482039441217177
25.737616,6.202916901120604,0.1478265051409997
25.742196,6.231787086342592,0.1474511031897059
25.746796,6.255426991041465,0.1472059983901766
25.751372,6.281398644940845,0.1469499147655864
25.755964,6.307658809717146,0.1467241344656717
25.760556,6.336983831978826,0.1464312079578651
25.765152,6.368884972869305,0.1461101797457592
25.769748,6.400786113759783,0.1457908265792833
25.774344,6.432276559059197,0.1454577387635898
25.778936,6.469041426330353,0.1450521525884707
25.783528,6.502741436116127,0.1447209461157431
25.788128,6.5397948142642015,0.144361320401408
25.792728,6.581345364650515,0.1439453845510429
25.79732,6.626371468113274,0.1434953425796282
25.801904,6.674340244347268,0.1429990367691433
25.806492,6.719488532524176,0.1425478732182067
25.811076,6.76296013651993,0.1421252878158093
25.815664,6.809252228572774,0.1416630396862039
25.820256,6.856688124501558,0.1411716026476646
25.82484,6.909354300953454,0.1405788541439556
25.829419999999995,6.95981091291899,0.1400009376776799
25.834016,7.012022252331194,0.1393665378985593
25.838604,7.064678189151352,0.1386611173431274
25.843192,7.109605770085117,0.1380395579291423
25.8478,7.154611394284399,0.1373737657642705
25.852388,7.19740745399732,0.1367183665112401
25.856984,7.237583253632814,0.1360588483970834
25.861572,7.279880334857414,0.1353238802068939
25.86616,7.318701863005568,0.1346294577188267
25.870764,7.353392773057919,0.1339717408379787
25.875352,7.387672987519206,0.1333007263650605
25.879944,7.413858291951662,0.1327282083268019
25.884523999999995,7.436323673879379,0.1322127655539307
25.889124,7.452493014673564,0.1317735659385234
25.893712,7.463920813801216,0.131402819963608
25.898312,7.481356143185486,0.1309377070058492
25.9029,7.494416485045661,0.1305182250889244
25.907499999999995,7.503512534972807,0.130161704685628
25.912096,7.512608584899954,0.1298054734898889
25.916688,7.51557491985634,0.1295530549280738
25.921284,7.517519635650931,0.1293182935255631
25.925876,7.515500059512495,0.1291448387421568
25.930464,7.511192875622181,0.1290186197096179
25.935064,7.509583995074808,0.1288619254322646
25.939652,7.505931876203851,0.1287390957242137
25.944248,7.500480888437597,0.1286358091179803
25.953432,7.482838274363599,0.1285632020993436
25.958012,7.472279190788377,0.1285422780036726
25.962596,7.463108280517386,0.1284835734009064
25.967188,7.452793566370457,0.1284479051281849
25.97178,7.452206304984879,0.1282755565419701
25.976376,7.449942359418152,0.1281153113509631
25.980964,7.45086545605095,0.1278991857359958
25.98556,7.453176725987979,0.1276459746132347
25.990148,7.450091389239121,0.1274501811964352
25.994728,7.447006052490263,0.1272536177887033
25.999324,7.447352127369221,0.1269883963731165
26.003916,7.450640875019416,0.1266831563350065
26.008512,7.460836587373874,0.1262815135059448
26.013108,7.471809549461833,0.1258786018379163
26.017696,7.483804130711586,0.1254597407410668
26.022292,7.502339122523166,0.1249671661199271
26.026888,7.5247162215536285,0.1244280947494189
26.031483999999995,7.551712677536476,0.1238423302666865
26.036072,7.583084121043417,0.1232219851515184
26.040672,7.610369087903184,0.1226620058923714
26.045259999999995,7.643295030877129,0.1220367137821878
26.04986,7.675732234994491,0.121440301858917
26.054448,7.708702319417064,0.1208587841396769
26.059048,7.739995719658487,0.1202869705611557
26.06364,7.761806036566849,0.1198316320755201
26.068235999999995,7.78308347317,0.1193644963566945
26.072816,7.801418237001918,0.1189366987461576
26.077408,7.821918423871567,0.118475955148714
26.082,7.841519176293568,0.1180227673825428
26.086592,7.865206405362744,0.117512134506737
26.091184,7.888360754126709,0.1169957203220049
26.095768,7.906362865633078,0.1165168619359731
26.100356,7.91471556764361,0.1161139786069569
26.104956,7.921880324329577,0.1156955543172564
26.109544,7.929411635157981,0.1152586658192984
26.114136,7.9299918398334945,0.1148731206165462
26.118728,7.927218676146706,0.114506777355229
26.123316,7.918393840754674,0.1141812204715754
26.127912,7.91017992893337,0.1138257724213641
26.132492,7.908340101511119,0.1133761526741845
26.13708,7.900082048241188,0.1129836574448316
26.141676,7.892068364399548,0.1125786054123389
26.146264,7.885076299719701,0.1121612841335365
26.150872,7.883725211154033,0.1116897739517029
26.15546,7.886871294826602,0.1111813011200077
26.160048,7.893903627166685,0.110669582585851
26.164644,7.904533697297358,0.1101301815264535
26.169236,7.912631790247863,0.1096441585679897
26.173832,7.926370859312544,0.1091068692837827
26.178424,7.943096742597087,0.1085800470820073
26.18302,7.960111136758552,0.108080759339765
26.187608,7.981133964301672,0.1075732299608697
26.192212,8.010784582178834,0.1070183325753067
26.196788,8.042522579828209,0.1064769732374033
26.201388,8.075692892230446,0.1059446207325739
26.20598,8.113893257176134,0.1053941681024817
26.210576,8.15569135991241,0.1048239283338873
26.215172,8.204807122944016,0.1042042728121444
26.219768,8.250369289633658,0.1036504053215447
26.224356,8.293521663857279,0.1031450463533568
26.228952,8.344480437232809,0.1025656358359264
26.233544,8.399036948398932,0.1019693179504117
26.238136,8.450772971507961,0.1013995654758441
26.242728,8.499688506559904,0.1008604633340466
26.247316,8.553589952706671,0.1002803215729857
26.251904,8.607202887976516,0.0996844248941827
26.2565,8.662981246284096,0.0990697906890085
26.261092,8.719248343448257,0.0984346087174752
26.26568,8.773594387002975,0.0978254005347456
26.270268,8.822910378014242,0.097238219332917
26.274856,8.869405880968426,0.096673772689005
26.279452,8.918188991674484,0.0960849136200091
26.284036,8.964395983751745,0.0955115613724776
26.288624,9.012113333847385,0.0949133275745606
26.29322,9.059053434209517,0.0943188995028039
26.297808,9.10047474317162,0.0937591593904724
26.302396,9.142673301867225,0.0932082983480591
26.306988,9.177720526430274,0.0927295525205246
26.311576,9.212357055402256,0.0922348456948434
26.316172,9.24813738825018,0.0917288549172395
26.32076,9.280852863612724,0.091257130925836
26.325364,9.309193351451174,0.0908052318759647
26.329944,9.339577077613209,0.0903359131273696
26.334544,9.37032735791768,0.0898545663461558
26.339132,9.390695120441446,0.089441313990005
26.34374,9.408486764336413,0.0890374484293914
26.348332,9.418061313488405,0.0886754829436768
26.352928,9.426858612906893,0.0883129369423498
26.35752,9.430914370658847,0.087980265658581
26.362116,9.430228586744276,0.0876760266361195
26.366704,9.430930976133933,0.0873476173662989
26.371296,9.425337324390055,0.0870468635842471
26.375896,9.418433542607463,0.0867336999165803
26.380488,9.40294611193946,0.0864736577633171
26.385076,9.386925800966246,0.0862020461839092
26.389664,9.376013585802,0.0858865163655146
26.394252,9.35676209118063,0.0856134344124918
26.398844,9.33902095457764,0.0853108748069394
26.403432,9.324100306031736,0.0849922579133638
26.408028,9.304682485247591,0.084690881079314
26.41262,9.282688545834652,0.0843944330497854
26.417208,9.262737844745295,0.0840803036287784
26.421808,9.242909328370088,0.0837610983589812
26.426396,9.21887215063356,0.0834792985754515
26.430992,9.201375383458856,0.0831628225610373
26.43558,9.185188746322863,0.0828590491761975
26.440168,9.177341388643995,0.0825150371227375
26.444764,9.172070149593926,0.082166546930202
26.449356,9.17154045221039,0.0817918875372608
26.453956,9.181515457321703,0.0813585273357701
26.458548,9.193167146614169,0.0809256751204738
26.463136,9.20997107316423,0.0804849809999678
26.467732,9.229761813934154,0.0800586687985188
26.472324,9.258669083894702,0.0795970622770378
26.47692,9.287987049446317,0.0791540613536459
26.4815,9.319881133626728,0.0787130066504341
26.4861,9.36011449726426,0.0782372419495266
26.490688,9.406888271463622,0.0777377052880105
26.495292,9.452396057072896,0.0772590555273661
26.499884,9.50330044936806,0.076766302578795
26.50448,9.556780960292018,0.0762717515086185
26.509064,9.610794351521193,0.0757934377297947
26.51366,9.665584992483865,0.0753218916830025
26.518248,9.724339925379567,0.0748263835263271
26.522844,9.781295989379974,0.0743399534384767
26.527432,9.84131691086576,0.0738374417293735
26.53202,9.898272974866169,0.0733621910786206
26.536608,9.955229038866577,0.0728918238325486
26.541204,10.008587365076387,0.0724333365834013
26.545792,10.056060345743736,0.07201269902456
26.550388,10.101978826944077,0.0715910667055834
26.554992,10.14622062396327,0.0711729571015077
26.559584,10.189030106229604,0.0707492729671884
26.564176,10.229263469867137,0.0703313037461378
26.568756,10.270885006808903,0.0698968638861078
26.573352,10.305066698741197,0.0694896677818407
26.57794,10.336672272044687,0.0690876841404833
26.582532,10.362881238662291,0.0687012966752439
26.587128,10.38880169440298,0.0682969581029107
26.591716,10.41112441235308,0.0679016512637686
26.596312,10.436756357216844,0.0674834000564128
26.6009,10.460056552880106,0.0670591648278292
26.605488,10.481680064362216,0.0666360280857
26.610084,10.504569564434412,0.0662013992904165
26.614676,10.5277034339349,0.0657598013681376
26.61928,10.544419077587706,0.0653344956666221
26.62386,10.559335852345216,0.0649128065930994
26.62846,10.572575942921578,0.0644915303424881
26.63304,10.58965814071682,0.0640574211985225
26.63764,10.606207458206852,0.0636128976984616
26.642223999999995,10.62431127516389,0.0631759528309229
26.646824,10.640738407939777,0.0627385393160689
26.65142,10.65446723737272,0.0623056156022357
26.656016,10.66574213289101,0.0618687572457149
26.6606,10.676117593961656,0.0614353227468187
26.665196,10.688414108641735,0.0609946261914578
26.669796,10.694292397474142,0.0605648119692291
26.67438,10.69722801353531,0.060146066040749
26.678972,10.698897641006395,0.0597409478691565
26.683568,10.702732691515212,0.059322147891077
26.688156,10.70068239648156,0.0589268349446778
26.692748,10.700430970343204,0.0585301418756499
26.69734,10.6992801097572,0.0581344413342625
26.701932,10.694409326666458,0.0577466489681235
26.706524,10.691459597185156,0.0573542480970235
26.71112,10.687732617970354,0.0569565783109051
26.715716,10.68461656232628,0.0565384361886928
26.720296,10.681744876110496,0.0561126890896868
26.724888,10.677973755447066,0.0556891059644893
26.729476,10.67318101562184,0.0552694425320067
26.734064,10.664135472986668,0.0548446023629163
26.73866,10.65611154951329,0.0544150528729306
26.743248,10.647066006878116,0.0539883861572568
26.747852,10.640840952300032,0.0535561801039244
26.752444,10.631018159931356,0.0531252639807332
26.757036,10.62438240976221,0.0526778396772091
26.76164,10.626085939050183,0.0522184241088502
26.766228,10.6297105219476,0.0517533501331152
26.770824,10.632680039825656,0.0512801092310194
26.775412,10.631685265770686,0.0508197460907517
26.780012,10.63171211087751,0.0503544523817104
26.7846,10.623932556832424,0.0499087491480407
26.7892,10.614231949177894,0.0494660701220572
26.793788,10.60326535293328,0.0490337840248455
26.798396,10.58322636894667,0.0486328878332606
26.802988,10.564741884427065,0.048237559275116
26.807584,10.542703803565496,0.0478687353025196
26.812176,10.515435442180816,0.0475224099168609
26.816772,10.484080604148955,0.0471911485346517
26.82136,10.44941653920343,0.0468777213622654
26.825956,10.415285354563114,0.0465742939783455
