Time,Force,Position
25.644628,5.95366585065932,0.1574343281441356
25.649224,6.055716512622987,0.1568397117041317
25.65382,6.13975800637022,0.156287875635998
25.658424,6.207833570224606,0.1557281735490323
25.663004,6.257489270271491,0.1551678781975293
25.667604,6.284516445149557,0.1547365674522972
25.672183999999994,6.298774971966038,0.1543483445920434
25.676772,6.30574974030408,0.153998242181787
25.68136,6.304918109490211,0.153812850655988
25.685952,6.310260335095731,0.1535303327071724
25.690532,6.31703487545411,0.1532437475422321
25.695128,6.328306588050727,0.152881676828918
25.699715999999995,6.340189224218073,0.1524804038654216
25.704311999999994,6.358323760070327,0.1519318070434324
25.7089,6.380666957283901,0.1512909625137588
25.713488,6.4021107200498255,0.1506624857728979
25.718076,6.416158779254904,0.1502165359814521
25.722676,6.427919230708106,0.1498311933371011
25.727264,6.442377985504249,0.1494050844728
25.731852,6.449685406167839,0.1491392390729252
25.736444,6.458547326298433,0.1488650525491195
25.741032,6.464510715106419,0.1486958490811284
25.745628,6.4773030253531525,0.1484431043800746
25.750215999999995,6.492304900086247,0.148185430315956
25.754804,6.513891326829796,0.1478592579172846
25.7594,6.538586752507353,0.1475101687758117
25.763988,6.56303780875662,0.1471775321845483
25.76858,6.585978506987509,0.1469008814489896
25.773171999999995,6.614071442475994,0.1465567953817251
25.777764,6.641142758802686,0.1462396274841961
25.782356,6.667192455967584,0.145944361005484
25.78694,6.692587088113126,0.1456504616124584
25.791543999999995,6.716305036077518,0.1453795061575504
25.796132,6.733194062603163,0.1451914242172543
25.800732,6.743909232709421,0.1450886255272871
25.805324,6.758588694748706,0.1449119858634011
25.809923999999995,6.773756895644573,0.1447009538358865
25.814512,6.791457073720611,0.1444147893856053
25.819104,6.805803883434349,0.1441661440521988
25.823696,6.827424211994786,0.1437644497990634
25.828292,6.84413667272592,0.1434101304407385
25.83288,6.8654243489608096,0.142947377044698
25.837475999999995,6.881437603223958,0.1425572396391446
25.84208,6.891932066087074,0.1422490629532113
25.846675999999995,6.900339149177976,0.1419410888349137
25.851264,6.909112786411313,0.1416112678103697
25.855864,6.919152412234736,0.1412470721868042
25.860456,6.934300133867127,0.1407886254470456
25.86504,6.951857647965541,0.1402748206572587
25.869628,6.966350304578574,0.1398181624186464
25.874227999999995,6.979943526743959,0.139371264926802
25.878816,6.994313998642848,0.1389237860191715
25.883408,7.004065113589351,0.1385405165050024
25.888,7.019212835221741,0.1380886257909899
25.892579999999995,7.03718104491122,0.1375966447990227
25.897175999999995,7.053594755133695,0.137117753733679
25.901756,7.074094942003344,0.1365654583886043
25.906344,7.097293432215936,0.1359846427763485
25.910936,7.1213913568761775,0.1353929585188605
25.915524,7.141647174317535,0.1348663233425435
25.920128,7.165500729549485,0.1342979405257254
25.924724,7.182813874219608,0.1338244610548397
25.92932,7.199471953870375,0.1333473012042516
25.933924,7.222137563777757,0.132771115617533
25.938512,7.24840091147573,0.1321597731028448
25.943107999999995,7.272743205564262,0.1315776326429834
25.947696,7.298107118814586,0.1309829009826672
25.952288,7.313210698998349,0.1305228692906963
25.956868,7.323572737515581,0.1301314042986154
25.961472,7.338143437394133,0.1296645306863782
25.966055999999995,7.355412440615628,0.1291669655035102
25.970656,7.369983140494178,0.1287014062922652
25.975252,7.393548184849207,0.1281379079519713
25.979844,7.415969425328298,0.1276045422675113
25.984424,7.434304189160215,0.1271390150397035
25.98902,7.452272398849694,0.1266972392803288
25.993607999999995,7.468730250520797,0.1263031538256527
25.9982,7.485310286906046,0.1259078012478059
26.002787999999995,7.502667573024796,0.1255112802813359
26.007376,7.520924293591195,0.1251070681246656
26.011964,7.539058829443448,0.1247135667042065
26.016563999999995,7.558870049476851,0.1243078563968374
26.021152,7.581379572853199,0.1238771029577482
26.025748,7.603400357372964,0.1234793265901275
26.030339999999995,7.619535796350259,0.1231634546142263
26.034928,7.638613908098789,0.1228093948787011
26.039528,7.653849912628435,0.1225042934782408
26.044115999999995,7.679590619652937,0.1220708580808836
26.048711999999995,7.709828498915678,0.121597914944866
26.0533,7.739044759016625,0.121144991137577
26.057888,7.773369114926538,0.1206261717431624
26.062484,7.809492339731749,0.1200922592751685
26.067063999999995,7.840707696707653,0.1195894981284574
26.071652,7.870490738930701,0.1190870449311416
26.076248,7.901661954457979,0.11854890676085
26.080828,7.9330775394135475,0.1180011957116255
26.085424,7.964082428778052,0.1174382382016714
26.090004,7.99136739563782,0.1169172073587757
26.094604,8.018363851620666,0.1163753031615021
26.099191999999995,8.043561438708219,0.1158500332765756
26.103796,8.065283472719322,0.1153505699350499
26.108388,8.089048745054017,0.1148258817409601
26.112984,8.111914582941061,0.1143127211884597
26.117576,8.129505998856365,0.113838962232567
26.122172,8.151183891418842,0.1133113941028559
26.12676,8.172084534247817,0.1127890667315666
26.131356,8.200791576228706,0.1121829148689242
26.135943999999995,8.226555945438356,0.1116189411889696
26.140536,8.245124839066825,0.1111122354380922
26.145124,8.267535839914178,0.1105719954747407
26.149712,8.28046375742847,0.1101267928249666
26.154304,8.289916121866312,0.1097022335534853
26.158904,8.300267920751807,0.109272854622314
26.163492,8.311396969370803,0.108844312873656
26.16808,8.326245940494534,0.1083858904033704
26.172676,8.340439846598908,0.107924135712544
26.17726,8.354511567989137,0.1074694168391071
26.181847999999995,8.368461104665219,0.1070202043613274
26.186428,8.382943521646517,0.1065842902797742
26.191016,8.39856974250375,0.1061308107072142
26.195623999999995,8.417671516437428,0.1056590526722689
26.200212,8.434074987028163,0.1052077257948795
26.2048,8.451500076780693,0.1047475549984126
26.209396,8.475587761809194,0.1042296452955939
26.213984,8.501596500447135,0.1037006050959892
26.21858,8.527849608513367,0.1031641452743623
26.223172,8.546418502141838,0.1027009503915856
26.227764,8.560612408246211,0.1022611725488889
26.232352,8.580691659893056,0.1017651170889796
26.236951999999995,8.593331066530427,0.1013277107094794
26.24154,8.610712014834327,0.1008505232231974
26.246144,8.6347555584142,0.1003202870681115
26.250732,8.655856429222839,0.0998187706864732
26.255316,8.67540280056447,0.0993185428483171
26.259912,8.695315726048541,0.0988076939160754
26.264503999999995,8.714207032370819,0.0983087176585786
26.269104,8.73411995785489,0.0978010315696042
26.2737,8.758119359986134,0.097253901945679
26.278296,8.784284185155112,0.0966852575981913
26.282896,8.813636052523618,0.0960853255039213
26.287484,8.841799974567556,0.0954720206015038
26.29208,8.870452635468075,0.0948381949104777
26.296668,8.894730308844501,0.0942242403901203
26.301255999999995,8.913733560249185,0.0936368356814463
26.305844,8.923620282463245,0.0931010820134602
26.310444,8.934162069696661,0.0925745307942998
26.315031999999995,8.948013083843753,0.0920087454954798
26.319612,8.968404508552668,0.0914038402536603
26.324212,8.985198195470991,0.0908186871468209
26.3288,9.00379075128461,0.0902232689251822
26.333392,9.022627676526522,0.0896206257038939
26.337979999999995,9.036967429530195,0.0890431273405735
26.342568,9.05539365918104,0.0884300412307003
26.347176,9.074719323279531,0.0878140998244533
26.351755999999995,9.088281826549698,0.0872397461888784
26.356344,9.102988133695808,0.0866520440978165
26.360932,9.119982048593794,0.0860406735313631
26.365524,9.132600975967687,0.0854459610512116
26.370116,9.140478361675047,0.0848819918135754
26.374696,9.145046520468735,0.0843571450845522
26.379296,9.147327071510547,0.0838594947757491
26.383888,9.15398261007645,0.0833520354169242
26.388484,9.162314832823506,0.0828415531379103
26.393068,9.173100989485214,0.0823315018990826
26.397668,9.18916156811866,0.0818036691907692
26.402252,9.201746593675662,0.081285688438911
26.406848,9.212044011480788,0.0807957675842623
26.41144,9.218621506781176,0.080327085108182
26.416032,9.229573989605656,0.0798491451660494
26.420624,9.24179246102022,0.0793538203288783
26.425216,9.251068259663551,0.0788783815488095
26.429804,9.261121308040384,0.0784056074644128
26.434388,9.27003055254128,0.0779484373391546
26.438976,9.276896558718589,0.0775068035276495
26.443576,9.285683618505336,0.0770535440073888
26.448164,9.296924612206736,0.0766040689884705
26.452763999999995,9.302158075651525,0.0761967937403155
26.457356,9.311399972477966,0.0757966502399382
26.461935999999994,9.323584542075642,0.0753794308197481
26.466536,9.336013481101611,0.0749534783162086
26.47112,9.356126634565346,0.0744908257675683
26.475711999999994,9.372397680810195,0.0740512749288008
26.480296,9.392510834273931,0.073594802406116
26.484888,9.411968922718312,0.0731333141970627
26.489476,9.431793565305128,0.072659056342861
26.49406,9.454316511234888,0.0721790093278251
26.498652,9.477206011307082,0.0716853547993386
26.503243999999995,9.500095511379277,0.0711934687604725
26.507824,9.520286708108529,0.0707113499046067
26.512428,9.545097261790165,0.0702187589437394
26.517016,9.575670976300126,0.0697031832996245
26.521615999999995,9.607921374991236,0.0691912340037691
26.526204,9.638372904787053,0.0686853319047617
26.530804,9.672788726515895,0.0681599731353804
26.535396,9.71092447074948,0.0676262826836335
26.539984,9.746606281068406,0.0670930269385313
26.544576,9.785352948872715,0.0665412871468023
26.549172,9.823566736371816,0.0659828338684212
26.55376,9.859737285547329,0.0654391519452405
26.558352,9.896274388865274,0.0648850498322132
26.562943999999995,9.924594397440249,0.0643539766556496
26.567536,9.952137156281715,0.0638211681521408
26.572128,9.976981611780245,0.0632965075399814
26.576712,10.00374712088821,0.0627679822285318
26.581292,10.03218931417733,0.0622442057005253
26.585888,10.060753692180592,0.0617191542814834
26.59048,10.093037992688592,0.0611883136050038
26.595071999999995,10.125322293196591,0.0606595075389566
26.599668,10.157728778418738,0.0601286153352691
26.604256,10.18359485307906,0.0596178475707257
26.608847999999995,10.20664043968229,0.0591189940497705
26.613436,10.22518885404728,0.0586258632493961
26.618024,10.242593464536336,0.0581419262589714
26.62264,10.257299771682444,0.0576627261948071
26.627227999999995,10.266242918000229,0.0572024889413297
26.631823999999995,10.27494169488972,0.0567516001308371
