Time,Force,Position
25.129520000000003,6.034964873872856,0.1603430771685908
25.13412,6.128455549136261,0.1595469915486912
25.138704,6.202382556716225,0.1588567351283775
25.143296000000003,6.261487438279284,0.1581351733761289
25.147904,6.300584054750948,0.1575824706030804
25.1525,6.327689272894529,0.1570874574168305
25.157088,6.337661095084172,0.1568594878335795
25.16168,6.346244743969587,0.1566849214665774
25.166268,6.358959010950802,0.1564578462660267
25.170864,6.373349962113169,0.1562100417354983
25.175452,6.393049237064163,0.1557788459155252
25.180036,6.409351002204232,0.1553500144088985
25.184624000000003,6.421522149248498,0.1549730816782704
25.189216,6.427807950750294,0.1547239465550509
25.1938,6.435403882290803,0.1544812910340691
25.198388,6.44671973633605,0.1541720586224794
25.20298,6.452150244838826,0.1539848660052991
25.207568,6.458724557217542,0.1537662172349619
25.221348000000003,6.448077190745064,0.153695497204442
25.225956,6.45211952594361,0.153557012447993
25.230544,6.4550180572662175,0.1534501806266165
25.235132,6.458693838322326,0.1533377079570366
25.239724,6.462736173520871,0.1531995142910762
25.244312,6.463180770928826,0.1531206166336782
25.248908,6.471431767488691,0.1528822831064285
25.253488,6.478372634009843,0.1526400727388601
25.258088,6.482326686311133,0.1524133443252069
25.262676000000003,6.48497060857371,0.152182851905186
25.267276,6.484016793045695,0.1520110009025076
25.271864,6.482774466640761,0.1518117873223911
25.27646,6.4848413671495,0.1515292696289528
25.281044,6.490461864000201,0.1511472604052349
25.28564,6.493628426936249,0.1507921832563285
25.290232,6.4942188712435005,0.1504719155116174
25.29482,6.504536768312104,0.1499676904084617
25.2994,6.519474022333092,0.1493956647831205
25.303972,6.540951686915904,0.1487154241638438
25.308548,6.567048708451104,0.1479575233839994
25.313132,6.595599663900956,0.1471804042465004
25.317716,6.623661880494224,0.1464457411990443
25.322292,6.657653584078592,0.1456490234660687
25.326884000000003,6.692055983254025,0.1448772321357438
25.331472,6.7295673813634656,0.1440913422577972
25.336056000000003,6.773008266464005,0.1432472588156061
25.340656,6.8132621093650165,0.1424847318255405
25.345244,6.8574022009335405,0.1417074582589138
25.349832000000003,6.907471779493161,0.1408741656057404
25.354424,6.956153184748553,0.1400846613697532
25.359012,7.006633458899239,0.1392788363889477
25.36362,7.05584774445984,0.1385095349029851
25.36822,7.103918226144502,0.1377767247401951
25.372812,7.1491682197720765,0.1370928269104163
25.3774,7.193108083360938,0.1364024013679467
25.381996,7.234227458892708,0.1357516496646954
25.386584000000003,7.267129739681503,0.1352204496046939
25.391184,7.292059295155613,0.134789546640441
25.395772,7.31310260196221,0.1343824670544307
25.400372,7.334346136748472,0.1339247002785712
25.404964000000003,7.355667714800252,0.1334256629294739
25.409556,7.375146282508108,0.1329121765416137
25.414136000000003,7.389184102081448,0.1324259938659083
25.418728,7.40011292272078,0.1319533820754001
25.42332,7.408587809445459,0.1315001522014503
25.427912000000003,7.411255393893186,0.1310928166707403
25.432492,7.410447425264467,0.1307185590607506
25.437084,7.404487219378154,0.1303921538009713
25.441664,7.391986602930014,0.1301510635054513
25.446256,7.381895778947896,0.1298541180871425
25.450840000000003,7.368085032461043,0.1296040576999772
25.455416000000003,7.358116393193072,0.1293001174472898
25.46,7.346348885029805,0.129015773624865
25.46458,7.338056929942986,0.128699311064469
25.469168,7.333895592951967,0.1283553189552822
25.47376,7.336519035951065,0.1279167414672166
25.478348,7.343517466474257,0.1274370087409534
25.482936,7.352314765892746,0.1269361718372015
25.487532,7.360501141740504,0.1264698558317532
25.492108,7.365256105960447,0.1260747004670071
25.496704,7.365558039390779,0.1257666628554219
25.50128,7.365615603392819,0.1254729749456996
25.50588,7.368127101309513,0.1251653643239663
25.51046,7.374236337016796,0.1248212927906703
25.515056,7.3816115613141635,0.1244487906744451
25.519648,7.392340153973832,0.1240544125473061
25.524244,7.408587538033533,0.1235997448504057
25.528836,7.431497517369208,0.1230659645689719
25.533432,7.460170657533204,0.1224591651655195
25.53804,7.490398297164206,0.1218553814774244
25.542632,7.525123109033446,0.1212105106175683
25.54722,7.557926867293245,0.1205961972795273
25.551808,7.591507875286548,0.119980040944947
25.556388,7.625455437422287,0.1193533428651555
25.560976,7.657481945948585,0.1187553762059456
25.565564,7.689264085046592,0.1181814832491415
25.570156,7.719125170535157,0.1176330817976396
25.57474,7.751684559366664,0.117063810728934
25.579328,7.789229859292994,0.1164348017206257
25.583928,7.832049581191066,0.1157687823791595
25.588516,7.877811975860373,0.1150662476303829
25.593108,7.923085631673097,0.1143911831127677
25.5977,7.967093298895736,0.1137465035504183
25.602288,8.009179912508934,0.1131280077795045
25.606896000000003,8.050000537532046,0.112540121356612
25.611484,8.089266663088154,0.1119591622446015
25.616088,8.12583448530132,0.1114056910537932
25.620676,8.153818658629072,0.1109456876739609
25.625264,8.176406225270936,0.1105306101752038
25.629864,8.19143176218918,0.110191094987841
25.634452,8.203103930745126,0.1098696747111548
25.639056,8.213099415119919,0.1095569016461583
25.643644,8.226159756980095,0.1092067178515538
25.648248,8.233334753297799,0.1089235036112755
25.652824,8.241897922919737,0.1086108079553512
25.657424,8.243021247532198,0.1083650956731946
25.662012,8.246309995182393,0.1080885522375776
25.666612,8.249598742832585,0.1078137250037907
25.671196,8.252643121054488,0.107553893511293
25.675788,8.252211946199948,0.1073150303888895
25.680376,8.250348456592544,0.107071344915383
25.684972,8.24885152112758,0.1068100648399833
25.689568,8.249153454557911,0.1065368764128811
25.694168,8.251498626311827,0.1062404745696247
25.69876,8.252699994189804,0.105961736639935
25.703352,8.254434242372994,0.1056949180170649
25.70794,8.255801936413746,0.1054457363914072
25.712524,8.264731660178118,0.1051306875461798
25.717112,8.282900097847259,0.1047467257457619
25.721696,8.310673803563608,0.1042751640128444
25.726292,8.342822496804049,0.1037837903283388
25.730872,8.378691112549228,0.1032668900090788
25.735464,8.41083980578967,0.1027824786318167
25.740044,8.450672713467878,0.1022329649971454
25.744632,8.49038343643194,0.1016955038939269
25.74924,8.538677808281417,0.1010883890947188
25.753828,8.586194930397388,0.1004875587660706
25.758436,8.631013749170421,0.0999062401590912
25.763024,8.671457580419357,0.0993512123405767
25.767628,8.713167400258378,0.0987774968828743
25.772216,8.7582305884597,0.0981984200444479
25.7768,8.80329377666102,0.09762152733009
25.781396,8.847946269271276,0.0970325857450583
25.785976,8.890677708272092,0.096463362270396
25.790572,8.938761612510167,0.0958362805235047
25.795152,8.987334255604821,0.0951916905042242
25.799752,9.03868324530794,0.0944992934389171
25.80434,9.08463562832517,0.0938407438432078
25.808928,9.12224873188528,0.0932421821016964
25.813508,9.15422085933121,0.0926870882584912
25.818104,9.18283961841484,0.0921443465270635
25.822692,9.207982824422023,0.0916174751211948
25.827288,9.2333703998575,0.0910806395725608
25.83188,9.252217564731154,0.0905878421124189
25.836472,9.2695102301378,0.090096042066702
25.84106,9.278707985515611,0.0896436832404859
25.845644,9.28700630644578,0.0891969892272984
25.850232,9.295426812090092,0.0887449844843806
25.854828,9.305890556057992,0.088275880629253
25.85942,9.314799800558886,0.0878059275348848
25.864008,9.322398915021068,0.0873265912407621
25.868604,9.332407821949277,0.086816789907229
25.873188000000003,9.340862229410478,0.0863058576767438
25.877784,9.350826994890053,0.0857681588257358
25.882372,9.355395153683745,0.0852546027370972
25.88696,9.358286628296284,0.0847440965113238
25.891552,9.358235430137588,0.0842552755828365
25.89614,9.361249089464271,0.0837419017417153
25.900740000000003,9.365528737381045,0.083209715767201
25.905332,9.371196558602044,0.0826550396339871
25.909920000000003,9.376986564537187,0.082096595293051
25.914516000000003,9.38457543936763,0.0815327974324233
25.919096,9.397028040578748,0.0809420651742042
25.9237,9.410746630379952,0.0803331651868306
25.928288,9.42434303546701,0.0797307311052816
25.932884,9.444479851115894,0.0790989200627322
25.937464,9.46281779786948,0.0784735193036576
25.942064,9.48307679823251,0.0778390643561902
25.946656,9.498472072214865,0.0772330847195875
25.951248000000003,9.517220714559514,0.0766285802392526
25.95584,9.53368174915229,0.0760504039425877
25.960436,9.550797848764422,0.0754841622572078
25.965028,9.567425209519971,0.0749372571893278
25.969624,9.581642777809495,0.0744207401085947
25.974212,9.598314280013676,0.073907206795184
25.978808,9.61960513917024,0.0733802560089385
25.9834,9.644371551403246,0.0728513706462207
25.987984,9.67069246310326,0.0723315244654978
25.992568,9.699833862860364,0.0718033168989978
25.997164,9.729752512350966,0.0712807012197742
26.001756,9.75660630435619,0.0707785637186523
26.006344,9.781783412180262,0.0702781494808474
26.01094,9.802874043357162,0.0698082740981299
26.015528,9.829483465934098,0.0693259809830621
26.020112,9.854049650187443,0.0688570663479108
26.024696,9.87465154250776,0.068411976049407
26.029284,9.901016595656404,0.0679453569156284
26.03388,9.927626018233331,0.0674728838785858
26.038464,9.961020220800386,0.0669718062339408
26.043052,9.990816685576844,0.066480585651744
26.047652000000003,10.022001323657534,0.0659714753098237
26.052244,10.048444420071691,0.0654816724122964
26.05684,10.078973993133024,0.0649708395527495
26.06142,10.108970685889147,0.0644486200816818
26.066016,10.136024705874034,0.0639406919024127
26.070604,10.15641613058295,0.0634584121674765
26.075208,10.174109251948922,0.0629831360126778
26.079792,10.187305201076654,0.0625163491377208
26.084392,10.1984579118808,0.0620629512074045
26.088980000000003,10.208711188237295,0.0616124229500727
26.093572,10.223950375688617,0.0611393361451649
26.09816,10.23906737842579,0.0606709852970516
26.102756000000003,10.255450369753046,0.0601904741883854
26.107348,10.26337189690904,0.0597341655391351
26.111936,10.274358281550414,0.0592624056307811
26.116516,10.283667982010634,0.0587876272099892
26.1211,10.2850490986048,0.0583469500931161
26.125676,10.288106899380113,0.0579109744669032
26.130276,10.287322592936546,0.0574883448089619
26.134864,10.29038039371186,0.0570554373623352
26.139452,10.293971074792386,0.056635299210654
26.14404,10.296784506139408,0.0562104718225687
26.14862,10.29767688387699,0.0557934388084149
26.153208000000003,10.30204481469102,0.0553785163879824
26.1578,10.310377037438071,0.0549493653330519
26.162388,10.319486509918637,0.0545224399565829
26.167,10.3275743632374,0.0541006105052067
26.171588,10.337094531309022,0.053689896799133
26.176176,10.342406038019323,0.0533009457317942
26.180772,10.346451556139543,0.0529251376545197
26.185364,10.348453835936176,0.0525598267417753
26.189956,10.35315441907575,0.0521941102179509
26.194544,10.352746906406358,0.0518503787659253
26.199144,10.350051785985087,0.051521051505869
26.203732,10.341471320021348,0.0512093879837662
26.208332,10.337143656867555,0.0509041794940859
26.21292,10.335636481770852,0.0505926872224165
26.21752,10.323258050036856,0.0503163445846669
26.222116,10.307448206675048,0.0500645742507695
26.226708,10.280767106675942,0.0498477024597071
26.231304,10.24730122668672,0.0496479840242945
26.235896,10.215267661450358,0.0494589923361595
26.240488000000003,10.175305512347938,0.0492952048626849
