Time,Force,Position
32.40988,2.2985701935276883,0.1688598376422466
32.414476,2.419841631217506,0.1654006646775402
32.419072,2.540203394827937,0.161889475960807
32.423652,2.653115073797155,0.1587126264970066
32.428248,2.757921603105804,0.1558333205109099
32.432836,2.855155863059094,0.1532534887273834
32.43744,2.944162788637669,0.1508754636065655
32.442032,3.0199564687467078,0.1489554694433832
32.446624,3.0876449991951755,0.1471122810124847
32.45122,3.148249999144868,0.1452291436416189
32.455812,3.1926990808537883,0.143840064340835
32.460404,3.2298202626356423,0.142492644607164
32.464996,3.259369175062136,0.1412012912913055
32.469596,3.279424764523831,0.1400100195756848
32.474192,3.286433434678763,0.1391097439189619
32.47878,3.286202487803883,0.1383644512764577
32.483364,3.280452749528971,0.1377987470513645
32.487956,3.278667303187087,0.1370810439145689
32.492536,3.27303974962632,0.136501107781434
32.497124,3.2651245883136752,0.1360382639136542
32.501716,3.2544330803925683,0.1357554281691912
32.506308,3.2491381791573493,0.1353227962328376
32.510888,3.237469193523077,0.1351671765489779
32.51548,3.2280097723751666,0.1350015667906396
32.520064,3.219493927123532,0.1348993911890975
32.524652,3.211388777462963,0.1348359769549905
32.529247999999995,3.204349388412816,0.1348196875308111
32.538428,3.198453803238607,0.1347483565069059
32.543024,3.200008302705611,0.1347325226543528
32.54762,3.2095355274873008,0.1345167058798374
32.556808,3.2233257947106764,0.1344967176700275
32.561412,3.2349064974476915,0.1344880855522714
32.565999999999995,3.256258794394688,0.1342472862846573
32.570596,3.275856363895016,0.1341393007924425
32.575176,3.29754131316756,0.1340395427478128
32.579775999999995,3.321802381068901,0.1339041734979118
32.584368,3.3506828059226272,0.1336501749194656
32.58896,3.3802182957957103,0.133401728248871
32.593556,3.4157613159254083,0.1329549430220576
32.598152,3.449916162750876,0.1326015990293363
32.60276,3.491510854585818,0.1320566052376739
32.607352,3.534004980868408,0.1315059947852893
32.611956,3.578542345474585,0.1308931182799319
32.616548,3.621813721490677,0.1303383234807792
32.621152,3.665984531954416,0.1297668943387076
32.625748,3.71399744963704,0.1291060917714847
32.630336,3.765730289824399,0.1283622205535697
32.634928,3.812965957773519,0.1277179522974424
32.639508,3.856115149075465,0.1272146818856543
32.644092,3.902084828434501,0.1266412920119249
32.648684,3.947932323079391,0.1260724868910289
32.653276,3.9923475029714215,0.1255243792842198
32.657872,4.02985571815919,0.1251859985398064
32.66246,4.070306606118193,0.1247659196972827
32.66706,4.109325179324337,0.124341419519831
32.67164,4.143480026149805,0.1240571319998159
32.676232,4.174692200204037,0.1238588964195881
32.680828,4.209213601171942,0.123554155970173
32.685416,4.238216210739815,0.1233718623287418
32.690012,4.26962861277371,0.1231039520551151
32.6946,4.294089908654715,0.1229472977037327
32.699188,4.314953466745128,0.1228553348284269
32.703784,4.333240906206743,0.1228008730808539
32.708376,4.353405257829172,0.1226362025863157
32.71298,4.3741805330223285,0.1224174108878342
32.71756,4.389681386243745,0.1222828663000688
32.72216,4.400929436655211,0.1222020069025643
32.726748,4.414709464246849,0.1220219412725732
32.731348,4.430122034571008,0.1217576065005561
32.735936,4.442303421247011,0.1215195878465851
32.740528,4.455995165941392,0.1212098536028549
32.745124,4.466333542273475,0.1209386901542252
32.74972,4.477893765747012,0.1205533182118399
32.754312,4.484546121391244,0.1202098005658322
32.758908,4.4925866503397085,0.1198077511857848
32.763496,4.501770983164112,0.1193689431726195
32.768092,4.509767370663948,0.1189025940750849
32.772684,4.511223347601957,0.1185609375716104
32.777276,4.516643616472994,0.1181309472309127
32.781868,4.517566713105793,0.1177742390738768
32.786452,4.520410863348033,0.1173774994385796
32.791039999999995,4.5217005141232685,0.1169828487429014
32.795636,4.524256153488588,0.1165417972697391
32.800232,4.527222488444973,0.1161351712715012
32.80482,4.52622453146833,0.1158168530973438
32.809408,4.525104389777542,0.1155085402810981
32.813996,4.5266825514296976,0.1151601758712561
32.818588,4.529815212548856,0.1148107152871873
32.823172,4.532048439220368,0.1144758287637236
32.82776,4.53620271950132,0.1141043479044094
32.832372,4.539579750048771,0.1137367027172542
32.836956,4.547453952834462,0.1133090096583865
32.841548,4.555494481782926,0.1129354493518703
32.84614,4.567909998255482,0.1125101156677913
32.850728,4.5790595261379545,0.1121316266684943
32.855324,4.588410185125132,0.111777862989707
32.8599,4.6008698430463175,0.1114202652138037
32.864504,4.617826673205742,0.1110001975524885
32.869084,4.629553222842054,0.1107064784655179
32.873684,4.641690468069431,0.1104422948470427
32.878272,4.656281647211459,0.110166202734818
32.88288,4.679089921096464,0.1097763385068073
32.887471999999995,4.700387836963092,0.1094527232357171
32.892068,4.720908503096219,0.109134352090254
32.89666,4.745926341467586,0.1087588001894339
32.901247999999995,4.776340786524838,0.108319356029126
32.905836,4.803812558810857,0.1079365305775906
32.910432,4.82834165832564,0.10761222973271
32.91502,4.853403638145634,0.1073090386503081
32.919612,4.878998498270839,0.1070291278072429
32.9242,4.90668073816826,0.1067705001579887
32.928784,4.930398686132652,0.1065897907759672
32.933372,4.957181491582423,0.1063525453196946
32.937968,4.987317665394496,0.1061014255897491
32.94256,5.021051576997159,0.1058139248095021
32.947148,5.059527030266355,0.1054620318084258
32.951744,5.098369037677986,0.1050906238681576
32.956328,5.139254283413205,0.1046910450846802
32.960924,5.185247624957391,0.1041972145836519
32.965512,5.236471247024691,0.1036105472707203
32.9701,5.286018184910841,0.1030420101428993
32.974704,5.3318452002922525,0.1025358349667659
32.979284,5.381103627301482,0.1019556005661609
32.983876,5.434081976815448,0.1013448769293963
32.988468,5.4875490651859975,0.1007138510879011
32.99306,5.5370077201748895,0.1001025559342896
32.997656,5.592718274848689,0.0993935732763331
33.002236,5.651738056436162,0.0986263899629271
33.00684,5.713411999917948,0.097797302805848
33.011428,5.776718486132258,0.0969249871842542
33.01602,5.840103015612085,0.0960089982519638
33.0206,5.904875718396141,0.0950566328367889
33.0252,5.96347456476081,0.0941561313910145
33.029796,6.013689990219728,0.093294953002253
33.034392,6.060796416744636,0.0924409781634336
33.038972,6.102628421297803,0.0916285851181595
33.043568,6.143028111098112,0.0908177399855453
33.048156,6.177376129193178,0.0900434338253602
33.052752,6.208615148354234,0.0892714904048295
33.05734,6.2325365072199626,0.0885647418575272
33.061928,6.256824420228127,0.0878395572252907
33.066512,6.278780584035784,0.0871131056625166
33.071112,6.297916259786356,0.0864189870495208
33.075696,6.312021882993475,0.0857441914218862
33.080292,6.32150814924821,0.0851085010778368
33.084888,6.333037653826531,0.0844512316722979
33.089464,6.337005128681232,0.0838636224529111
33.09406,6.340317538516576,0.0832724282961244
33.098648,6.339665656418894,0.0827262984278226
33.10324,6.333494982921177,0.0822177091617068
33.107836,6.323360017490431,0.0817502681091682
33.112416,6.311548367878537,0.0812848225144878
33.117024,6.302435021609585,0.0808033519141899
33.121616,6.299084836168958,0.0802712702165514
33.126204,6.292014728223594,0.0797622186116065
33.130792,6.285844054725877,0.0792467041573796
33.135384,6.273788035685691,0.078784886167747
33.139987999999995,6.264308135274304,0.0783148944946223
33.144563999999995,6.253195692130394,0.0778914462084009
33.149164,6.244004302595926,0.0774493224995324
33.153752,6.232114609718514,0.0770194344584871
33.158352,6.222023785736397,0.0765806224691331
33.162936,6.211155712020778,0.0761378562617668
33.167536,6.199143834429221,0.0757118296809834
33.17212,6.188930825732959,0.0752762320554806
33.176716,6.172588102065935,0.0749075003785985
33.181308,6.160864735351296,0.0745103843292084
33.1859,6.145054891989484,0.0741574942082985
33.190492,6.130921732808823,0.0738037131329825
33.19508,6.119120322828668,0.0734587716443672
33.199668,6.109772846763163,0.0731164982412964
33.20426,6.104023108488251,0.0727601959462673
33.208848,6.100316608536925,0.0723833527859616
33.213436,6.093178696957782,0.0720607658981104
33.218028,6.093480630388114,0.0716968700749645
33.222612,6.100445159094416,0.0712924418073788
33.227208,6.115748967257842,0.0708450294915262
33.231788,6.132607274888271,0.0704079229504467
33.236372,6.159315219994199,0.0698975450591584
33.240968,6.186433860691191,0.0694128621100605
33.245556,6.217927488912278,0.0689239636905612
33.250164,6.25121998602866,0.0684361586391131
33.254752,6.286189167326192,0.0679528595362779
33.25934,6.325533336147818,0.067465985707684
33.263932,6.369619046635974,0.0669606139673191
33.268532,6.420367352400104,0.0664172419441678
33.273136,6.469849669574147,0.0659027997667615
33.277724,6.523051909252929,0.0653746011521269
33.28232,6.577153583379357,0.0648493042709326
33.286912,6.637018418334111,0.064298372682651
33.291504,6.698271426593094,0.0637255985084561
33.296096,6.758502815690283,0.0631714500870962
33.300696,6.8202887042544775,0.0626371059543867
33.305276,6.8860388847517005,0.0620802760993205
33.309868,6.951544695820632,0.0615493030808045
33.314464,7.011287346061239,0.0610596894642137
33.31906,7.068453877673047,0.060577273625629
33.323644,7.12520971369379,0.0600774847965761
33.328236,7.169417608896092,0.0596477463382855
33.332836,7.218855784621508,0.0591797910332571
33.337428,7.267394525899275,0.0587197069547736
33.342016,7.31209115995816,0.0582814435220351
33.346612,7.356665609302899,0.0578526555191394
33.3512,7.397642320857045,0.0574320130846993
33.355792,7.431834252421075,0.0570478396229289
33.36038,7.466148368699252,0.0566633190958364
33.364972,7.499807419958071,0.0562700885402178
33.369564,7.53178978703574,0.0558765266779842
33.374156,7.5623398393605505,0.055470848658931
33.37874,7.583651177780593,0.0550890271006875
33.383328,7.60394089703884,0.0547172764271729
33.387924,7.6185896401829085,0.0543619237442147
33.39252,7.629640645536385,0.0540124809652773
33.397104,7.636727358956834,0.0536845215393721
33.401708,7.637395846529602,0.0533680152089984
33.406296,7.634222226883487,0.0530642218102027
33.410884,7.629249738342078,0.0527618611830077
33.41548,7.621090207601143,0.0524834878209192
33.420068,7.621636510459765,0.0521716425051728
33.424664,7.613476979718828,0.0518930796784911
33.429256,7.597755419254272,0.0516338433663261
33.433852,7.579213370732627,0.0513798911444631
33.43844,7.558872453315687,0.0511263892755034
33.443032,7.539675339774686,0.050860219207548
33.44762,7.521377660681331,0.0505925375018608
33.452224,7.497194636045506,0.0503492031077636
33.456804,7.473788861143185,0.0501107799585634
33.4614,7.447196044041338,0.0498944765226558
33.465992,7.41639456557817,0.0497057538752621
33.470588,7.389190824905593,0.0495144272937486
33.69096,3.974998408558061,0.0495086628931662
33.695548,3.8655117753733146,0.049505411176529
33.700144,3.7543484580074185,0.0494944081350639
33.704732,3.646249998126902,0.0494493476883163
33.709328,3.535575419617589,0.0493872462971007
