Time,Force,Position
32.281332,2.792067542385808,0.1329449411566523
32.285928,2.871000940324072,0.1328875107828586
32.290508,2.944693818107482,0.1327386213773766
32.295108,3.013023991021896,0.1325051735007861
32.299696,3.0775459585343152,0.132173355724173
32.304296,3.1373602861970933,0.1317935678424842
32.308884,3.195409646781466,0.1312372597492742
32.31348,3.2488735522303425,0.1306146835732305
32.318076,3.290800896390832,0.1301314405959801
32.322672000000004,3.325566666787028,0.1296515551449905
32.327252,3.352682124562348,0.1292188648934702
32.331848,3.3755006380790924,0.128786089833485
32.336436,3.39431071821418,0.1284154799947068
32.341028,3.41360953720585,0.1280035579916655
32.345616,3.432253291178164,0.127587405564691
32.350204,3.446644242340529,0.1272543714767436
32.354792,3.4600135743411014,0.1269549861952247
32.35938,3.472727841322317,0.1266479713991698
32.363972000000004,3.4871187924846825,0.1263169248135663
32.36856,3.498689255589959,0.126062675021999
32.373152,3.512180772304676,0.1257576307588282
32.492532000000004,3.62736663647236,0.1257557398571527
32.49712,3.632563015178584,0.1257528481626526
32.501712,3.6398026322083954,0.1256865433686994
32.506312,3.647408803380644,0.1255807187387373
32.510892,3.6562809631429767,0.1254213611367606
32.515484,3.667074176514751,0.1252155198131489
32.52006,3.677623020458234,0.1250372815200128
32.524656,3.6976549477347778,0.1246328540342056
32.52924,3.7197301133349088,0.124167176664176
32.533828,3.741272398629829,0.1236781958607206
32.538424,3.763958487800688,0.1231519783247245
32.543016,3.7874218267050512,0.1226276732924566
32.54762,3.816892695866028,0.1219344806871124
32.552212,3.8527817908746855,0.1211333286688081
32.5568,3.892268623673935,0.1202622158397792
32.561396,3.926891730092508,0.1195065136789337
32.565988,3.967277997339405,0.1186158850783231
32.570592,4.007542079872155,0.1177334662170095
32.57518,4.045640739367173,0.1169393217797481
32.57978,4.085049528900907,0.1161899640744842
32.584360000000004,4.123070145130408,0.1155131981102337
32.588952,4.1574149803038,0.1149958646927451
32.593544,4.192170511068257,0.1145171000512581
32.59814,4.230279410195014,0.1140192324268784
32.602724,4.268799004912837,0.1135732659851698
32.607312,4.306174795754721,0.113169212317717
32.6119,4.343917140739041,0.1127330569166835
32.6165,4.376917944056831,0.1123991450007257
32.621092,4.4123726812892725,0.1120562780041667
32.625684,4.448482483541072,0.1117225216278057
32.630272,4.48152742830749,0.1114637492243251
32.63486,4.514694557788052,0.1111988460159532
32.63944,4.548638937002119,0.1109453022681764
32.644032,4.575265655920857,0.1108110238480704
32.648624,4.606101036200913,0.1105854191961739
32.653216,4.64588661950882,0.110183622819577
32.657816000000004,4.68195228031199,0.1098469511129614
32.662392000000004,4.722226602476481,0.1094192799912665
32.666984,4.760702055745675,0.1090126364169595
32.67158,4.793248022023772,0.1086585629561731
32.676164,4.826404911872596,0.1082549684061936
32.680768,4.864137017225177,0.1077345963360388
32.68536,4.898637938929604,0.1072254099706654
32.689948,4.926842819500497,0.1067983131485189
32.69454,4.951816516423236,0.1063905120571883
32.699132,4.97548008330726,0.1059641260648756
32.703728,5.000165269353079,0.1055228423938614
32.70832,5.02533919425548,0.1050430228555217
32.712916,5.047404120223872,0.1045720354087292
32.717504,5.07097940421064,0.1040464085138633
32.7221,5.097741730396935,0.1034525576009705
32.726688,5.122050122668577,0.1028725636126405
32.731288,5.141616973273689,0.1023664220295586
32.735884,5.159262770269359,0.10188458145902
32.740484,5.167181114503678,0.1015640328103359
32.745076,5.167293059586084,0.10137296876381
32.749672000000004,5.168548808544431,0.1011535706380774
32.754248000000004,5.1640413966744525,0.1010209737876893
32.758844,5.161821592556353,0.1008313120273962
32.763436,5.163443895657136,0.1005850031448016
32.768028,5.165721263777275,0.1003497651331813
32.772616,5.160192232745504,0.1002358811135406
32.777204,5.161447981703851,0.1000218462349717
32.781792,5.166423653166935,0.0997626300709263
32.786388,5.171932204935229,0.0995229194485834
32.79098,5.179894690618175,0.0992758317539948
32.795572,5.187734991586975,0.0990407059971415
32.800168,5.196108172860987,0.0988254047561137
32.804748000000004,5.205014234440208,0.0986299036487274
32.80934,5.213675926591138,0.0984550780371555
32.813932,5.221315999580277,0.0982992551283263
32.81852,5.233331060093508,0.0981134382729917
32.823128000000004,5.247389358930325,0.0978936526867659
32.827716,5.268232437757261,0.0975831362811869
32.832324,5.294960862126666,0.0971864557347904
32.836916,5.326675197590894,0.0967157339521687
32.841524,5.356224110017389,0.0962885429182366
32.846112,5.389492944948621,0.0958206519743083
32.8507,5.423416844899209,0.0953688588862748
32.855296,5.455419691240356,0.0949472069977433
32.859888,5.485090788380996,0.0945255120307118
32.864484,5.52052504634996,0.0940317524032617
32.869072,5.553016631547688,0.093590652537609
32.873672,5.584730967011916,0.0931535750276285
32.87826,5.618732910228021,0.0926737435606255
32.88286,5.655022461196007,0.0921558917263138
32.88744,5.689513143268695,0.0916558088282895
32.89204,5.724248194769674,0.0911427512546823
32.896636,5.757306562089504,0.0906357616809566
32.901232,5.785745572456949,0.0901708025564373
32.905812,5.815084017272041,0.0897033087325533
32.910404,5.838903670687102,0.0892868641454818
32.914996,5.862967693530453,0.0888576390527766
32.919588,5.885110662764363,0.0884569666495484
32.924176,5.90815306644592,0.0880558581701798
32.928764,5.929152231803891,0.0876877500849852
32.933352,5.956158927418477,0.0872485280600193
32.937944,5.982266188585417,0.0868189083912064
32.942532,6.008495634466501,0.0863863937912053
32.947128,6.035257960652795,0.0859726180955037
32.951724,6.0645964054678885,0.0855524148365965
32.956312000000004,6.091358731654183,0.0851463030625326
32.960908,6.115300569783387,0.0847665146543731
32.965496,6.14128564623618,0.0843661225930787
32.970092,6.162651365736589,0.0840026330019116
32.974684,6.17915335885632,0.0836913172740341
32.979272,6.1997418286232255,0.0833340018487949
32.983868,6.222251351999572,0.0829636909510432
32.988456,6.250768405632534,0.0825330602785928
32.993044,6.284271370360319,0.0820499373761449
32.997636,6.317363639497037,0.0815481958352691
33.002224,6.350822462776193,0.0810221637038038
33.00682,6.386202339664791,0.0804870005650656
33.011408,6.420027717086382,0.079951546373743
33.016008,6.449600291698028,0.0794278694745865
33.020596,6.477740551556815,0.0788936799846921
33.025196,6.5013836391773605,0.078388549020888
33.029784,6.520651739273814,0.0778958939754191
33.034384,6.540408578226853,0.0773808235108916
33.03898,6.560243460445406,0.0768165427697895
33.043576,6.579667647072896,0.0762336305290237
33.048172,6.596393530357442,0.0756614404854401
33.052764,6.6145075869462175,0.0750584856626586
33.057364,6.625059613811373,0.0745061935768143
33.06196,6.635733825390674,0.0739447009011916
33.066556,6.644975722217117,0.0733673993337269
33.071156,6.646899958748231,0.0728280087558003
33.075748,6.646492446078839,0.0722817175927192
33.08034,6.641343391742915,0.071770530129998
33.084928,6.63541708767349,0.0712581610708459
33.089516,6.625770861099329,0.0707641128997396
33.094096,6.620866176191697,0.0702418349280585
33.098688,6.610564884598179,0.0697377959244252
33.10328,6.602184646614101,0.0692224898425625
33.10786,6.596624896687114,0.0686915399818092
33.11246,6.591964581207774,0.068157496364609
33.117048000000004,6.5884480696043735,0.0676087580480282
33.121636,6.592982326581175,0.0669941340824524
33.12622,6.594451726072596,0.066408876467495
33.130808,6.597231255602729,0.0658478710059422
33.13542,6.599766415704572,0.0653026586090936
33.140008,6.608719801654095,0.0647372876703008
33.144612,6.61652938372768,0.0641876925178506
33.149208,6.633166984114968,0.0635813851263958
33.153796,6.651603453397553,0.0629709004297265
33.158388,6.674537094918379,0.0623519417060131
33.16298,6.698903051192062,0.0617448444179239
33.167576000000004,6.721103584428011,0.061162405141629
33.172164,6.741260879340374,0.0605969125230504
33.176764,6.763217043148034,0.060034128189326
33.181356,6.788770944746283,0.0594654937917865
33.185956,6.811504358287444,0.0589135796630979
33.19054,6.839634378514491,0.0583550318859738
33.195144,6.862778487646716,0.0578307463512206
33.199728,6.8840015431695,0.057318382283106
33.204324,6.908045086749373,0.0568005554073696
33.208904000000004,6.930822641739162,0.0563063218049217
33.213492,6.950046600386988,0.0558654942484096
33.218084,6.970292178196605,0.0554185697620227
33.222684,6.988861071825074,0.0549704725113134
33.227264,7.007429965453542,0.0545255221678919
33.231848,7.02162387155792,0.0540825624810525
33.236436,7.041336569062327,0.0536326791551943
33.241028,7.058761658814858,0.0532140328620691
33.24562,7.079129421338623,0.0527850290733145
33.250208,7.096676695805299,0.0523658640270711
33.254804,7.114346154986121,0.0519392451698365
33.259392,7.132548494472153,0.0515289809838823
33.263984,7.15062864924404,0.0511232342180414
33.268576,7.15963641627393,0.0507686775076587
33.27316,7.168399813875529,0.0504277905278862
33.277756000000004,7.17679665733469,0.0501054364825549
33.282344,7.181351393574969,0.0497978684518602
33.286932,7.188726617872337,0.0494825006460085
33.291528,7.199333025817861,0.0491851525736727
33.296124,7.202788099630829,0.0489310875620306
33.30072,7.20113507763483,0.0487064809101359
33.3053,7.200381490086478,0.0484826137732317
33.309904,7.197218110072103,0.0482883233664446
33.314492,7.190623318429909,0.0481295439930932
