Time,Force,Position
32.4191,1.7254375465390697,0.1522159455483205
32.42369599999999,1.8081893895110648,0.1521173732689218
32.428292,1.894084133233958,0.1514891617581041
32.43288799999999,1.9786687469181377,0.1508453965348596
32.437476000000004,2.065130272763131,0.1498762664164092
32.442072,2.1515476571594965,0.148766493309302
32.446659999999994,2.237143650373731,0.1475939053045511
32.45124799999999,2.318320514615244,0.1465883827502833
32.455836000000005,2.397365857635914,0.145409144310508
32.46042799999999,2.468272149179125,0.1445872350835794
32.46502,2.540889026720376,0.1434346914943664
32.469612,2.611252198326637,0.1422382877154953
32.474208000000004,2.674331611454459,0.1410834961738813
32.478787999999994,2.72796184306611,0.1401609218453885
32.48338,2.770466208980438,0.1394938601712007
32.487972,2.806586250863975,0.1388642087755569
32.49256,2.8369770337360785,0.1382898410953356
32.497156000000004,2.8664242407119045,0.1376595945271622
32.501744,2.8931731443447872,0.137122711724977
32.506332,2.915547060453577,0.1367328924361763
32.51092,2.936610846523654,0.1363225568725194
32.515512,2.95599794841258,0.1359644720164598
32.52010799999999,2.969211193882117,0.1357966216669816
32.5247,2.9796819945600825,0.1356132375516533
32.529312000000004,2.987698861323396,0.1354828401537561
32.533891999999994,2.991951664133344,0.1353826746939335
32.538492000000005,2.9923182182757806,0.1353289614197447
32.54308,2.9913746423795047,0.1352575596977441
32.54768,2.989776001463872,0.1351772174197421
32.552263999999994,2.992141652481268,0.1349418099367884
32.556864000000004,2.9896435771179872,0.1348876858762768
32.56145599999999,2.9855910022877024,0.1348488527381975
32.566052,2.984236730800361,0.1347354923622357
32.57063599999999,2.986480197103612,0.1345214688958271
32.598175999999995,3.001159659142897,0.1341698617003297
32.607356,3.0176482297092164,0.1340719236619227
32.611943999999994,3.032538159359904,0.1339005363903554
32.616536,3.049148914640369,0.133787033762648
32.621123999999995,3.0669476152454016,0.1337093811086572
32.625708,3.089287629537301,0.1336041210702201
32.63029999999999,3.1142479039066275,0.1335323046360171
32.653251999999995,3.2661071695265376,0.1334709719201248
32.65783999999999,3.3036697657946723,0.133391722800681
32.662436,3.343808480691605,0.1332759430250604
32.667016000000004,3.3853795103413966,0.13317390164048
32.671616,3.438232492219545,0.132764014909831
32.676196000000004,3.4972151890684544,0.1321400395304291
32.680796,3.5573416897933026,0.1314800253061442
32.685379999999995,3.617468190518151,0.1308142941286647
32.68997999999999,3.6742413228807,0.1302126124360567
32.694568000000004,3.726927978596075,0.1297589210924573
32.699164,3.7862772295874216,0.1291352909572766
32.703756,3.839941363015961,0.1286080469559959
32.708352000000005,3.89446078944352,0.1279895728883594
32.71294,3.9498355088701,0.1272943199377076
32.717536,3.999647295448018,0.126653558106729
32.722123999999994,4.047493886967867,0.1259883976714753
32.72671199999999,4.089166622068326,0.1254411413032564
32.731300000000005,4.127974727663068,0.1248940913526646
32.735879999999995,4.1645732687714485,0.1243404520403303
32.740472,4.203048722040643,0.1236700375491673
32.745064,4.234573069156946,0.1231214157122953
32.74964799999999,4.2618446134633015,0.1226522440155885
32.75423599999999,4.285229909102146,0.1222166425816252
32.75882,4.303951706339976,0.1218103027221388
32.76341599999999,4.316988386015001,0.12147201109363
32.768004000000005,4.327038251470162,0.1211448260816294
32.7726,4.33218024909602,0.1208620940113539
32.777187999999995,4.340342962758628,0.1204364378217875
32.78178799999999,4.35013821915376,0.1199286030538213
32.786376000000004,4.360133703528554,0.119329232032989
32.790964,4.364321885626397,0.1187933390053538
32.795564,4.36761063327659,0.1182714608745046
32.800156,4.369344881459781,0.1177579399679248
32.80475199999999,4.364783088509436,0.117341437185419
32.80933999999999,4.36418558749212,0.1168356221552227
32.813936,4.364199010045532,0.1162735505361296
32.818516,4.365844975331464,0.115625882076003
32.82312,4.368879113921628,0.114921848364632
32.82771199999999,4.373057056387732,0.1141771454611082
32.83230399999999,4.373270706920807,0.1135220313786511
32.836888,4.377448649386911,0.1127759028307832
32.841483999999994,4.38007209238601,0.1120351912966833
32.846092,4.3797528626138735,0.1113543975001574
32.850684,4.378045459537509,0.1107271522264531
32.855284,4.374050448709264,0.1101742111586997
32.859876,4.368667264576788,0.1096820153883651
32.864464,4.364716395197171,0.1091941618458576
32.869060000000005,4.359132983085032,0.1087925273581256
32.873648,4.351794843526226,0.1084839237952274
32.878236,4.34642189902549,0.1082050964740926
32.88281599999999,4.34223689984932,0.107957308838228
32.887416,4.343326322644892,0.1076479700781459
32.892008000000004,4.346625309926826,0.1073486665311219
32.896596,4.354832165038063,0.1070188461544717
32.901188000000005,4.360384858254985,0.1067930095175966
32.905767999999995,4.366103877634681,0.1066227731577113
32.91036,4.374687526520094,0.1064723169096638
32.914956000000004,4.386135804911226,0.106344856985328
32.919544,4.402736320559952,0.1061739813157352
32.924139999999994,4.426532311789861,0.1059171356163314
32.92872,4.450494629182545,0.1057158055617708
32.933308,4.478343195242739,0.1055160534457037
32.937904,4.512243433008177,0.1052623841567754
32.94249599999999,4.556281819126032,0.1048764329153523
32.947087999999994,4.602529769730248,0.1044993927652805
32.95167599999999,4.653152707858557,0.1040896072383759
32.956276,4.709949502406256,0.1036250123394088
32.960864,4.765358123649726,0.1032152085494608
32.965464,4.8246088521120765,0.1027491782799431
32.970056,4.885003384450368,0.1022633857510259
32.974656,4.946419535950452,0.1017625654777249
32.979252,5.002072526622211,0.1013580633951881
32.983844000000005,5.056293202541113,0.1009520905857993
32.988428,5.112923670926039,0.1004905123361671
32.99302,5.174784419834077,0.0999338898513762
32.997612000000004,5.238810591779848,0.0993398194455955
33.00220399999999,5.303447687296348,0.098712985915031
33.006792000000004,5.3646092297364,0.0981243120829043
33.01138,5.423316838261802,0.0975596558080776
33.015972000000005,5.476994394243754,0.0970327872064103
33.020551999999995,5.530505624062932,0.0964656492423414
33.025148,5.581030039662247,0.0958947272012523
33.029740000000004,5.628323271613407,0.0953370995951112
33.034336,5.668787582125822,0.0948318540430021
33.038920000000005,5.7089633817613175,0.0942947469598849
33.043508,5.743864759425071,0.0938002618610545
33.04808799999999,5.771815030935933,0.0933526018881347
33.052676000000005,5.800498410731668,0.0928568009135932
33.05726799999999,5.827993845202838,0.0923432000183025
33.06185599999999,5.851891541883416,0.0918608369363032
33.06645999999999,5.87333530464934,0.0913847597100616
33.071044,5.896167240719496,0.0908678503066541
33.075627999999995,5.918344111770296,0.0903450904175929
33.080224,5.936023810582855,0.0898614845467484
33.084812,5.949450706585466,0.0894015714597586
33.089416,5.959279864797487,0.0889698642363867
33.094004,5.965511285218915,0.0885658867761454
33.098603999999995,5.9668348378110405,0.0881653908330298
33.103184,5.966726075650308,0.0877553001113096
33.107783999999995,5.967761117365512,0.0873247822443638
33.11237199999999,5.965198421290127,0.0869172459467874
33.116968,5.96377952909068,0.0864892253170179
33.121548000000004,5.9606839527100846,0.0860639659413646
33.12613999999999,5.954645703558252,0.0856700813307085
33.130728000000005,5.948074574101209,0.0852588719173406
33.135324,5.940970564338956,0.0848280004828628
33.139904,5.937175781490375,0.084340666507563
33.144492,5.931704314460642,0.0838567524987326
33.149075999999994,5.920347501888441,0.0834353049356904
33.153676000000004,5.908335624296882,0.0830016495341747
33.15826,5.895668681685967,0.0825555005741717
33.162852,5.882591043483988,0.0820819708595386
33.167444,5.86836960140607,0.0816282811549183
33.172032,5.8542703440422965,0.0811649116095689
33.176616,5.836206794745497,0.0807426078563335
33.181203999999994,5.818143245448694,0.0803186850084533
33.18579199999999,5.799180261704244,0.0798973604513267
33.1904,5.78819000327448,0.0794375042287905
33.194987999999995,5.775034321806983,0.0790096139068459
33.199584,5.757914348406458,0.0786231458761978
33.204176000000004,5.745291547244172,0.0782113698750665
33.208764,5.727682834987063,0.0778529503797488
33.213356000000005,5.716736718005928,0.0774385781409121
33.217935999999995,5.710409957977176,0.0769927580995212
33.222532,5.701917774910691,0.0765782585575034
33.22711199999999,5.696001710473006,0.0761576192999405
33.231708,5.690496341626384,0.0757657558907938
33.23629199999999,5.685646037799119,0.0753847369957867
33.240892,5.690401002019061,0.0749253069420425
33.245476,5.70145200737254,0.0744410186410245
33.250060000000005,5.715734196374171,0.0739651453040797
33.254648,5.731082145986225,0.0735291160176933
33.259243999999995,5.7481067797794285,0.0730939049183797
33.263836,5.768484781934932,0.072662274404613
33.268428,5.795158825223972,0.0722051421663792
33.273016,5.82771821405548,0.071703064338269
33.277604,5.8673508937540255,0.0711865543371809
33.282191999999995,5.904407454823772,0.0706819796759909
33.286795999999995,5.946083372845905,0.0701570328503419
33.291388,5.995076951163365,0.0696034697642351
33.29597199999999,6.045991583090268,0.0690475440368979
33.300563999999994,6.106267113636086,0.0684442927486132
33.30515199999999,6.161312363658791,0.0679100367411476
33.309748,6.219178101738585,0.0673723168427272
33.314336,6.284483684827853,0.066806745258031
33.318924,6.351588136812415,0.0662450202571987
33.323516,6.418936958225271,0.0656786794733645
33.328104,6.488329017961712,0.0651005037044476
33.3327,6.550691928279745,0.0645908584717269
33.337292000000005,6.6085576663595385,0.0641019174613004
33.34188399999999,6.668833196905356,0.0635850696017404
33.346487999999994,6.729719651021902,0.0630402737216056
33.35108,6.793915332052122,0.0624657948202487
33.355676,6.856556513615334,0.0618905023754692
33.36026,6.917398826283253,0.0613257305027277
33.36485999999999,6.97349959728464,0.0607942342376517
33.36944799999999,7.023548696580783,0.0602700619104712
33.374048,7.073475611162783,0.0597576582573699
33.378640000000004,7.123646895173072,0.0592417339341045
33.38324,7.16854375721162,0.0587353415780953
33.38783599999999,7.207144578116632,0.0582433478884943
33.392436000000004,7.239449357888111,0.0577673170510427
33.39702799999999,7.272242876516172,0.0572684101521938
33.401624,7.2957976812394625,0.0567959504456653
33.406212,7.313833694562721,0.0563419702493666
33.410808,7.326228731771801,0.0559073709000903
33.415403999999995,7.3338822273143505,0.0554903812491863
33.42,7.337815800352162,0.0550841789963487
33.424588,7.339661993617759,0.0546488033842187
33.429176,7.338932068254558,0.054209083263645
33.433764,7.333460601224827,0.0537876172212727
33.438344,7.327744764766803,0.053379241040324
33.442927999999995,7.315488517746954,0.0529879507513126
33.447524,7.295425871575193,0.0526283901386782
33.452119999999994,7.269189368984042,0.0522643196087997
33.4567,7.237966955298071,0.0519242112034841
33.461292,7.203924053555011,0.0515881680935917
33.465875999999994,7.162441306802475,0.0512647580343009
33.47046399999999,7.111353292002734,0.050973183400569
33.475072,7.058999288612907,0.0506973260664037
33.47966,7.007055980814147,0.0504423538469022
33.484252,6.949227327472915,0.0502102280130578
33.48884,6.889477620522242,0.0499809826287958
