Time,Force,Position
37.241636,1.8506628206985936,0.1952061090309294
37.246232,1.951413592255284,0.1915381398549197
37.25082,2.052364591791638,0.1880135856337478
37.255416,2.1510618853930032,0.1846983500322945
37.260004,2.241453801354136,0.1817855266348996
37.264604,2.322640905227388,0.17958489440471
37.269192,2.3954004467462617,0.177788474253741
37.273788,2.463818902557932,0.1759752379199691
37.27838,2.53227126018649,0.1739493534458304
37.28296,2.592784794317253,0.1723229149417535
37.287544,2.647935623579018,0.1708252660710638
37.292132,2.696457759381701,0.1695989445089324
37.296724,2.7433812542687512,0.1683603911929038
37.301316,2.794591453782639,0.1667543022588843
37.305904,2.838317666838424,0.1655307361270299
37.310496,2.87672531647384,0.1644954257879782
37.315088,2.917787128003571,0.1632759914101595
37.31968,2.955984310027585,0.1620861750203802
37.324272,2.984776451984055,0.1612842518481198
37.328868,3.0120921377390384,0.1604394633973704
37.333472,3.035521574826511,0.1596916818480108
37.338052,3.0572301862842046,0.1589122461496476
37.342644,3.071865506874861,0.1583709507151147
37.347232,3.086212316588598,0.1577865865542329
37.351836,3.1056672221113035,0.1569533122809833
37.356428,3.1271653659575955,0.1560217503869361
37.361024,3.153238725307644,0.1548254335301512
37.36562,3.1805780732477777,0.1535525297209765
37.370212,3.2049306069680488,0.1523454702475865
37.374808,3.2277286412213155,0.1511711372173573
37.379404,3.247173307112282,0.1500752838977682
37.384,3.263020235212657,0.1490936777068944
37.3886,3.277190479131882,0.1481664794434307
37.393192,3.283676508613341,0.1475516555734914
37.397784,3.2864426155900635,0.1470630773341294
37.402376,3.286632603937987,0.1466451066371399
37.406968,3.2792164211136634,0.1464194360754697
37.411556,3.2703679235364818,0.1461997007140068
37.416152,3.2629075992635297,0.1458786667360193
37.420744,3.251605167771696,0.1457064770723025
37.425336,3.2389926062411485,0.1455215286956426
37.429932,3.2247033605294506,0.1453730313768788
37.43452,3.216010949483304,0.1449263894104286
37.439112,3.2028213661989184,0.1446184981863879
37.443704,3.1898761523428227,0.1442722790485313
37.448312,3.1789741768103155,0.1438377869130224
37.4529,3.1647629743641343,0.143561513739702
37.457492,3.1478534685750112,0.1433605704903345
37.462104,3.127879105300507,0.1432858992553958
37.466692,3.107538187883565,0.1432611043120843
37.471288,3.0934933116001595,0.1430502168374558
37.475884,3.084967226716787,0.1426677290305446
37.48048,3.075297337957473,0.1423428493189041
37.485076,3.0700024367222545,0.1419060303322023
37.489664,3.071003576620571,0.141286995005505
37.49426,3.0761353346146887,0.1405920079432912
37.49884,3.088262340210326,0.1398121684226694
37.503436,3.109139320854151,0.1388289028234414
37.508016,3.128017204623017,0.1380162490871602
37.512616,3.150370641468329,0.1371283418014892
37.517204,3.1777541308570907,0.1361625969084235
37.521796,3.2089016841992177,0.1351856651134331
37.52638,3.2397268248475366,0.1343739557900442
37.530976,3.2746825835916566,0.1334894861158581
37.535564,3.3089052340509038,0.1327212544376504
37.540156,3.34059590732998,0.1321068566405594
37.54476,3.378704806456737,0.131344601057018
37.549356,3.4195561503750667,0.1305947443417545
37.553944,3.469035284627437,0.1296876500311545
37.558532,3.525587709746845,0.1286525754890794
37.56312,3.5789530926667266,0.1277693141690908
37.5677,3.631951921444171,0.1269627752829432
37.572296,3.692024041088653,0.1260385811012021
37.576888,3.754017214342576,0.1250909625277954
37.58148,3.814089333987057,0.1242143755997299
37.586072,3.873917084203248,0.123390090069211
37.590672,3.932434704380724,0.1225672229435634
37.59526,3.9853113484440232,0.121910338466843
37.599852,4.047016010821026,0.1210460922284731
37.604448,4.105000750693294,0.1202689982214371
37.609028,4.15848831832732,0.1195939666016581
37.613624,4.207967452579692,0.1189564464378166
37.618212,4.256014272079203,0.1183216304989183
37.6228,4.307125949064096,0.1176277457012337
37.627396,4.361424668248515,0.1168639163490292
37.631988,4.416334311003661,0.1160456878748319
37.636584,4.466502412092278,0.1153480489963945
37.641172,4.521612282827088,0.1144938953376213
37.645772,4.569893232123153,0.113734069185874
37.650364,4.611467444694616,0.1130555861063651
37.654964,4.654429830570312,0.112327686503585
37.659544,4.6950604672455,0.1116145402583436
37.664144,4.726941128872501,0.111015025408184
37.66874,4.755590606851348,0.1104429440269577
37.673332,4.782807770077337,0.1098640421017591
37.677928,4.807160303797608,0.1092748130243188
37.682524,4.833267564964546,0.1086145037566254
37.687112,4.85614364248333,0.107966462972656
37.691708,4.868104321916195,0.1074742071980174
37.696292,4.882352609100937,0.1069189168219348
37.700888,4.896967450428116,0.1063340914148326
37.70548,4.91452496452653,0.1056986916672612
37.710064,4.931549598319733,0.1050468541267617
37.714644,4.942278190979402,0.1044774095307096
37.719236,4.944012439162592,0.1040159837207895
37.723832,4.943947818450487,0.1035762572850167
37.728412,4.94167363325202,0.1031272186733261
37.733008,4.928650376130407,0.1028636709420349
37.737596,4.918691976494175,0.1025386694489188
37.742188,4.909510826591445,0.1022124840103582
37.746776,4.897509188631625,0.10192652722157
37.751364,4.886162615691164,0.1016503592678347
37.75596,4.879435399703087,0.1013137047970747
37.760548,4.870664945391422,0.1010156639615769
37.76514,4.86344899054676,0.1007174617909555
37.769748,4.857543165740813,0.1004389665921079
37.774336,4.846040506269315,0.1002979199725995
37.77894,4.839934453483704,0.1000984030344311
37.783532,4.838203388222188,0.099859464700095
37.788124,4.837249572694173,0.0996221844684744
37.792716,4.837850256633162,0.0993867141872616
37.797316,4.8364077022485645,0.0991902052867412
37.801896,4.8345985937215294,0.0990228155862893
37.8065,4.835243419109148,0.0988471542557662
37.811088,4.840018862592569,0.0986528173705095
37.815692,4.846470990257138,0.0984502254150914
37.820276,4.853333813512774,0.0982765392196216
37.824872,4.867880851206174,0.097988154069243
37.829464,4.881161900309491,0.0977424974827162
37.834052,4.897019068041605,0.0974826439426945
37.838656,4.9177399621543945,0.0971539847030804
37.843256,4.939849029571414,0.0967831893001384
37.847848,4.9582381744836965,0.0964578403557064
37.85244,4.980347241900717,0.0960901189857512
37.857028,5.008463839574353,0.0956367889493029
37.86162,5.034126503333337,0.0951893939973347
37.866208,5.0628540245777005,0.0946871010283386
37.8708,5.090559926660272,0.0942108658280217
37.875396,5.11863238288528,0.0937112384992919
37.879988,5.147848642986226,0.093195727514303
37.884572,5.174610969172521,0.0926888036891458
37.889156,5.200596045625313,0.0921808797546028
37.893748,5.226703306792253,0.0916644283818631
37.89834,5.254975990996924,0.0911127760316536
37.902928,5.286435717401122,0.090508406230891
37.907544,5.319161432395403,0.089877825522308
37.912128,5.357894677646301,0.0891684941178494
37.916732,5.394584684573612,0.0885005539793237
37.921316,5.431519060929214,0.0878213291524289
37.925896,5.466898937817811,0.0871475001149935
37.930484,5.5002355763828215,0.0865169041836284
37.935064,5.530385172748307,0.0859432229215669
37.93966,5.567197364389762,0.0853075525284938
37.944248,5.604908990478866,0.0846756797773849
37.948848,5.631216479625468,0.084162606490473
37.953428,5.66394219461975,0.0836065612557546
37.958028,5.698833332651764,0.0830225437557805
37.96262,5.736911512883305,0.0824023986574586
37.967216,5.775889127562494,0.0817847707776623
37.9718,5.812701319203951,0.0812097563217735
37.976392,5.854010683083647,0.0806165394122603
37.980976,5.902104826953459,0.0799692111184455
37.985572,5.953508197736944,0.0792781686957959
37.990156,6.002335449891631,0.0786035547037798
37.99474,6.048586583417521,0.0779444851588335
37.999328,6.09483771694341,0.0772963148192033
38.003912,6.137735482106999,0.0766647019513767
38.008504,6.1812441708413175,0.0760031640995662
38.013088,6.222176740946837,0.075349669966426
38.01768,6.261432626871207,0.0747010379355251
38.02226,6.297335144433276,0.0740568115877896
38.026844,6.33397077028022,0.0733697419052817
38.03144,6.36623140860307,0.0727048288670923
38.036016,6.395260863277765,0.072038351609766
38.040604,6.430297848209076,0.0713124370259014
38.0452,6.461204215044584,0.0705931411845179
38.049796,6.485936725460704,0.0698929737453321
38.054404,6.499753837790903,0.0692395064537255
38.058996,6.511239200920596,0.0685775735800197
38.0636,6.52129224929743,0.0679018050401596
38.068176,6.5251714412548765,0.0672420111372007
