Time,Force,Position
33.34399199999999,3.604592006418188,0.1715171314941804
33.348583999999995,3.861797738362026,0.1675168998493988
33.353188,4.098384281643742,0.1650178858624163
33.357783999999995,4.320847905376535,0.1629733105991026
33.36237199999999,4.529799533131133,0.1610786420814972
33.36696799999999,4.725527675784455,0.1594173362334805
33.371556,4.906399790603978,0.1580005177185929
33.37613999999999,5.079078472865676,0.1565430531933532
33.380728,5.237800561741224,0.1552568471794719
33.385324,5.381744666048491,0.1540194164431919
33.389908,5.507068678568596,0.1529646702232067
33.394496,5.613117534282182,0.1520758635791696
33.39908,5.691429769017979,0.1515127319655206
33.403659999999995,5.75071121637555,0.151016989596405
33.40824799999999,5.79353799498369,0.1505461092447469
33.41284,5.822652549633973,0.1500856280699857
33.417427999999994,5.843862182603346,0.149541412153897
33.422016,5.85446859054887,0.148966153937991
33.426612,5.85014092739508,0.1484798784106998
33.4312,5.833699681199064,0.1480180676624417
33.435796,5.803756678656589,0.1476347992500329
33.44037599999999,5.761910560683289,0.147362216731628
33.44497199999999,5.72345171288918,0.1469288882878938
33.44956,5.683027670037001,0.1464793980158797
33.454159999999995,5.640394062698461,0.1460310857383229
33.45874799999999,5.593996391406556,0.1455957462245635
33.463356,5.545100644751369,0.1451311762096751
33.467935999999995,5.490764149961668,0.144698847142948
33.472531999999994,5.434462460113898,0.1442482729806554
33.477124,5.381592181893944,0.1436784325599637
33.48172,5.3283112080829245,0.1430768502131417
33.48632,5.274541495415322,0.1425082251695214
33.490911999999994,5.227967258328902,0.1418095665657665
33.49549999999999,5.183069705423631,0.1410809036047358
33.500096,5.13989297814814,0.1403764291494303
33.504684,5.09410623042696,0.1398249734555441
33.509268,5.050695373354915,0.1393041636616299
33.513856,5.009049483361277,0.1388689291922284
33.518452,4.9768527748838105,0.1383508670984351
33.523044,4.952839259332431,0.1377990538797729
33.527632,4.940973228640166,0.1371202111321945
33.532216,4.935735891406985,0.1364203033239254
33.536804,4.935206194023445,0.1357488672503968
33.5414,4.937463082880104,0.1351427270952662
33.545984,4.947903164662851,0.1345162658556523
33.550571999999995,4.961662712991008,0.1339693945872932
33.555167999999995,4.981562215921665,0.1334486233106502
33.55975599999999,5.006335684864738,0.1329999300929847
33.564344,5.037371293124455,0.1325725897318517
33.568932,5.067639891282412,0.1323331847783374
33.573524,5.102782455452783,0.1321651977499409
33.57812,5.144798082510526,0.1319670488497704
33.5827,5.194586206903294,0.131735536087534
33.5873,5.25141372034621,0.1315247484320195
33.591888,5.311272189457616,0.1313664388408257
33.596487999999994,5.384255621141302,0.1310332714242516
33.601076,5.458593324312331,0.1307636843603681
33.605675999999995,5.539759948922105,0.1304187153702751
33.610271999999995,5.621092899694655,0.1301352168678735
33.614867999999994,5.706556468563006,0.129834460415839
33.61945599999999,5.792308548308276,0.1295818976238344
33.624052,5.879370758092261,0.1293467458499398
33.62864,5.964145360124368,0.1291778626041126
33.633239999999994,6.051862634927709,0.1289587742455757
33.637815999999994,6.136881606388108,0.1287875264728834
33.64241199999999,6.224066000886239,0.1285651148791465
33.647,6.315459056745691,0.1282694173262112
33.651596,6.40860684005181,0.1279091585247903
33.656172,6.496846755528623,0.1275847891667766
33.660771999999994,6.585286898985101,0.1271952205484323
33.66535999999999,6.675071074297181,0.1267225441870411
33.669948,6.759414501474745,0.126276884718956
33.674544,6.835496692460705,0.1259047924526318
33.679123999999995,6.904050755539934,0.1255493062242276
33.683716,6.9669977443218745,0.1251802651058945
33.688312,7.0173085093881165,0.1249229247662525
33.692899999999995,7.065321427070741,0.1245822034283201
33.697508,7.104906782398988,0.1242693506686823
33.702096,7.134920771496915,0.1240028629515798
33.7067,7.152787275735731,0.1238083911327411
33.711296,7.164147271229607,0.1236087566668137
33.71588,7.169900192426193,0.1233929742843219
33.720476,7.173521592401936,0.1231284870584714
33.72506799999999,7.170269929490304,0.1228791348033662
33.72966,7.159367953957796,0.1226460217684984
33.734252,7.140937850518556,0.1224215263452538
33.738851999999994,7.110893142525414,0.1222730162649905
33.743432,7.0731981219113935,0.122137707874444
33.748028,7.037213687295413,0.1218963340757149
33.752624,6.995011254811415,0.1216711241019947
33.75721599999999,6.945324835869315,0.1214921491965057
33.761804,6.898170394107386,0.121246032767793
33.76639599999999,6.847906953411447,0.1210074650099874
33.770999999999994,6.798254436286238,0.1207286399588244
33.77559599999999,6.7489684733034645,0.1204232774345722
33.78019199999999,6.700826314196628,0.1200923384697029
33.784792,6.652317600947358,0.1197782380475679
33.789384,6.603442333555647,0.11948404171869
33.793972,6.563927964782852,0.1190679100344599
33.798551999999994,6.526745345210563,0.118642641439197
33.80314,6.490872855676988,0.1182252140821861
33.807728,6.45733211534392,0.1177984232260518
33.812324,6.424568624744353,0.1173663898411179
33.816916,6.394914133078795,0.1169240497606578
33.821492,6.371844193423691,0.1164421953769
33.826083999999994,6.358956543569633,0.1158859826274344
33.83067199999999,6.3526534457260295,0.1152915650619596
33.83526,6.350525107426856,0.1147159348805629
33.839856,6.3479521717197285,0.1142168896579176
33.844444,6.353396102775915,0.113687485529905
33.849031999999994,6.3653024011284085,0.1131309491690385
33.85362799999999,6.374432352872442,0.1126549490155785
33.858216,6.389369606893428,0.1121455000614972
33.86282,6.405006067382399,0.1116866623079711
33.867411999999995,6.424040037682299,0.1112543382038598
33.87202,6.448348429953941,0.1107788096804037
33.8766,6.475521451731299,0.1103173523693051
33.881192,6.509767764375696,0.1097982160317598
33.88577599999999,6.542259349573425,0.1093511743413017
33.89037999999999,6.583623094533488,0.1088350116516687
33.894968,6.626541338960554,0.1083193738835134
33.899567999999995,6.672690767035775,0.107801001918783
33.904152,6.717862717397831,0.1073426443212008
33.908744,6.765488601674538,0.1068806844881815
33.913335999999994,6.812870116522955,0.1064391004942345
33.91793199999999,6.849869113590663,0.106114634887951
33.922532,6.887523175677728,0.1058019436427599
33.927128,6.92860864939261,0.1054299293223428
33.93172,6.96801743892634,0.1050663449555484
33.936311999999994,7.007382087011445,0.104669509758641
33.9409,7.047479843381422,0.1042392594260116
33.94548399999999,7.088965773055629,0.1037740232636588
33.950076,7.130696072158129,0.1033009717140077
33.954668,7.175979967602591,0.1027633704054537
33.959252,7.220442471864923,0.1021915685422218
33.96384,7.264127726393754,0.101629047627547
33.968424,7.306625035598016,0.1010521876833442
33.973004,7.34576897643998,0.1004974511701506
33.977591999999994,7.381681733633788,0.0999519316005164
33.982187999999994,7.40770071190347,0.0994803535039097
33.986776,7.43486349404909,0.0989931414634223
33.99137999999999,7.457773473384764,0.0985273149785958
33.995968,7.48484797263313,0.0979699473155123
34.000556,7.511511776290429,0.0973992853530359
34.00515599999999,7.536088200175513,0.0968168239348196
34.009747999999995,7.570514261536097,0.0961330279489801
34.01434,7.60015463978152,0.0954542372100537
34.018919999999994,7.624276226626912,0.0948211183152541
34.023515999999994,7.653383724567125,0.0941395477849998
34.028104,7.680570168897897,0.0934829691749026
34.032703999999995,7.704691755743289,0.0928667133238245
34.037291999999994,7.731633830645769,0.0922332971847735
34.04188799999999,7.758698090262394,0.0915996256612017
34.046468,7.783064046536077,0.0909868259237063
34.051064,7.808085067829116,0.0903865523782942
34.05566,7.8332282738362995,0.0897862156351992
34.060252,7.855428807072249,0.0892129140901762
34.064832,7.880449828365288,0.0886260086743092
34.069416,7.907514087981914,0.0880203707763244
34.074008,7.940341508426864,0.0873700725570476
34.078604,7.97329111358596,0.0867199777482159
34.083192,8.006362903459202,0.0860645786031285
34.087784,8.03306060893339,0.0854854915187603
34.092375999999994,8.054894588026903,0.0849466008223441
34.096951999999995,8.080081935482717,0.0844057870172652
34.101552,8.101427175719646,0.0838998442720765
34.10614,8.127802468500027,0.0833884065185735
34.110727999999995,8.156631695195061,0.082877250171354
34.11532,8.179697761061767,0.0824102700017583
34.119907999999995,8.198555165567155,0.0819873947408526
34.12452,8.214469897301308,0.0815867912973925
34.129104,8.228830129568458,0.081186254405129
34.133708,8.237427201007284,0.0808252205038213
34.138299999999994,8.246801522179611,0.0804675910969885
34.1429,8.251189932257116,0.0801510410583524
34.147496,8.254434538458684,0.0798510533909574
34.152083999999995,8.260621817431485,0.0795291735067773
34.156687999999995,8.26026868584246,0.0792441698693963
34.161275999999994,8.257095066196346,0.0789751685726133
34.165884,8.251756023512499,0.0787303194013625
34.17046,8.24449592721921,0.0784981611634788
34.175059999999995,8.23891251510707,0.0782648510671979
34.17964,8.23819282937561,0.0779984204026205
34.184236,8.242214685310676,0.0777047044564538
34.18881999999999,8.241861553721652,0.0774222279193832
34.193411999999995,8.240608987684979,0.0771434934681161
34.198004,8.235103618838359,0.0768697024259205
34.20259599999999,8.226899946648793,0.0766048128164788
34.207196,8.221761131944609,0.0763141396291845
34.211788,8.219687174725804,0.0759971297156823
34.216376,8.223620747763617,0.075635181126081
34.22096,8.224000724459467,0.0753202995144536
34.225548,8.232064915593082,0.0749605758696714
34.23014799999999,8.238985302850756,0.074615651662873
34.234736,8.249092732307956,0.0742395131437201
34.23932799999999,8.256257488993922,0.0738828694941413
34.24392399999999,8.264321680127539,0.0735254698185808
34.248504,8.275084174604096,0.0731591675846382
34.253096,8.289200037442955,0.0727935288366612
34.25767999999999,8.30421533472946,0.0724262141730162
34.262268,8.320130066463612,0.0720575936608321
34.266859999999994,8.336044798197765,0.0716908060075127
34.27144799999999,8.35195952993192,0.0713270228238201
34.276036,8.370694749723164,0.0709550164602613
34.280632,8.389962849819618,0.0705959373796545
34.285216,8.411807068544867,0.070237479822584
34.289812,8.43532797145127,0.069880007482925
34.294408,8.466410904081291,0.0694916115836657
34.29899999999999,8.498803966750026,0.0691229469119308
34.30358,8.537082374961232,0.0687259352916118
34.308176,8.573195360134703,0.068353044203215
34.31275599999999,8.616581864154874,0.0679279826560986
34.317356,8.658946749013253,0.0675164838025686
34.32194,8.702577622461716,0.0670905622691417
34.32653199999999,8.749928418414916,0.0666569690526012
34.33112799999999,8.80046625656764,0.0661992221514716
34.335724,8.84932741053922,0.0657443759488621
34.34032,8.898188564510795,0.0652915449860152
34.344919999999995,8.94627246874887,0.0648388350048868
34.34950799999999,8.995988915719467,0.0643598602727502
34.35410399999999,9.04325142877541,0.0638781208882544
34.358692,9.093823168745024,0.063373683309994
34.363276,9.142596039819349,0.0628761929461853
34.367864,9.184950685045989,0.0623984365229752
34.37246,9.232657795509889,0.0618842674916424
34.377052,9.27713372232563,0.0613652657325004
34.38164,9.32287563773146,0.0608339545621634
34.386236,9.358845958927306,0.0603157124548053
34.39082,9.390274966436287,0.0597739653971241
34.395416,9.41132145616456,0.0592665273055455
34.400004,9.432856684749412,0.0587431673044576
34.404591999999994,9.44617481859129,0.0582365033085858
34.409195999999994,9.454585084603863,0.0577186601013354
34.41378399999999,9.46119648172114,0.0572037368498444
34.418375999999995,9.460734587971384,0.0566921549594342
34.422968,9.457574390878682,0.0561831476994831
34.427556,9.451471521014744,0.0556846044833274
34.43216399999999,9.442792532522008,0.055182491934536
34.436764,9.429982925933473,0.0546688192768653
34.441356,9.412065223535963,0.0541809511799583
34.445944,9.394025336424312,0.0536956207919397
34.45054,9.366135811837166,0.0532470619489004
34.455119999999994,9.333749115011775,0.0527984022208023
34.45972,9.297520310967505,0.0523570653468568
34.464308,9.25270785803782,0.0519364189723919
34.468908,9.20303167872746,0.0515274947720047
