Time,Force,Position
33.777252,2.220081111106278,0.1812355750369293
33.781856,2.356534863112095,0.1811209004968983
33.786444,2.489546963858355,0.1810293953457149
33.791048,2.618506489774331,0.1808722298828387
33.795644,2.747577960772713,0.180238279387464
33.800239999999995,2.8693215318440286,0.1796581991379535
33.804824,2.991832113017108,0.1785699937671968
33.809416,3.1086914784442694,0.1775275014561769
33.813996,3.2155246406014206,0.1767669107323935
33.818583999999994,3.324879540307003,0.1754875273164882
33.823172,3.424086052028428,0.1744865274139899
33.82776,3.5219721940794013,0.1733026934334064
33.832367999999995,3.615184598097623,0.1720288162529449
33.836963999999995,3.703723264083093,0.1706302458766752
33.841552,3.786933127016453,0.1691017503315916
33.846143999999995,3.862115883554764,0.1675584456679118
33.850724,3.929926598717378,0.166044691397924
33.855312,3.987388697916172,0.1648297704964021
33.859896,4.039365907531824,0.1636537229217147
33.864488,4.082593142099288,0.162737525847311
33.869072,4.124221735751119,0.1617685351097502
33.873659999999994,4.167194361258553,0.1606392996448998
33.878256,4.205625673079121,0.1595857576372635
33.882832,4.24511250587837,0.1583578079583232
33.88741199999999,4.275194298610076,0.157354613296233
33.892019999999995,4.305231949893153,0.1562862806017293
33.89660799999999,4.328152168860565,0.155334168634967
33.901216,4.348818681892988,0.1543407806964047
33.905804,4.366742750133839,0.1533442302137304
33.910396,4.375017408878856,0.1525941713668993
33.91499199999999,4.381571241994093,0.1518074255447469
33.91958,4.375655177556408,0.1513366945499278
33.924184000000004,4.361644203089891,0.1510752633819162
33.92878,4.348366336908249,0.1507317326404073
33.974692,4.082559659737193,0.1506647284166384
33.979288000000004,4.059965036385262,0.1506318503330599
33.983888,4.0395799775196926,0.1505800997389513
33.98848,4.027045459254663,0.1503591303321645
33.993068,4.014188528295824,0.1502438808603308
33.997656,4.004318411556849,0.1501078599477424
34.002244,3.998578912913674,0.1499037384174323
34.006836,3.995459674347927,0.1497174565310195
34.011424,3.99904717250678,0.1494074580839668
34.016,4.005621484885495,0.1490687165907373
34.02059599999999,4.008397831493957,0.1489193833026232
34.025184,4.017103665093515,0.1486570195939327
34.02977599999999,4.025853640141703,0.1484659588011804
34.034364000000004,4.035791560514457,0.148295459805943
34.038952,4.053824390916042,0.1479221646753176
34.043547999999994,4.076110024127575,0.1474661645272143
34.04813599999999,4.101260286844826,0.1470074603247711
34.05272399999999,4.127965049029081,0.1465311302974971
34.05732,4.155979941252048,0.1460714852632328
34.061916000000004,4.187226017123171,0.1455661790085882
34.066512,4.21912715801365,0.1450810188711155
34.071108,4.24874069115225,0.1446987522766394
34.075703999999995,4.274634301786113,0.1444149286757186
34.080284,4.2956641860393,0.1442786321743707
34.084883999999995,4.318082243596718,0.1440725351019826
34.089468000000004,4.3424213547635775,0.1438197519085961
34.094068,4.369458769273379,0.1435168994656897
34.09866,4.396207672906262,0.143177241822424
34.103255999999995,4.424100380415084,0.1427983778174946
34.10784,4.459022237342316,0.1422268382114802
34.112435999999995,4.493944094269548,0.1416509584285425
34.117023999999994,4.527189267015628,0.141114582158033
34.121616,4.562844232227733,0.1404919858544485
34.126208,4.602341304658722,0.1397824324628131
34.1308,4.642859996251503,0.1390651706961933
34.135388,4.681946373091425,0.1383611679985572
34.13997199999999,4.7207442390544285,0.1376330486752227
34.144563999999995,4.761585343341019,0.1368603804131624
34.149156,4.798540198960098,0.1361173400800112
34.153748,4.83263042507346,0.1353795750303744
34.15834,4.860180240624995,0.1347747854715887
34.16293199999999,4.886175556709527,0.1341794477823179
34.167511999999995,4.914214111117645,0.133529140540456
34.172092,4.942374850239909,0.132867030907989
34.17668799999999,4.971312839095675,0.1322068823039012
34.181276000000004,4.996653090160851,0.1316159090719027
34.185876,5.020194472330729,0.1310680172576389
34.19045599999999,5.044513104234111,0.1305223646381445
34.195044,5.071119343889372,0.1299175302476232
34.199644,5.0927396724498095,0.1294418557121253
34.204244,5.115748174314478,0.128911934979457
34.20884,5.141821533664527,0.128321737366237
34.213428,5.16495222024334,0.1278003000552497
34.21802,5.184607353745709,0.1273308139100795
34.222608,5.19886588056219,0.1269468067266592
34.227208,5.214923276273966,0.1265415792423397
34.231796,5.230736302557452,0.126161628480071
34.23639599999999,5.244095394926286,0.1258057153878719
34.240992,5.261052225085711,0.1253998079460754
34.24558,5.281606793035727,0.1249478750321273
34.250172,5.311888813747096,0.1243166661974966
34.25476799999999,5.344214072782052,0.1236426269282479
34.259356000000004,5.375639897369359,0.1229844177382512
34.263952,5.4109078291755495,0.1222667187394104
34.268544,5.445642880676529,0.1215413711717261
34.273136,5.480377932177509,0.1208120723917705
34.277724,5.512781234477982,0.1200954225034173
34.282312,5.544285102330808,0.1193978188207188
34.2869,5.569903624641164,0.1188141806835496
34.291492,5.595111451360453,0.1182081152200508
34.29607599999999,5.620563647508035,0.1175901188236955
34.300656,5.637676564198495,0.1170964267280963
34.30525599999999,5.657077088640833,0.1165480191293474
34.30983199999999,5.676721982511462,0.1159833202277702
34.314412,5.701108418048623,0.1153483283257023
34.319008000000004,5.722796550242839,0.1147526313322495
34.323596,5.739088075751167,0.1142206589843533
34.328184,5.754235797383559,0.1137177554557976
34.332772,5.766685215673005,0.113249618648193
34.33736,5.776436330619509,0.1128178274143507
34.341956,5.775804927785302,0.1125377259360892
34.34653599999999,5.776317328827036,0.1122315633507595
34.351136000000004,5.780016772068295,0.1118626101689
34.355724,5.778686162766105,0.1115292872396747
34.360324,5.77633393430212,0.1112150179164092
34.36490799999999,5.779334171075396,0.1107951270689314
34.369508,5.7868315800869095,0.110331132069727
34.37409999999999,5.790076186288475,0.1098956566077948
34.378691999999994,5.795486215527775,0.1094148749508995
34.383284,5.800118995033572,0.1089354178111266
34.387876,5.802708536215781,0.1084923693301485
34.392464,5.812082857388109,0.107951174354668
34.39706,5.816471267465615,0.1074896391168926
34.401648,5.819838058381326,0.1070456788056562
34.406236,5.819607111506446,0.1066399318479536
34.410824,5.818476730183919,0.1062428275155998
34.415416,5.824908378585011,0.1057499949920651
34.420004,5.837225372528573,0.1051763724661329
34.42459999999999,5.855305527300459,0.104533214695481
34.429196,5.873141312644055,0.1039079899363547
34.433784,5.896618074101829,0.1032107824927328
34.438376,5.919972650845455,0.102530578071403
34.442956,5.941816869570707,0.1019079891917063
34.44754799999999,5.968813325553554,0.1012591333553379
34.452144,5.997730835145844,0.1005915043541988
34.456731999999995,6.026037421167405,0.0999785375852035
34.461336,6.046781977465345,0.0994510538726911
34.465923999999994,6.074722009344468,0.0988659547940425
34.470527999999995,6.105238159852388,0.0982724319932119
34.475124,6.138863309294319,0.0976852030115129
34.47971999999999,6.1768634462603424,0.0970749715996664
34.484316,6.211432171598548,0.0965382634694329
34.488908,6.250620253889139,0.0959577518766566
34.493503999999994,6.292384454808528,0.0953667697354721
34.49809199999999,6.336602589642569,0.0947738658813707
34.502692,6.3844184622672016,0.0941585095377419
34.50728,6.431090531015896,0.0935786617691388
34.51188,6.47265450395562,0.0930784211480368
34.516468,6.509232565800525,0.0926482830235251
34.521055999999994,6.549530550150165,0.0921911202846665
34.52564399999999,6.59444789145219,0.0917059437420262
34.530235999999995,6.640020297773573,0.0912367028938235
34.53482399999999,6.686081442951537,0.0907455257276111
34.53942,6.72715667703468,0.0903158275160351
34.54402,6.765289238346589,0.0899202725411084
34.548616,6.7966370196683785,0.089593343398901
34.553204,6.836568449875581,0.0891900740083053
34.55779999999999,6.877399314530433,0.0887919070981208
34.56238799999999,6.916309125575843,0.0884160944835368
34.566976000000004,6.95672929463963,0.0880090085993487
34.571564,6.994573345074618,0.0876160690160443
34.576159999999994,7.034827187975631,0.0871824798026463
34.580744,7.077490823342668,0.0867141815231291
34.585332,7.123219316195085,0.0862203685902677
34.589915999999995,7.168170559314,0.0857290788940407
34.59450399999999,7.209524064642324,0.0852603110104187
34.59909199999999,7.247279832180055,0.0848135087090012
34.603688,7.284380534698431,0.0843584582907735
34.608276,7.3225028563786,0.0838944348705404
34.612884,7.35727180969647,0.0834412612535099
34.617476,7.386888525756743,0.0830090237524458
34.622064,7.41057575482592,0.0825887986058055
34.626652,7.431564680552151,0.0821839870273396
34.631244,7.452265095401463,0.0817508381520089
34.635848,7.475253118002653,0.0812857843568913
34.64042799999999,7.501916921659956,0.0807568978167967
34.645028,7.521263065021926,0.0802706977094496
34.649616,7.531737048621565,0.0798199853304197
34.654216,7.541922521344284,0.0793438703836326
34.658796,7.545689768219321,0.0789029089285418
34.663396,7.549046319503295,0.0784424447923646
34.667984,7.550071121586759,0.0779762706565889
34.672576,7.543656078660752,0.0775517249695796
34.677156000000004,7.5283688759724114,0.0771561257166373
34.68174799999999,7.5117715432453585,0.0767425806279564
34.68635199999999,7.497461818270183,0.0762975451277728
34.690948,7.483518647437445,0.075833076013982
34.695536,7.47198526907073,0.0753315601986412
34.700132,7.460163379827097,0.0748035781004211
34.70472399999999,7.44449938336458,0.0742978757163824
34.709308,7.425892714130829,0.073811598283357
34.713896,7.413826455458905,0.073290760737209
34.71849199999999,7.400982947053478,0.0727650245989251
34.72308399999999,7.394146968904666,0.0721929451642071
34.727664,7.388332609917648,0.0716145332232449
34.732263999999994,7.38251825093063,0.071036697498491
34.73685199999999,7.379768749428993,0.0704315315955032
34.741448,7.38139423545145,0.0698161048390312
34.74604,7.383919155921553,0.0692002393442084
34.750628,7.387221326125159,0.0685848985604272
34.755232,7.388602442719323,0.0679802944379438
34.759812000000004,7.392193123799849,0.0673941035824309
34.7644,7.402324215442201,0.0667804722819611
34.768995999999994,7.418873532932234,0.0661448207335978
34.77358399999999,7.439920022660505,0.0655035932709234
34.77818,7.457901654903397,0.064887853227939
34.782768,7.477682156041585,0.0642704613652512
34.787364000000004,7.496196668589687,0.0636760291120273
34.791952,7.5144668117094975,0.0630960423864418
34.796552,7.538866669800069,0.0624714087020906
34.801132,7.567353004537816,0.0618179112288298
34.805727999999995,7.591997232056679,0.061187499346239
34.810312,7.623059685423223,0.0605458592349706
34.8149,7.649669108000156,0.0599567862458479
34.819488,7.677177965024735,0.0593734535532241
34.82408399999999,7.7055862564969635,0.0587930323489145
34.828664,7.732728559379107,0.0582325251539914
34.833251999999995,7.759093612527749,0.0576689369307352
34.83783999999999,7.785336480962245,0.0571153083389266
