Time,Force,Position
34.246444,2.6580196150479534,0.1712387644730751
34.251036,2.817715998714991,0.1688049351269667
34.255624,2.971184144882272,0.1664693738586796
34.260212,3.116625184654502,0.1642254560602109
34.264804,3.2468877838991257,0.1628289561257356
34.269392,3.3632379312062266,0.1617931205255533
34.273984,3.467474495471102,0.160889677690122
34.27858,3.557920792512602,0.1602975657999965
34.283168,3.6400956137307583,0.1596577646907625
34.287755999999995,3.710811916926045,0.159152880280718
34.292352,3.779841296308443,0.1584410948493864
34.29694,3.842686579639713,0.1577157223928002
34.301536,3.899469951634,0.1569457415887393
34.306116,3.951990281186601,0.1560495725494275
34.31072,4.002945871640458,0.1549677563672018
34.3153,4.048416572511172,0.1539565785093265
34.3199,4.086036732781347,0.1531547065337307
34.324487999999995,4.125455761946817,0.1523357248591253
34.329088,4.165163301989207,0.151577209883829
34.333684,4.20503716819437,0.1508965568388842
34.338283999999994,4.2475312944769605,0.1502428425417568
34.342868,4.292279126694539,0.1496516190345151
34.34746,4.335316372914079,0.1492339803799886
34.352052,4.381262390087964,0.1488767497370436
34.356648,4.434203654863367,0.1484527438392651
34.361236,4.49557248199315,0.1479536886947834
34.365835999999994,4.567001414209834,0.1472958648552053
34.370424,4.643260170990304,0.1466545340213367
34.375012,4.7254925562105,0.1460006291844182
34.3796,4.813043504851065,0.1453136540703036
34.3842,4.897940291597315,0.1447667599493776
34.388788,4.980960166182753,0.1443447123814873
34.393376,5.065290170806903,0.1439599152205581
34.397956,5.151829739917415,0.1435862382586885
34.402536,5.234815712685962,0.1433484122770633
34.407132,5.313715208807338,0.1432260044924692
34.411724,5.395557377699948,0.1430278176005079
34.416312,5.476089416553847,0.1428424144610932
34.420904,5.559031247873769,0.1425910882096901
34.425484,5.6420952639078354,0.1423405302618269
34.43008,5.724748584350838,0.1420757065406415
34.43468,5.806580513611711,0.1417711359544115
34.439271999999995,5.892576962785276,0.1413127226750545
34.443864,5.980939062976235,0.1407480011887709
34.448443999999995,6.064226969175117,0.1402073265566278
34.453044,6.143706669972005,0.1396517546347088
34.457624,6.216068938453229,0.1391665282905207
34.462228,6.281025263741866,0.1387035436311391
34.466812,6.337554026676126,0.1382909284773623
34.471416,6.389741703903182,0.137843304618724
34.476008,6.440530968194268,0.1373013970126371
34.480599999999995,6.4878785812257975,0.1367031261478891
34.48518,6.527698066350596,0.1361376141498906
34.489776,6.557535489654012,0.1356196349788062
34.494364,6.5860966847356055,0.1349967875326501
34.498956,6.613137282167082,0.1342840383995676
34.503547999999995,6.636369674196564,0.1335421324703574
34.508132,6.651707384176879,0.1328499848359904
34.512719999999995,6.657718097355168,0.1322079324178943
34.51732,6.654523998445575,0.1316016678677203
34.521908,6.644945575505192,0.1309876872784454
34.5265,6.625429232192055,0.1304556962574908
34.531096,6.595852783792015,0.1300154839883982
34.535684,6.553395742247988,0.129709873626037
34.540284,6.508440625340681,0.1293724662810369
34.544872,6.458455455889923,0.1290770103316198
34.549468,6.407282341114598,0.1287592448675122
34.55406,6.356597965195856,0.1284049862576073
34.558651999999995,6.306524512847838,0.1280040266883758
34.563244,6.251709518833293,0.1276733956375962
34.567832,6.1926858634574256,0.1274252769042856
34.57242,6.133417838653267,0.1271879983196684
34.577008,6.072883825259024,0.1269867232699515
34.581599999999995,6.015458810798788,0.1267709457627555
34.586192,5.9569341339112425,0.1266257085430003
34.590771999999994,5.896165990720447,0.1265850853164204
34.595372,5.837607412016012,0.1265342645640161
34.599964,5.781913462817295,0.1264877515189094
34.604552,5.730516457877153,0.1264451474325407
34.609144,5.68725850441447,0.1263419454253437
34.61374,5.65062924441087,0.1262319618429252
34.618323999999994,5.624837339227672,0.1260297737355329
34.62292,5.60808391996958,0.1257573096154454
34.627516,5.603966724427187,0.1253677539111407
34.632104,5.601614495963202,0.1250616655614663
34.6367,5.601882527576641,0.1247770553035435
34.641292,5.603749200105713,0.124536183610021
34.64588,5.615675977721685,0.1242125488112574
34.650468,5.631899699596236,0.1239018332097607
34.655055999999995,5.656262472948244,0.123539399508521
34.659648,5.686843244168271,0.1231554614555687
34.664232,5.720821525199227,0.1227944489531896
34.66882,5.762283792688284,0.12237681030588
34.673404,5.812007296368945,0.1219076897618999
34.677983999999995,5.8640625492501135,0.1214316465996146
34.682576,5.927155384931348,0.1208165411410289
34.687172,5.992091230956506,0.120239102499282
34.691759999999995,6.060258260629819,0.1196465446234383
34.696364,6.132023028093722,0.1190236070740593
34.700952,6.206486098900569,0.1183906216141931
34.705555999999994,6.279150300812121,0.1177887323390031
34.710152,6.35385774104726,0.1171709076396897
34.714735999999995,6.428687365996544,0.1165622376070277
34.719331999999994,6.499797068441091,0.1160139084967337
34.723928,6.574460367227601,0.1153892267544072
34.72852,6.654886826842436,0.114696037377615
34.733107999999994,6.739277578390298,0.113954325834242
34.737704,6.8145518007475365,0.1133281845435346
34.742284,6.889048773371274,0.1127151332136413
34.746888,6.962890680975657,0.112109896062403
34.751476,7.036566262417265,0.1114797038279395
34.756063999999995,7.113795440200836,0.110788827809789
34.760656,7.189059422926339,0.1100940808470302
34.765252,7.2608037111267665,0.109403577748272
34.769859999999994,7.335857226240865,0.1086676461821214
34.774456,7.40293801604028,0.1080102543755626
34.779044,7.4660103724580384,0.1073661502713342
34.78364,7.532880694646051,0.106656433843424
34.788228,7.595498214024116,0.1059781321188574
34.792812,7.653985115306378,0.1053280714933119
34.7974,7.711161886549928,0.1046696764551048
34.802,7.764208039697674,0.1040376073867914
34.806588,7.813900824483122,0.1034262370985378
34.81118,7.864326717553441,0.1027834975108936
34.815776,7.914341915032695,0.1021342683557723
34.820364,7.960470863844443,0.1014965465817907
34.824956,8.00169194482688,0.1008778043141903
34.829544,8.04610006800885,0.1002192315100117
34.834128,8.084578704199714,0.0995846541675709
34.838712,8.121336514760802,0.0989274107187885
34.8433,8.154985326387882,0.0982742331270514
34.847888,8.183481900757366,0.0976514969595627
34.852476,8.209402356498051,0.097043066965016
34.857063999999994,8.229026771105202,0.0964748645864123
34.86166,8.240800645111813,0.0959458972460611
34.866248,8.250120585203772,0.0954202216769931
34.870852,8.262749752209404,0.094850928910055
34.87544,8.265895835881972,0.0943601898156973
34.88004,8.267853974229975,0.0938502868139267
34.88462,8.266214374787385,0.0933603991658539
34.889224,8.264941329487234,0.0928535934074765
34.893812,8.259293296662987,0.0923649498253273
34.898412,8.252090764371736,0.0918738369519997
34.902992,8.241412679004043,0.0913967111766395
34.907588,8.223294748626873,0.0909688945741935
34.912175999999995,8.202356330192615,0.0905600799797395
34.916771999999995,8.180396292596564,0.0901600125115785
34.921364,8.154061267476418,0.0897763314593939
34.925956,8.133733772612889,0.0893340270387006
34.930544,8.106377128330948,0.0889560648496332
34.935128,8.07787668017307,0.0885920866802205
34.939708,8.043735255901014,0.0882644500656252
34.944303999999995,8.00947164691481,0.0879405179234031
34.948896,7.9779063412715505,0.0876002382650203
34.953475999999995,7.948917154257091,0.0872497506346577
34.958068,7.923647889747367,0.0868737480940749
34.962656,7.895558137180554,0.0865154898492862
34.967248,7.869145068794893,0.0861521123419062
34.971844,7.844042130447944,0.085801705488934
34.976432,7.821637495443939,0.0854366016638243
34.981027999999995,7.798744121583351,0.0850941145464874
34.985616,7.782801853875655,0.0847290686757792
34.990204,7.769191335368464,0.0843684314180699
34.9948,7.754725523862254,0.0840473206720733
34.999392,7.7442681457377,0.0837273684507247
35.003996,7.736919766547156,0.0834143686193633
35.008592,7.733702005452412,0.083098945909187
35.013188,7.733471058577533,0.0827961547608403
35.017772,7.730341580380046,0.0825550160525174
35.022372,7.736084261944893,0.0822794495722479
35.026951999999994,7.749799668824425,0.0819769612003679
35.031552,7.772265050752143,0.0816469735571589
35.036136,7.799760485223313,0.0813143887595263
35.040732,7.831019983647846,0.0810000187682655
35.04532,7.868331153777624,0.080675298479834
35.049912,7.905031400336674,0.080381730770131
35.0545,7.943041776934436,0.0801055378148125
35.059096,7.98824762911338,0.0798040252921634
35.063683999999995,8.035785230492833,0.0795115455377206
35.068268,8.084632961910996,0.0792371383771588
35.072855999999994,8.134257943062666,0.0789665319790274
35.077444,8.179918632281304,0.0787293851161736
35.08204,8.228277624842885,0.0784858387982914
35.086636,8.282521962946936,0.0782019700483588
35.091232,8.339953343250514,0.0778894418465335
35.095808,8.397629092982383,0.0775698998076348
35.1004,8.455671396856689,0.0772395367698356
35.104992,8.516001308482872,0.0768853143293473
35.109584,8.57849664314679,0.0765103755098927
35.11418,8.64148071666729,0.0761217272030109
35.118768,8.695348260997168,0.0757725524185326
35.123376,8.747905675288331,0.0754136552716419
35.127964,8.794655787302542,0.0750573882041884
35.132556,8.838663454525182,0.0746795694915493
35.137152,8.874820581147283,0.0743191517367409
35.14174,8.911710816054256,0.0739304856943343
35.146336,8.947945985941873,0.0735357863107307
35.150928,8.97747441910489,0.0731453000973482
35.155524,9.002217169152747,0.0727456724232469
35.160112,9.023850920266598,0.0723365381916698
35.1647,9.04429672605588,0.0719082938578989
35.169287999999995,9.065720009558328,0.0714411037408518
35.173896,9.07941493717438,0.0709809278149535
35.178487999999994,9.088857061980486,0.0705248997270131
35.183084,9.097521937053092,0.0700695740002912
35.187676,9.101934009315746,0.0696156973890592
35.192272,9.100050040444868,0.0691771043867971
35.196867999999995,9.091092780706951,0.068749979965031
35.20146,9.079026522035027,0.0683113910209705
35.206052,9.05784373417248,0.0678970120888547
35.210636,9.039070738775957,0.0674518943297984
35.215224,9.01694437501713,0.0670040618963807
35.21982,8.99751631460125,0.0665496148375012
35.224408,8.976045015861779,0.066107382257754
35.228995999999995,8.958538009055339,0.0656418562266272
35.23358,8.940253752515396,0.0651731517505006
35.238172,8.919515562060802,0.0646980674002843
35.242768,8.897755752444414,0.0642267865401318
35.247356,8.87509650838038,0.0637534834789636
35.251952,8.852559449030487,0.0632729254086507
35.25654,8.829778020252306,0.0628007549606608
35.261128,8.8045867990081,0.0623546375714601
35.265736,8.78683542277337,0.0618855756897924
35.270323999999995,8.769206231252783,0.0614103141078923
35.274919999999995,8.747202052208104,0.060935866728355
35.2795,8.727773991792223,0.0604606645350759
35.284088,8.71308747304287,0.0599676817742533
35.288684,8.706618049036496,0.0594585347823135
35.293271999999995,8.701048059477769,0.0589471372398909
35.297867999999994,8.700097426871427,0.0584220228732285
35.302448,8.696859186513207,0.05791731680368
35.307047999999995,8.694153826460198,0.057425453018827
35.311636,8.686706924740657,0.0569472456427228
35.31624,8.679260023021117,0.0564672851248185
35.320832,8.670424947997347,0.0560086905884106
35.325419999999994,8.658280646059906,0.0555760285448406
35.330012,8.649734081913051,0.0551392653281805
35.334608,8.642742017233207,0.0547092042736636
35.339203999999995,8.641024374525102,0.0542791165706104
35.343796,8.640861231284,0.0538570784167264
35.348388,8.640575903328756,0.0534395169851868
35.352984,8.638369521764067,0.0530258344545911
35.357572,8.630932859676268,0.0526455551931362
35.362156,8.622108024284236,0.0522845475631716
35.366747999999994,8.614593318930917,0.0519409161850459
35.371328,8.604380310234655,0.0515976287425789
