Time,Force,Position
38.332272,3.035512691653548,0.1646611310864892
38.33686,3.2311154666710484,0.1634940075630051
38.341452,3.424498437570449,0.1619083093415938
38.346044000000006,3.610431323828637,0.1607088622442539
38.350632,3.784006257616308,0.1598880199872702
38.355228,3.948165911704697,0.1591413347847456
38.359808,4.1063416977216205,0.158242442866742
38.364396,4.248439608763291,0.157755398375992
38.368992000000006,4.383287663143412,0.1571564594402567
38.37358,4.514561641918093,0.1562686448331947
38.378176,4.632778461754271,0.1554534006716204
38.382772,4.74460071792792,0.1544752515869281
38.387368,4.84438743432486,0.1535149012669921
38.39195600000001,4.932138610945092,0.1525603884968376
38.396548,5.011041289988141,0.1515164188767974
38.401132,5.069491106531842,0.1507658400396034
38.405736000000005,5.1165265465013015,0.1501341520457569
38.41032800000001,5.155867532401257,0.1495295743472611
38.414916000000005,5.181262164546801,0.1491287293116049
38.419512,5.206812883223381,0.1485982871553406
38.424104,5.232030949574413,0.1479790656852069
38.428708,5.255528190295666,0.1473261833404456
38.43330400000001,5.275139182349409,0.1467175232430516
38.4379,5.289065056840344,0.1461818604742221
38.4425,5.30233586631192,0.145643242923838
38.44708800000001,5.315073795478288,0.145094388692809
38.451684,5.322292933244624,0.144661235898269
38.456272,5.331144613743478,0.1441525497054274
38.46086,5.3380752406328895,0.1436896352802758
38.465448,5.3401421411416266,0.1433447771331502
38.470044,5.342864106669721,0.1430046493579679
38.47464000000001,5.340355791674701,0.1428066927233255
38.479228000000006,5.337114368394805,0.1426689950964927
38.488412,5.328265870817623,0.1425301426644362
38.492996000000005,5.327278153472716,0.1424383939440981
38.49758800000001,5.327478381452378,0.1423642857948407
38.502176000000006,5.3295216197759645,0.1423124984841381
38.506772,5.339537583414236,0.1421280318349569
38.51136,5.350741492377074,0.141966298022677
38.515952,5.36145666248333,0.1418452009649912
38.52054,5.372826897608943,0.1417277677198748
38.525128,5.385629447487412,0.14161025689037
38.529724,5.398842692956949,0.1415143004453017
38.534304000000006,5.413732622607636,0.1413981760879967
38.538904,5.4254355100587945,0.1413663625661348
38.54348400000001,5.444211688376992,0.1412233720980104
38.548084,5.459556455067374,0.141185020302884
38.552672,5.479520578710139,0.1410641839912094
38.557272,5.499118148210469,0.1409710991782183
38.561864,5.521291836339595,0.1408460364946917
38.566460000000006,5.548084881421106,0.1406366513589864
38.571052,5.577820599273852,0.1403649090363284
38.575648,5.602570406031776,0.1402052780378124
38.580236,5.636514785245842,0.1398275680260951
38.584836,5.668660295564616,0.1394890350814771
38.589428,5.703215598349411,0.1390769987263046
38.594012000000006,5.731841414143108,0.1387350816329771
38.598600000000005,5.753027384927332,0.138528737595259
38.603188,5.769593998759168,0.1384052542469962
38.607776,5.789225470076388,0.1382154114721542
38.61237200000001,5.812821233326634,0.1379461926032764
38.616968,5.836539181291028,0.1376713933933863
38.621556,5.8662646595120345,0.1372735542929735
38.626152000000005,5.898033376056629,0.1368388523567074
38.63074,5.936831242019633,0.1362620517872804
38.635336,5.96741201323966,0.135816127570105
38.63992400000001,6.001179826659216,0.1352956569592983
38.644516,6.027752164497587,0.1348830196715364
38.649124,6.0558348603543335,0.1344142681625269
38.653704000000005,6.077621515077546,0.1340370983189074
38.65829600000001,6.095810432010167,0.1337130797221579
38.662888,6.111667599742281,0.1334044942828241
38.66748,6.13467610160695,0.1329493176188589
38.672076,6.152820877090941,0.1325897260740286
38.67665600000001,6.169166783679639,0.132257230606641
38.681252,6.186289940001837,0.1319258998638516
38.68584,6.213551244676454,0.1314488702662645
38.690436000000005,6.247719514055332,0.1308477639441062
38.695016,6.283686652329507,0.1302213853870796
38.699616000000006,6.313768445061212,0.1297033619168447
38.704212,6.340663195593391,0.1292601802579611
38.708812,6.365881261944419,0.1288348303924606
38.713396,6.386602156057209,0.12847360239546
38.717992,6.403603127665263,0.1281694051465493
38.722596,6.414840938444992,0.1279595112219689
38.727188,6.4349067675384255,0.1276047802099712
38.73178,6.454972596631857,0.1272539731169443
38.73637600000001,6.479657782677676,0.1268403219231987
38.740956,6.502299730399908,0.1264649695007374
38.745548,6.530827023664608,0.1259936078036182
38.75014,6.562541359128834,0.1254602156114366
38.75473600000001,6.59593237877421,0.1249171774414969
38.75932400000001,6.626258540934206,0.1244401662190299
38.763912000000005,6.65556308393241,0.1239806970236142
38.76850400000001,6.685767061378261,0.1235127618680861
38.773096,6.7153159738047545,0.1230469246569698
38.77768,6.736769976202419,0.1226782512134657
38.782268,6.756547294418934,0.1223285322013899
38.78686400000001,6.776935536206176,0.1219438014388199
38.79146,6.803820047106617,0.1214377288778586
38.796040000000005,6.830538231844283,0.1208984673993911
38.800628,6.859299654905537,0.1203292006235814
38.805216,6.886262209071495,0.1197782156486253
38.809804,6.915756740417621,0.119168842734141
38.814400000000006,6.948316129249128,0.1185119669346766
38.81898,6.971636804175866,0.1179668061412918
38.823584,6.993525164349745,0.1174216719091254
38.828176,7.014103394484911,0.1168694033914871
38.832768,7.038890285981396,0.1162492772828539
38.837356,7.062244862725023,0.1156327222070767
38.841948,7.084044940001646,0.1150239155714047
38.846548,7.102491648915969,0.1144361603833107
38.851136,7.116929924448636,0.1138629996727649
38.855724,7.132756373285532,0.1132532274871517
38.86031200000001,7.146373257636068,0.112640892883683
38.864904,7.15561515446251,0.1120637547226099
38.869496,7.16828846291677,0.1114207876496056
38.874084,7.177241848866292,0.1108190815108225
38.878672,7.190281711462989,0.1101654671307946
38.883264,7.1934719365841895,0.1096387653226249
38.88784,7.196784346419534,0.1091062385620821
38.892436,7.19674338789258,0.1085916070511953
38.897028000000006,7.201566155746301,0.1080196847941899
38.901624,7.202424631666992,0.107499596793404
38.906212,7.20197297754897,0.1069692892042242
38.910804,7.20818391870692,0.1063673181656705
38.915392,7.212595990969574,0.1057795632899071
38.919972,7.215986444070435,0.1052062979519528
38.92456800000001,7.217822397704292,0.104638136597898
38.929156000000006,7.217492928300415,0.1041049512891057
38.933764,7.221005566115422,0.1035351290028168
38.93836,7.226805811682307,0.1029251754274137
38.942948,7.234937806449698,0.1023137742625326
38.94754400000001,7.242170366769441,0.1017095876937703
38.952132000000006,7.252878480165632,0.1010873209869272
38.956728,7.267839396371769,0.1004460333249066
38.961316,7.27708129319821,0.0999023128002018
38.965912,7.288366428348239,0.0993322975650169
38.97049200000001,7.29172297963221,0.0988560561235711
38.975092,7.304684798963389,0.0982829526133853
38.97968,7.319445487189863,0.0977011792053072
38.98428,7.336660109330989,0.0971150348819791
38.98886400000001,7.34925537451973,0.0965688245530018
38.99346,7.36364950860377,0.0960102252602094
38.998052,7.380253207174169,0.0954644377420072
39.00264800000001,7.3941586024016255,0.0949406819532463
39.007236000000006,7.412683354581467,0.0943847228092658
39.01182800000001,7.434805844551898,0.0938100114870934
39.01642,7.455417976503953,0.093275939134891
39.021004000000005,7.479994400389038,0.0927052355590388
39.025592,7.499462728465156,0.0921975573325322
39.030184000000006,7.519219567418192,0.0917188148698312
39.034772,7.54204126385661,0.0912099275319972
39.039364000000006,7.569604501961557,0.0906686500095198
39.04396,7.598189359228296,0.0901231893391548
39.04854,7.62558627117047,0.08956135051611
39.053132000000005,7.662422124997077,0.0888932624982459
39.05772,7.700934663004834,0.088227406836745
39.062308,7.739447201012591,0.087557128202366
39.066916000000006,7.774484185943902,0.0869075424571492
39.071504,7.807600117265771,0.0862781019044992
39.0761,7.839161549120636,0.0856483364709647
39.08068,7.875464522642034,0.0849893930625316
39.08528,7.912134050305866,0.0843160673726996
39.089872,7.94455077515975,0.0836558618507076
39.094464,7.97516863111834,0.0830055013513868
39.099056,8.00128931483869,0.082379475240221
39.10364800000001,8.023157195749093,0.0817651960965389
39.108248,8.043592761906636,0.081141376324944
39.112836,8.058265167235854,0.0805601785096625
39.117436,8.072404692259864,0.0799644794160644
39.122024,8.08433465279751,0.0793575526653329
39.12662400000001,8.090990191363417,0.0787687522429214
39.13122,8.093026372976938,0.0782070399409808
39.13582,8.090687567066366,0.0776586020436755
39.140404,8.090025445336943,0.0771112577643027
39.145,8.084499597226845,0.0766010216279382
39.14958800000001,8.07357714243086,0.0761089214010077
39.154184,8.067884968157987,0.0755671201955264
39.158764000000005,8.062070609170968,0.0750313867565969
39.163348,8.053557946841007,0.07450320810585
39.16794,8.047088522834633,0.0739582971223312
39.172528,8.033834318838139,0.0734554111440326
39.177116,8.019558495679854,0.0729601935744708
39.181712000000005,8.006182106969217,0.072460491152628
39.186308,7.995381836887376,0.0719576329125275
39.190892000000005,7.989445293186213,0.0714257319869256
39.195476,7.985962683399701,0.0708970738953878
39.200056,7.985056192241988,0.070366377947141
39.204632,7.988113993017304,0.0698088257709459
39.209228,7.992970662687913,0.0692462629938293
39.213808,8.002202319882617,0.0686794752287298
39.218396,8.01760783349671,0.068104591012909
39.222992000000005,8.037510519349043,0.0675226575593969
39.22758400000001,8.05986713911603,0.0669466494385416
39.23218800000001,8.078015097521694,0.066407719618828
39.236768,8.095674317070777,0.0658919832096721
39.24136800000001,8.1186079585916,0.0653697347872284
39.24595600000001,8.141952295703488,0.0648728314049634
39.250556,8.167628382015884,0.064389663127342
39.25513600000001,8.199600509461815,0.0638962607264264
39.259736,8.233782201394106,0.0634244384420332
39.264324,8.274626488602369,0.062926274242014
39.268916,8.318824144172934,0.0624358066212811
39.27350800000001,8.36547573365815,0.0619543308254175
39.278104,8.4150699959146,0.0614644246756998
39.282692,8.462909530724383,0.0610183659905308
39.287284,8.51062688082002,0.0605809921254853
39.291876,8.561286903686891,0.0601355234239685
39.29646,8.61427867575427,0.0597072232422058
39.30104800000001,8.669846566450447,0.0592850756694778
39.305648000000005,8.722349599661243,0.0588856584477387
39.310236,8.770888340939011,0.0585100597977618
39.314828000000006,8.81828327834084,0.0581510302302862
39.319424,8.864412227152583,0.057809695746987
39.324016,8.914627652611502,0.057446566183215
39.32861200000001,8.964965262784565,0.0570801939442586
39.333192,9.016446676833567,0.0567079119902766
39.337788,9.062164930054246,0.056357301684813
39.342384,9.106573053236213,0.055993170929841
39.34697200000001,9.147505623341733,0.0556317295577692
39.351568,9.18201996759957,0.0552822677704664
39.356152,9.214491073533823,0.0549470403423565
39.36074000000001,9.244263876125128,0.0546162671304676
39.365332,9.273259428982936,0.0542839047879238
39.36992000000001,9.299067939641215,0.0539752070281533
39.374512,9.320379278061257,0.0536695667175887
39.379092,9.341690616481296,0.0533654358118666
39.383692,9.353030132711693,0.0531038253167241
39.38828,9.35795142309441,0.0528512253523882
39.392884,9.35800898709645,0.0526154602484388
39.39747200000001,9.35806655109849,0.0523798210166908
39.402072,9.356325246205232,0.0521447729361058
39.406668,9.344567977673703,0.0519181600437894
39.41126,9.333954513018115,0.051682013220418
39.41584400000001,9.32219724448659,0.0514559191241008
39.42044,9.30851892234562,0.051234557247472
39.425036000000006,9.288055820214534,0.0510334127374383
39.429636,9.269635956407033,0.0508213807639563
39.434228,9.243165324019332,0.0506425152322837
39.438816,9.21158659582266,0.0504868191391476
39.443404,9.180007867625992,0.0503296863197431
39.447996,9.14380978247694,0.0501772519011039
39.452584,9.101970721213702,0.0500339907734901
39.457176,9.05539011828394,0.0498994932966774
39.461768000000006,8.999570801449407,0.0497748526158152
39.466356000000005,8.942852050167225,0.0496490111509097
39.470952,8.880492322770865,0.0495320684160807
39.47554,8.822341256735825,0.0493891334532537
39.480132,8.76047026819605,0.0492493297503901
39.48472,8.695900976313329,0.049108293083878
39.48930800000001,8.625812893030574,0.0489710001035624
39.493904,8.55098326808129,0.0488422182077266
