Time,Force,Position
34.104288000000004,5.852859129077968,0.1424911186030644
34.108876,5.913698258824216,0.1415113370449066
34.113472,5.962101392834429,0.1406412586621773
34.118064000000004,5.995536553928436,0.1399656001055775
34.122652,6.025285694334595,0.1392623317846295
34.127252,6.050205010176967,0.1385548703541313
34.131840000000004,6.069150697579612,0.1378780085233514
34.136436,6.080490213810009,0.1372981312171967
34.141024,6.086144612477598,0.1367755299310791
34.145612,6.085214459134735,0.1363212871143404
34.15022,6.081708187163073,0.1359002501726544
34.154808,6.074604177400819,0.1355348491900052
34.1594,6.063535875705537,0.1352505752888277
34.163996,6.050790889829106,0.1349844273733711
34.168584,6.032937808143707,0.1348287832524271
34.177784,5.982107585325667,0.1347781800285235
34.18238,5.963521395355394,0.134671043936384
34.186968,5.946489704852126,0.1345544810770954
34.191564,5.928847090778127,0.1344807463665383
34.196144000000004,5.91173735700934,0.1344197950360579
34.200744,5.90452140216468,0.1342178182699799
34.205336,5.90233549986347,0.1339660447648179
34.209936,5.906201269267504,0.1336423910264582
34.21452,5.908067941796577,0.1334095413713399
34.219108,5.913698678279015,0.1331666760938535
34.2237,5.921416794533672,0.1329296574221159
34.228292,5.933021159455838,0.1326731294826429
34.232892,5.948633957759661,0.1323906740248643
34.23748,5.966089766407407,0.1321291987274808
34.242072,5.987676193150954,0.1318343602150194
34.24666,6.012371618828511,0.1315263736706538
34.251252,6.039887532563158,0.1311745950814545
34.25584,6.066137457707719,0.1308619829296762
34.260432,6.100971031737695,0.1304070703571771
34.265024000000004,6.140712473596974,0.1299160397151574
34.26962,6.1838072838185525,0.1293887414761991
34.2742,6.219462249030659,0.1289852121921642
34.278796,6.2560166486904105,0.1285747700362973
34.283376000000004,6.294614286673752,0.1281266883254711
34.287968,6.336032412714181,0.1276399949451881
34.292564,6.365802032383816,0.1273571232021292
34.297152000000004,6.396593271215245,0.1270599949448234
34.301756,6.426485075599025,0.1267768593664797
34.306344,6.457887238001183,0.1264427891304191
34.310936,6.488634335383983,0.1261087049550888
34.315528,6.521302486376225,0.1257493807899271
34.320128000000004,6.558545852872223,0.125295196424804
34.32472,6.595134154348865,0.1248429769782458
34.3293,6.633232813843885,0.1243422479032891
34.333896,6.666301420795454,0.1238833389869174
34.338476,6.696261028813014,0.123436890286635
34.343076,6.7255655718112175,0.1229901278488535
34.347664,6.753682169484854,0.1225244693787292
34.352264,6.773703857129658,0.1221517695211993
34.356856,6.789961480821099,0.1217860795934611
34.361452,6.808995451121,0.1213445584758903
34.366044,6.827374356401545,0.1208957265166378
34.37064,6.839701589976846,0.1204991466522211
34.375232000000004,6.849574889637495,0.1201182729793512
34.379828,6.855195386488195,0.1197720734763718
34.38442,6.863470045233211,0.1193512809540083
34.389012,6.869657324206013,0.1189249362372676
34.3936,6.876455526749543,0.1184632250497713
34.398188,6.881577045111921,0.1180137088212004
34.402776,6.882323575950206,0.1176035618467014
34.407368,6.884336095378577,0.1171663616434856
34.411964,6.875721727597947,0.1168744166804722
34.416556,6.863509622026727,0.1166184637397739
34.421152,6.852441320331443,0.1163390535370412
34.425732,6.844193506693249,0.1160251926297762
34.430324,6.835168443321551,0.1157118347544656
34.434912000000004,6.82344507660691,0.1154244544990307
34.439492,6.8168739471498645,0.1150992598242051
34.4441,6.820318781331092,0.1146730923064312
34.448688000000004,6.822497626922235,0.114276034868535
34.453276,6.8223888647615,0.1139274836298136
34.457864,6.824856221229561,0.1135605194116495
34.462452,6.835296303012307,0.1131249210046534
34.467048,6.848190318709708,0.1126799787696675
34.471636000000004,6.866358756378851,0.112195010097998
34.476228,6.884815704924912,0.1117374095911948
34.480816,6.903971859938958,0.1113297784186575
34.485416,6.923294341115776,0.1109597284998779
34.490008,6.944948571493103,0.1105881690295515
34.494608,6.970977789394523,0.1101835982426933
34.499204,6.992920530648769,0.1098432338982103
34.503804,7.023857616379491,0.1094236740826104
34.508384,7.063011796853189,0.1089332151222171
34.51298,7.102698857632102,0.1084632684376592
34.517564,7.143040983430369,0.1080043168181583
34.522164000000004,7.188535346486233,0.1075178445060598
34.526756,7.238160327637903,0.1070170947454138
34.531348,7.287008059056069,0.1065274436527061
34.535936,7.330214814360055,0.1061043967023255
34.540524,7.376897122740489,0.1056601054910734
34.545108,7.422435627244982,0.105238116387697
34.549704,7.468995750911269,0.1048067963520734
34.554288,7.512613201806322,0.1044148950772874
34.558868000000004,7.55659720684381,0.1040091502074414
34.563468,7.595184605195411,0.1036470026777993
34.568044,7.636303980727182,0.1032360505414369
34.572632,7.676479780362677,0.1027953569262761
34.57724,7.715467634673606,0.1023386445510718
34.581832,7.754944227841117,0.1018615496256334
34.586432,7.7968306134746515,0.101348488135069
34.59102,7.836507434621825,0.1008279245799214
34.595624,7.869355334330254,0.1003414151489674
34.600216,7.893208889562205,0.0999212723154091
34.604804,7.915752314755442,0.0994925628816451
34.6094,7.939928282681203,0.0990264611989302
34.613992,7.958052578901718,0.0985905250844248
34.618584,7.974866745083519,0.0981450632752188
34.623164,7.988083173474728,0.0977245898630528
34.627764,7.999090037379579,0.0972971749787911
34.632344,8.008908955959862,0.0968526154974184
34.636944,8.018317178949077,0.0963895068279744
34.64154,8.028091956080731,0.0959118105691553
34.64614,8.037578222335464,0.0954110279758437
34.650732,8.044121815818961,0.0949395396766516
34.655324,8.053485897359549,0.0944463059635837
34.659912,8.0599073061289,0.0939822893547674
34.664508,8.065429280450607,0.093523811550659
34.6691,8.072750123667605,0.0930571506824198
34.673696,8.07712829411337,0.0926185769536963
34.678284,8.07549893430252,0.0922405211947788
34.682868,8.077345127568115,0.0918481492480475
34.687456,8.086875535271474,0.0913955768965053
34.692056,8.097183192708338,0.090941871201414
34.696644,8.103282188783881,0.0905362538937585
34.701236,8.105827588517462,0.0901876652938342
34.705832,8.113891779651073,0.089805612367104
34.710416,8.118236048279948,0.0894478835234361
34.715008,8.122335947480535,0.0891012468767768
34.719596,8.128767595881625,0.0887582991068003
34.724192,8.137530993483223,0.0884209374007766
34.728776,8.148992694427765,0.0880714642838796
34.733364,8.160210025944018,0.0877362255216275
34.737956000000004,8.171960237765479,0.0874150208829458
34.742548,8.186653122358175,0.0870708406654808
34.747136,8.199302768627286,0.0867470836584417
34.751732000000004,8.214650718239337,0.0864119490229174
34.756312,8.232696971194333,0.0860660646354406
34.760904000000004,8.246001682482799,0.0857525320308123
34.765492,8.260450197647208,0.0854241098749268
34.770092,8.278985189458785,0.0850579924098645
34.774672,8.29572131237507,0.0847009500918435
34.779272,8.304651036139443,0.0844054848357507
34.783856,8.318566670998637,0.0840697496700207
34.788452,8.335669348057358,0.0836994839678367
34.793044,8.350440275915572,0.0833231495333927
34.79764,8.361613465983197,0.0829641645304025
34.802244,8.379327066612644,0.0825694388848693
34.806836000000004,8.396629971651029,0.0821558107922522
34.811428,8.413399996384202,0.0817310361010791
34.81602,8.427838271916869,0.0813033797210483
34.820608,8.439578244106592,0.0808881078992949
34.825196,8.448864282381663,0.0804739464754578
34.829784000000004,8.460560113122757,0.0800289339191188
34.834368,8.4698020099492,0.0795850095892918
34.83896,8.480676449508165,0.0791059785185316
34.84354,8.488974770438332,0.0786327781624314
34.848132,8.49277591913026,0.0781759154767406
34.85272,8.501807348345302,0.077671711796608
34.857312,8.513004200598075,0.0771479793210538
34.861896,8.522279999241407,0.0766379940662223
34.866484,8.535520089817767,0.076102805137782
34.871088,8.553623906774805,0.0755378383431118
34.875676,8.564942943741725,0.0750147540733423
34.880268,8.578427403746375,0.074473167904411
34.884868,8.598941013169437,0.0738838963230613
34.889456,8.620476241754291,0.0732879405102357
34.894052,8.63829154783441,0.0727121403783801
34.89864,8.659582406990973,0.0721330334220697
34.903240000000004,8.683571569490478,0.0715505535565704
34.90782,8.70768291670413,0.0709653991886822
34.91242,8.733715317527226,0.0703724222213253
34.917008,8.759747718350319,0.0697804304475386
34.921608,8.780016958345088,0.0692197441474696
34.9262,8.801718513092718,0.0686716162201698
34.930796,8.827795055364437,0.0681236162154081
34.935392,8.855914835959748,0.0675637137998304
34.939984,8.891352276850386,0.0669861240715769
34.944588,8.924257740560853,0.0664463227058982
34.949184,8.951932923748206,0.0659472306156576
34.95378,8.981651345259149,0.0654379193699538
34.958376,9.00740547483706,0.0649537116312494
34.962964,9.029439681910237,0.0644831923354651
34.967552,9.05915810342118,0.0639810303628947
34.972132,9.084912232999091,0.063502573122137
34.976724,9.106335516501538,0.0630638800598654
34.981316,9.131478722508724,0.0626181775931716
34.985904,9.158665166839496,0.0621629032358711
34.990496,9.184297111703264,0.0617038920436551
34.995084,9.20633131877644,0.0612531163459918
34.99968,9.226322287526028,0.060815158518303
35.004268,9.24733487543741,0.0603743945564558
35.008856,9.269124713082295,0.0599381672077035
35.013452,9.294634473231916,0.0594932535344446
35.01804,9.321532406685767,0.0590318300961482
35.022648000000004,9.343933167901383,0.0585802843764704
35.02724,9.36621174440285,0.0581361233624257
35.031844,9.38141703003728,0.0576974645957523
35.03644,9.396089435366502,0.057246443403573
35.041028,9.41611430593298,0.0567598906157828
35.04562,9.430498200385278,0.0562879710173913
35.050200000000004,9.444227029818222,0.0558073399993663
35.054796,9.458977478412958,0.0553211446899579
35.059384,9.466165897284077,0.054855417839294
35.063984,9.477196423374076,0.0543789509660202
35.068572,9.486550265282926,0.053899054536717
35.073176000000004,9.489485881344091,0.0534293106438036
35.077768,9.483715663805704,0.0529853669973198
35.08236,9.478844880714965,0.0525417284734222
35.086948,9.46808875208175,0.0521158409843195
35.091532,9.458232057896184,0.0516883390011522
35.09612,9.441590583720505,0.051280610072736
35.100724,9.421229187040089,0.0508771026870954
35.105316,9.397025683140786,0.0504828468210101
35.109904,9.36452704123299,0.0501303383504076
35.114492,9.322833826869052,0.0498185835183001
35.119080000000004,9.274355832514996,0.0495246570696536
35.123668,9.224123110714274,0.0492606678722669
35.12826,9.172624400323468,0.0490085930267606
35.132852,9.112952736638311,0.0487925286585966
35.137444,9.053813953258368,0.0485876112713553
35.14204,8.99533023489778,0.048389162134202
