Time,Force,Position
34.196148,4.562771997787084,0.1506897438309581
34.200748,4.700817333998471,0.150522176825339
34.205344,4.823928599110542,0.1504730393759693
34.209936,4.936436639198763,0.1503576547961104
34.214524,5.038996519282491,0.1501888705040889
34.219112,5.135450346580609,0.1498749011025351
34.2237,5.224532132503031,0.1494853656330454
34.228296,5.299867792650705,0.149215643166829
34.232884,5.369307867624171,0.1489136231262069
34.237468,5.437227344947521,0.1485186490405777
34.24206,5.495042575735344,0.1482291004574485
34.246656,5.5481501666735245,0.1479357153635994
34.251244,5.597205182781418,0.1476271642104012
34.255832,5.646049731277913,0.1472239188798584
34.260424,5.687532478030451,0.1469124303268961
34.265004,5.733956994429182,0.1464433095157881
34.269596,5.780459554093429,0.1459283000392328
34.274188,5.822420800070811,0.1454495456307424
34.278768,5.86074016680897,0.1449917497535184
34.283364,5.894518219860263,0.1445605233488226
34.287956,5.927474881729425,0.1440964166439211
34.292544,5.952947557140485,0.1437242082932704
34.29714,5.980297144712358,0.1432665209236765
34.301728,6.007724775549747,0.1427563328322713
34.306324,6.036907133833805,0.1421774057274986
34.310912,6.0629804931838525,0.141625787548594
34.315508,6.087210842189979,0.1410622693726543
34.320084,6.1156057111087945,0.1403570555257523
34.324688,6.1429348194171896,0.1396276965973135
34.329276,6.165356059896281,0.1389520822595197
34.333876,6.19006490812725,0.1382197151520995
34.338468,6.210643138262417,0.1375270631835727
34.343064,6.234530595311255,0.1367552334818118
34.347656,6.254287434264293,0.1360235173811644
34.352248,6.277475684845146,0.135201729050923
34.356852,6.288726918178287,0.1345677004994621
34.361444,6.293804295092039,0.1340166262222525
34.366044,6.298348791700578,0.1334531082984561
34.370636,6.296597247175583,0.1329748490748066
34.375224,6.296888940974176,0.1324531860769069
34.379816,6.291906212801027,0.1319993964967801
34.384408,6.286146234894376,0.1315470308855916
34.388984,6.275400345892903,0.1311912695700113
34.393568,6.26183396883434,0.1308810502553586
34.398148,6.243648234823393,0.1306412511058046
34.40274,6.222519828041212,0.130455575789589
34.425704,6.077367299145901,0.1303956002054376
34.434884,6.020241035194327,0.1303803686938083
34.439476,5.995480988804664,0.1303319019288021
34.444075999999995,5.969454953824916,0.130317775896517
34.44868,5.95086876385464,0.1301924030186484
34.453272,5.933959258065517,0.1300512640436478
34.457868,5.919259316762753,0.1299073060130539
34.462448,5.912776470202964,0.1296479211279531
34.467048,5.906171438929029,0.1293967390697303
34.471627999999995,5.90471864491269,0.1290925172699734
34.476224,5.90559760009686,0.1287775687227623
34.480816,5.911340281661705,0.1283771050846009
34.485412,5.917249289389324,0.1280143718710633
34.489996,5.927533284641036,0.1276030075522347
34.49458,5.941537202397485,0.1271351138138448
34.499168,5.961059911553966,0.1265891536042383
34.503764,5.983036554625102,0.1260271589069571
34.508352,6.011964303849127,0.1254006681372084
34.512944,6.045755779453831,0.1246950806460055
34.517536,6.07905851620195,0.1240223235937002
34.52212,6.11175032937934,0.1233995579915104
34.5267,6.145463761718523,0.1227647627734506
34.531292,6.178810639915271,0.1221624626276174
34.535888,6.215510886474317,0.1215405052290139
34.540476,6.251844578890928,0.1209507310751352
34.545068,6.293330508565135,0.1203214103221715
34.549656,6.33379481907755,0.1197158053302552
34.554248,6.37491419460932,0.119128857242524
34.558844,6.419264753789246,0.1185333829552344
34.563432,6.460672640197934,0.1179888103557729
34.568028,6.507721502720801,0.117380257663098
34.572616,6.556202679996531,0.1167837595057606
34.577204,6.612490256424171,0.1160837155911085
34.5818,6.667878398404163,0.1154046065305769
34.586392,6.72482103985116,0.1147304034934834
34.590996,6.780742062136362,0.1140831105119021
34.595592,6.836785269135709,0.113435493935943
34.600184,6.885388631125582,0.1128825617906708
34.604764,6.93386980840131,0.1123477716059599
34.609359999999995,6.989135765667157,0.1117348948294087
34.613948,7.042969408180144,0.1111207096377164
34.61854,7.095659246817194,0.1105357246323284
34.623124,7.147571835720741,0.1099564455562145
34.62772,7.191389514595456,0.1094485541063387
34.632308,7.234674313164962,0.1089325770897043
34.6369,7.27587173196225,0.1084157003952436
34.641487999999995,7.317313520187832,0.1078881738513801
34.646084,7.352459267279878,0.1074163531104747
34.650676,7.381308973238388,0.10699882284947
34.655268,7.4161662094535155,0.1065091882008683
34.65986,7.441906916478018,0.1061033356993671
34.664456,7.4653158743020125,0.1057023561451445
34.669044,7.479608302935383,0.1053838859823224
34.673636,7.490425178492308,0.1050880542018652
34.678232,7.500176293438811,0.1047692457215139
34.68282,7.509516712794251,0.104433299617399
34.687412,7.517302632682685,0.1040993925000698
34.692,7.525577291427702,0.1037388361962556
34.696591999999995,7.53049858181042,0.1033938579320022
34.70118,7.527980027183662,0.1031168547325619
34.705768,7.524806407537545,0.1028332923920642
34.710372,7.521222092300364,0.1025308554412943
34.71496,7.515306027862676,0.1022281746324992
34.71956,7.519117416186341,0.1018230249541146
34.724152,7.521252120328855,0.1014248148217028
34.728744,7.51864528280484,0.1010709576816423
34.733343999999995,7.512685076918524,0.1007286839243575
34.737936,7.510689162965236,0.100341524031479
34.742528,7.513024095087414,0.0998903437997941
34.747116,7.504321444409527,0.0995264457698012
34.751716,7.501748508702401,0.0990866607640345
34.756296,7.500319376871213,0.0986289953425407
34.760895999999995,7.502732352258908,0.0981338526508445
34.765488,7.506044762094253,0.0976314802903123
34.770084,7.50527069528242,0.0971781444230562
34.774676,7.502331205432857,0.0967562106699711
34.779272,7.495916162506848,0.0963497649281149
34.78386,7.490400554028487,0.0959371475654636
34.788456,7.484762760835979,0.0955301618036299
34.793056,7.481046021252914,0.0951044104804362
34.797652,7.480027585012793,0.0946623530159365
34.80224,7.47966421379203,0.0942284202917625
34.806828,7.481754776485918,0.0937903329460373
34.811416,7.477959993637337,0.0934130691708083
34.816012,7.473798656646318,0.0930540275086657
34.8206,7.469148580798716,0.0927180376583224
34.825192,7.467974058027561,0.0923658932216131
34.829784,7.469253469171057,0.0920126354271277
34.834372,7.468000903134384,0.0917081396365798
34.838964,7.47267782408881,0.0913835286245183
34.843544,7.473923333415417,0.0911136909840378
34.848136,7.477744961370823,0.0908368436697799
34.852732,7.479401166288495,0.0905892485354563
34.85732,7.484532924282613,0.0903286418126963
34.861932,7.49698234257206,0.0900232382560999
34.86652,7.510331195309154,0.0897130440774889
34.871108,7.5335738269703745,0.0893520191008302
34.875704,7.560169826993897,0.0889878312269177
34.8803,7.590241380093864,0.0886133624071725
34.884896,7.623788486270277,0.0882302996996449
34.889488,7.655047984694809,0.0878830746098174
34.894088,7.685041494529258,0.0875598937562724
34.89868,7.717855492420796,0.0872214802679438
34.90328,7.757209900874161,0.086845244675888
34.907868,7.800406416546408,0.0864425541325829
34.91246,7.854229819427655,0.0859625710135145
34.917048,7.911773144813639,0.0854681929469192
34.921648,7.963142613780235,0.0850003439852425
34.926232,8.017699124946358,0.084499603091216
34.930828,8.07556486302615,0.0839645179342684
34.935407999999995,8.140093196381917,0.0833913115243069
34.940004,8.200901607232947,0.0828468411794725
34.944604,8.26579649473115,0.0822692038361761
34.9492,8.32991413249585,0.0816969983787447
34.95378,8.388635163574664,0.0811536274777238
34.958368,8.44952161769121,0.0805913828287224
34.962956,8.505910899569518,0.0800581658555623
34.967552,8.556903574761938,0.0795489748154246
34.97214,8.605197946611412,0.0790537778903252
34.976735999999995,8.649361700365088,0.0785638066357868
34.98132,8.697856300194227,0.0780335730540571
34.985908,8.747861258041741,0.077476077116961
34.9905,8.796556085850545,0.0769121503514644
34.995088,8.839077057239958,0.0763713748557317
34.99968,8.880043529162368,0.0758315567809182
35.004272,8.912137841322444,0.0753226660467523
35.00886,8.937936112348986,0.0748371004714173
35.013452,8.966799240860906,0.0743282019942857
35.018048,8.996028923515267,0.0738090749914525
35.02264,9.02088361864553,0.073302237066277
35.027232,9.036743969299318,0.0728234024515473
35.03182,9.051949254933747,0.0723377262623706
35.036416,9.062535183615791,0.0718710124057772
35.041004,9.069767743935538,0.0714047925907596
35.045604,9.07736685839772,0.0709235962407986
35.050196,9.083289288678753,0.0704441481048575
35.054796,9.084714546721546,0.0699760914924457
35.05938,9.08752797806857,0.06948519340377
35.06398,9.089275648805172,0.0689687215924195
35.068576,9.091145504255918,0.0684471412875859
35.073167999999995,9.086963688001422,0.0679314977017956
35.077756,9.079184133956334,0.0674231844006995
35.082352,9.064741984635274,0.0669418599114367
35.08694,9.046579912809475,0.0664701827051462
35.091536,9.026985526230822,0.0659869219054166
35.096116,9.00816838938567,0.0655050113948608
35.100704,8.99151667557825,0.065003599517813
35.105292,8.974742777056683,0.0645068370519446
35.109892,8.955270575192172,0.064014980558566
35.11448,8.935554003899373,0.0635315667043229
35.119076,8.918002855644303,0.0630272937148403
35.123672,8.900451707389236,0.0625217928382916
35.12826,8.884943797457755,0.0620024578196113
35.132852,8.86955807224042,0.0614760802770625
35.137432,8.855849031204235,0.0609518065684357
35.142024,8.839974567130318,0.0604436607758522
35.146608,8.826143341379986,0.0599211414300234
35.151196,8.815132603686743,0.0593907092794751
35.155788,8.802611507975126,0.0588832689071494
35.16038,8.789846042835215,0.0583845724912167
35.164968,8.779167957467521,0.057905615884118
35.169564,8.77196542517627,0.0574266624784683
35.17416,8.772202737894496,0.0569296661540505
35.178752,8.776815038136814,0.0564308292535622
35.183344,8.780816414808408,0.055956371557798
35.187932,8.784817791479997,0.0554818164529998
35.192512,8.78653156039971,0.0550282029645311
35.197112,8.78722371015763,0.0545803764401754
35.201708,8.788204370792467,0.0541562470081643
35.206296,8.78738616253201,0.0537322131707356
35.210876,8.785834845986681,0.0533360968490395
35.215472,8.784039160013055,0.0529492802850916
35.220072,8.780078051001702,0.052577750607871
35.224668,8.774362214543679,0.0522391823656268
35.229256,8.76570370531442,0.0519115853496097
35.233852,8.758844064980458,0.0515824056082833
