Time,Force,Position
33.72824,4.613813014000323,0.1425842273278644
33.732832,4.761674085870318,0.1425468086374491
33.73742,4.900197921306548,0.1423877136904424
33.742012,5.025053674233548,0.1422604231403892
33.746596,5.141471625174431,0.1419809182221505
33.751184,5.248141644090483,0.1415769895214595
33.755796,5.347928360487423,0.1410576617201382
33.760388,5.43465791794586,0.1405160624744825
33.764976,5.501423351761533,0.1401119415382814
33.769572,5.56249342838266,0.1396019283242318
33.77416,5.610838998390833,0.1391589750511436
33.778764,5.654066232958299,0.1386701152898584
33.78336,5.694340555122793,0.1380826679988957
33.78796,5.733094279637171,0.1373988681093174
33.79254,5.766529440731179,0.1367517064816595
33.79714,5.801064264252497,0.1360339104965143
33.80172,5.829791785496866,0.1353834002117555
33.806324000000004,5.859785295331315,0.134698578981574
33.810908,5.885159448213383,0.1340942476130636
33.91652,6.2791477107001885,0.1338013928602372
33.921124,6.318186763169812,0.1338001301400805
33.930316,6.39867466057508,0.1337380536334596
33.934896,6.440900755244229,0.1336685451604348
33.9395,6.485414457665256,0.1335387805893503
33.944092,6.527596410885774,0.133418387315739
33.948692,6.5728432215916754,0.1332479735224618
33.95328,6.624341931982483,0.132960736188806
33.957884,6.674652697048723,0.132661211114995
33.962472,6.723164593219668,0.1323887814749264
33.967072,6.777273324056163,0.1319945668983873
33.97166,6.83469128180633,0.1315264097733209
33.976256,6.8874457411554815,0.1310817823205696
33.980848,6.940566754647072,0.1306136934075645
33.985436,6.989679334757006,0.1301784150244019
33.990032,7.039525023151813,0.1297020376212393
33.994628,7.087161147060261,0.1292294732299585
33.99922,7.122327373415784,0.128901566141921
34.003804,7.156305654446737,0.1285636875225627
34.008392,7.188318740419623,0.1282147487178324
34.012972,7.217345012172645,0.1278742494065476
34.017568,7.240197427506278,0.1276002367377957
34.022164,7.269668296667255,0.1271966292247119
34.026756,7.295130732446576,0.1268151652603089
34.031336,7.318383603739536,0.1264340981817524
34.035928,7.342780278908434,0.1260277369227475
34.040516,7.357527544581499,0.1257195309077613
34.045108,7.361359412168643,0.1255382846017985
34.049704,7.36093847694584,0.1253917581782651
34.054292,7.358674531379112,0.1252248805571529
34.058884,7.34897074080291,0.1251502031446796
34.063472,7.337712450759705,0.1250803984860472
34.06806,7.326454160716498,0.1250105235887411
34.072656,7.313108490901076,0.124933883565743
34.077252,7.297186702456857,0.1248788145581695
34.081848,7.278566610669694,0.1248517723994619
34.086428,7.261334692186763,0.124786029304318
34.09102,7.247045446475064,0.1246779925723663
34.0956,7.229813527992133,0.1246124963452449
34.1002,7.21372541338514,0.1245221853361584
34.104792,7.198536733225795,0.1244214783686599
34.109388,7.184003118085806,0.12432567467433
34.11398,7.163584157403346,0.1243131877057975
34.118576,7.145741315349685,0.1242793353219811
34.123176,7.13329507998191,0.1241888452158084
34.127772,7.122892082937724,0.1240655230003328
34.132372,7.117885692579424,0.1238867565262083
34.136968,7.117376474459364,0.123660783024944
34.141556,7.120464994129895,0.1233972590618812
34.146152,7.125885263000932,0.1231281261399199
34.15074,7.135392008519143,0.1227936240188042
34.155328,7.145920373199147,0.1224442519874904
34.15992,7.160290845098036,0.1220464694518136
34.164512,7.17981355425452,0.1216114267240077
34.169108,7.2012573170204455,0.1211512416701666
34.173696,7.223722698948164,0.1206757338232986
34.178292,7.247986949771179,0.120188439762617
34.18288,7.280057599746105,0.1196034467223439
34.187472,7.314415857472909,0.1189762199476699
34.19206,7.345953627142625,0.1183832828271243
34.196648,7.377613581526485,0.1177884203411692
34.201256,7.412049882518807,0.1171247406924223
34.205848,7.448773791263007,0.1164197758459729
34.210436,7.488029677187375,0.1156666124574714
34.215028,7.525075998625385,0.1149212491738328
34.219616,7.562366689491684,0.1141713206601649
34.224212,7.600146119214568,0.11340375948424
34.228792,7.6431558294605635,0.1125691898740299
34.233384,7.686532093848995,0.1117214522497276
34.237976,7.728476043484568,0.1108754823686304
34.242576,7.769642743386639,0.1100361210870435
34.247164,7.812075431878795,0.1091787566780598
34.251752,7.851276936722797,0.1083377149101751
34.256336,7.885570573737495,0.1075193948754344
34.260932,7.923051252951718,0.106663307367472
34.26552,7.961797920756027,0.1057869440460806
34.270116,7.997069035483891,0.1049375131894056
34.274704,8.025144674630571,0.1041495648647591
34.2793,8.055385736814982,0.1033395664607241
34.283888,8.09277813313195,0.1024521258240106
34.288484,8.128493845267768,0.1015745981287928
34.293072,8.163065753527647,0.1007210542872438
34.29766,8.194039923996934,0.0998927031331499
34.302248,8.2174520647426,0.0991307788018338
34.306844,8.23906533659297,0.0983838136187395
34.311436,8.258102489814544,0.0976518474425806
34.316016,8.275340774140822,0.0969357987218336
34.320616,8.287060267067066,0.0962644771156604
34.325204,8.30298842135463,0.0955510492943724
34.3298,8.318139325908696,0.0948385186133341
34.334396,8.332757350157546,0.0941157116813815
34.338984,8.344677071063455,0.0934111621897292
34.34358,8.35749622641701,0.0927031054467918
34.348168,8.375956357884748,0.0919593527763798
34.352756,8.392373251028895,0.0912425392144052
34.357348,8.408912328887187,0.0905246159995018
34.36194,8.422753103402536,0.0898181685676048
34.366532,8.439414365974974,0.0890944485587403
34.37112,8.449290848557295,0.0884254388192707
34.375724,8.451116562559413,0.0878329207497214
34.380312,8.454086080437468,0.0872257069191218
34.384912,8.460897705534409,0.0865950953645317
34.3895,8.475271360354968,0.0859192966164638
34.3941,8.498883729080296,0.0851949812319112
34.398692,8.522373913091482,0.0844771377543438
34.40328,8.542799239617285,0.0837852473078893
34.407872,8.5611813278195,0.0831125619989223
34.412468,8.57829742743163,0.0824595517966671
34.417056,8.58544170485412,0.0818894993692697
34.421652,8.597083154514845,0.0813047908671569
34.42624,8.61183360310958,0.0807305682605347
34.430832,8.627239116723672,0.0801646298787135
34.43542,8.642522445623618,0.0796059539495583
34.440016,8.653064232857034,0.079078705200862
34.444608,8.6619293359093,0.0785541749411643
34.449204,8.67234893842857,0.0780376505955196
34.453792,8.687143528471935,0.0775103334763564
34.458388,8.69862889160163,0.0770192023384594
34.462972,8.712812558074265,0.0765172971268595
34.46756,8.731737766213433,0.0759905485068247
34.472148,8.750296420210164,0.0754815447103958
34.476736,8.761293044483272,0.0750131940476993
34.481328,8.765382704052119,0.0745932018583558
34.485924,8.766774060278022,0.0741853078710106
34.490512,8.77086371984687,0.0737706375809211
34.4951,8.78353702830113,0.073313874615498
34.4997,8.798131390364832,0.0728472044951835
34.504288,8.818611097971004,0.0723480297670049
34.508892,8.845631216139003,0.0718209462031727
34.513484,8.864967119869235,0.0713351875614205
34.51808,8.879561481932937,0.0708729339375051
34.52266,8.896199082320226,0.0703985232908462
34.52726,8.912836682707514,0.0699256944954497
34.531848,8.927841740362283,0.0694845092931029
34.536448,8.941458624712817,0.069065264137836
34.541036,8.948412913787383,0.0686766231822173
34.545636,8.95920931008083,0.0682731109457981
34.550232,8.97384781359316,0.0678521818640027
34.554828,8.991961870181937,0.0674300139639529
34.559408,9.010075926770712,0.0670112410485558
34.564004,9.02806779864534,0.0665984382652719
34.5686,9.047369800558684,0.0661993807108318
34.5732,9.067449052205529,0.0658028271493914
34.577788,9.083564011919348,0.0654298737572874
34.582384,9.096614114147782,0.0650783934068703
34.586972,9.10173563251016,0.0647718582414356
34.59156,9.110454888663131,0.0644605209122225
34.596148,9.113943864292988,0.064187910080358
34.600744,9.1173106552087,0.0639215608503544
34.605336,9.126318422238592,0.0636360369367811
34.609928,9.140067730935012,0.0633340912930968
34.61452,9.14973056298426,0.0630580850943854
34.6191,9.160947894500511,0.0627899301113282
34.623696,9.176251702663937,0.0624974528844191
34.628284,9.194375998884452,0.0621962697532149
34.632872,9.21916289038094,0.0618717695326232
34.637468,9.237820066906664,0.0615860507568546
34.642056,9.25647724343239,0.0613025982076521
34.646644,9.2771776582817,0.0610108082653901
34.65124,9.293669411769692,0.0607477275468551
34.655832,9.311837849438836,0.0604880034154687
34.660428,9.339078674849974,0.0601836402231761
34.66502,9.3683627385847,0.0598689035117363
34.669616,9.39752461760528,0.0595583324694378
34.674192,9.43065078855889,0.0592316651837842
34.678796,9.466719632283732,0.0588923939503629
34.683372,9.494982076856664,0.0585854380932433
34.687976,9.524632694733828,0.0582599149205588
34.69256,9.550807759534546,0.0579350589057529
34.697152,9.576860639621115,0.0576172455107581
34.701744,9.601114650812391,0.0573038440601178
34.706336,9.627289715613106,0.0569843036928438
34.710936,9.652809715394469,0.0566589080271646
34.715536,9.673832542937587,0.0563385162050749
34.720128,9.694977555194855,0.0560152633609851
34.724728,9.712158275519094,0.0557099306483266
34.729316,9.73277040747115,0.0553768277409619
34.733904,9.750684236080264,0.0550471787903765
34.738492,9.760258785232256,0.0547334174985243
34.743088,9.771221507688477,0.0544007930663702
34.74768,9.781895719267778,0.054048540149321
34.752264,9.778100936419197,0.053740033737322
34.75686,9.773406719122963,0.0534324927024938
34.76144,9.775497281816856,0.0531051866207306
34.766032,9.77182468368242,0.0527939582986622
34.770624,9.771216943033362,0.0524695833901949
34.775212,9.775595113479133,0.0521251475987388
34.779824,9.776908426439515,0.0517943212964134
34.784416,9.778998989133404,0.0514669099488096
34.78902,9.778513433198494,0.0511367605751907
34.793604,9.772509085863552,0.0508117149716681
34.798192,9.767404172976256,0.0504867933459318
34.802788,9.75809059872764,0.0501839812027628
34.807376,9.752252577555474,0.0498840780992802
34.811972,9.743471883612072,0.0495931923392241
34.816552,9.73097126716393,0.0493057395109324
34.821152,9.710786436278022,0.0490356311661624
34.825736,9.689335616802031,0.0487777078057363
34.830336,9.66764042789775,0.048526392611076
34.83492,9.644801435117529,0.0482828489990141
34.839524,9.61174625071937,0.0480821204001669
34.844116,9.587030345778336,0.0478703775343485
34.848712,9.557450714456628,0.0476707784419041
34.8533,9.517122011211768,0.0475018825807007
34.857896,9.479613796024,0.047327186926421
34.8625,9.435975865865473,0.0471782075382457
34.867092,9.385553155716828,0.0470453578979574
