Time,Force,Position
40.726516,2.135063435416707,0.1983387017284954
40.731112,2.2743069565843967,0.1952787218495077
40.7357,2.4152610637501257,0.1919944267311902
40.7403,2.5542058344091574,0.188965504379363
40.744888,2.69175219213222,0.1858194049005078
40.749488,2.823935844986284,0.1830875967036082
40.754076,2.9446270780005896,0.1809546366422934
40.758684,3.0606106711652536,0.1790714121092397
40.763272,3.1682888866896866,0.177510660290635
40.767872,3.2762012320106715,0.1756293976560839
40.772464,3.373310124328144,0.1740714962600185
40.77706,3.46472365945107,0.1725049715030767
40.781656,3.550031141788386,0.1708566393510311
40.786256,3.6200821403325785,0.169859898066978
40.790852,3.68231650009312,0.1689499970417833
40.795448,3.740498285023377,0.1680823162857596
40.800036,3.7974479831804375,0.1671299362106886
40.804632,3.851777421260073,0.1661700338006757
40.80922,3.901809915081132,0.1652488484680789
40.84134,4.023909800663145,0.1647924077521597
40.845932,4.044406804611121,0.1645229111348167
40.85052,4.063349309092094,0.1642808701577399
40.855108,4.086622659648531,0.1638585837542115
40.859712,4.107197706862023,0.1635272718042466
40.8643,4.133169360761404,0.1630575171710556
40.868904,4.160328959985351,0.1626218782741316
40.8735,4.186511081496133,0.1622945945613099
40.878096,4.2158022019409245,0.1619410476032854
40.8827,4.2528216782721096,0.1614331600467907
40.887288,4.2888195354415,0.1609618735123652
40.891892,4.325716827058541,0.1604822703542506
40.896488,4.364412987570876,0.1599598322632125
40.90108,4.408627939483242,0.1593029048593797
40.90566,4.4605712472820045,0.1584853182061459
40.91026,4.516356662299649,0.1575604363745103
40.91484,4.575984184536177,0.1565287400617722
40.919436,4.635367337344412,0.1555312682227954
40.924032,4.696138663456878,0.1544702582411073
40.928628,4.755599859530632,0.1534254512834405
40.933208,4.8156719791751135,0.1523307379311479
40.937804,4.868792992666704,0.151421264763587
40.942392,4.923546548890818,0.1504395174000693
40.946988,4.973392237285628,0.1495455341568655
40.951576,5.021150545908222,0.1486650703727428
40.956168,5.064123171415659,0.1478609012859392
40.96076,5.102554483236228,0.1471014817073554
40.965348,5.140653142731248,0.1462531480765835
40.96994,5.171023446339875,0.1455392409012736
40.974532,5.192765959614461,0.1449783356784457
40.979124,5.214342146726273,0.144371217690218
40.983704,5.231132650722927,0.1438190908523305
40.988304,5.246202329089803,0.143237309958273
40.992884,5.254931824874514,0.142723960395418
40.997476,5.25678825777185,0.1422602692117197
41.002072,5.255657876449322,0.1418135793080761
41.006664,5.248842377563988,0.1414307797307376
41.011256,5.239406618601227,0.1410293953290021
41.015852,5.227228414846895,0.1406200199358142
41.02044,5.211286147139197,0.1402286534516829
41.025036,5.195299737982872,0.1397798426431787
41.029624,5.177225949054332,0.1393254206205508
41.03422,5.15268979282948,0.1389327363310117
41.038808,5.127087875994208,0.1385057133761302
41.043404,5.103773566910814,0.1380023145389133
41.047992,5.076695193874054,0.137510262828887
41.052592,5.048184506084435,0.1370141217190345
41.05718,5.016076080504225,0.13657453419998
41.061788,4.987399066551832,0.136020647417483
41.06638,4.9619090947989655,0.1353725069434193
41.070972,4.934864623579095,0.134728285496087
41.075568,4.907697967645079,0.1340890082362638
41.08016,4.877466454225682,0.1335238912707139
41.08476,4.847890005825643,0.1329589438477362
41.089356,4.822444175521406,0.1323417011940941
41.093944,4.795077291607729,0.1317618474351915
41.09854,4.772984829665794,0.1310942024523851
41.103128,4.754123551372013,0.1303923040008241
41.107724,4.739515075888179,0.129633777434424
41.112312,4.726216730443059,0.128883064689514
41.1169,4.708831908350765,0.1282328268654412
41.121488,4.692635031583039,0.1276035631541971
41.126084,4.679835664626239,0.1269915451740569
41.130676,4.669778742461013,0.1263926463458478
41.135256,4.658578016419846,0.1258313914036475
41.139844,4.655638526570284,0.1251892358359215
41.144432,4.6576069045500255,0.1245050432576884
41.149028,4.666037649826077,0.1237728538621973
41.153624,4.677088655179554,0.1230756219558816
41.158208,4.689982670876955,0.1224152253590044
41.162796,4.711137922765962,0.121693527397945
41.167384,4.736301608036625,0.1209472650686611
41.171972,4.768538584174324,0.1201087274372074
41.176568,4.80478399369368,0.1192514692022009
41.181164,4.8414400988041,0.1184336728940416
41.18576,4.883781321477328,0.117581991016922
41.19034,4.924734370846325,0.1167957950286967
41.194932,4.968674234435186,0.1160277379081364
41.199512,5.008161067234434,0.1153861055080341
41.204108,5.0520228875577775,0.1147033872210824
41.208692,5.104756867643452,0.1139263626682038
41.213288,5.16108858551972,0.1131151766438149
41.217868,5.222161845062518,0.1122402232870558
41.22246,5.286710657681762,0.1113476775806482
41.22706,5.34746150453075,0.1105738118088773
41.231656,5.407435101646236,0.109830593495752
41.236244,5.463688776256985,0.109147902674235
41.240832,5.520309005010171,0.1084587060279552
41.24542,5.578439591781734,0.1077349865167273
41.250008,5.635015679086292,0.1070198093576656
41.2546,5.683374671647874,0.1064124406122831
41.259188,5.7351650758372745,0.1057424348052532
41.26378,5.786300415007318,0.1050830427242317
41.268368,5.837924493033944,0.104404184074386
41.27296,5.887216821860061,0.1037308024010468
41.277552,5.93376670589461,0.1030444658170241
41.28214,5.976063787119209,0.1023807428792119
41.286736,6.010632512457415,0.1017709931465237
41.291316,6.050798072461172,0.1010521603207261
41.295904,6.08977568714036,0.1003234904265538
41.300496,6.116161219552479,0.0997100802920888
41.305084,6.138660503297087,0.0991025859250671
41.30968,6.157517907802475,0.0984868702850498
41.314268,6.169912945011554,0.0978875347140351
41.318864,6.184429263809738,0.0971986280289941
41.323444,6.193671160636184,0.0965504213519576
41.328044,6.204423415481003,0.0958561947228496
41.332632,6.207325129725281,0.0952115916212076
41.337232,6.202786998960088,0.0946401368977712
41.341824,6.2005364759467705,0.0940258042929608
41.346412,6.201062299541917,0.0933344652580125
41.350992,6.195292082003528,0.0926940375574841
41.355588,6.184369627207542,0.0920774594061687
41.360184,6.169072184887462,0.0914854178319278
41.364776,6.15414129670982,0.0908683584907437
41.369364,6.13549048602744,0.0902798765302884
41.373952,6.122847205601677,0.0896141952976962
41.37854,6.1117142831942886,0.0888975601990281
41.383128,6.091997711901488,0.0882646642588139
41.38772,6.068439033389804,0.0876692862695521
41.392312,6.051542950154092,0.0870036394052951
41.396908,6.036445735813676,0.0863255437922575
41.401496,6.019060913721381,0.0856870545637113
41.40608,6.007072698314973,0.085014620841672
41.410672,5.994962298194421,0.0843478754453466
41.415256,5.981053029178572,0.0836863842569681
41.419852,5.965100521839137,0.0830486425330181
41.424444,5.954422436471442,0.0823833068094835
41.429032,5.948363708056134,0.0816815164022249
41.433628,5.93936230686959,0.0810119183417108
41.438216,5.931671035721758,0.0803651547736955
41.442812,5.922591591269696,0.0797495918192607
41.447404,5.917887134341729,0.0791172519571258
41.452,5.913060492699615,0.0784895256820516
41.45658,5.908644546648566,0.0778874035973174
41.46118,5.908481403407466,0.0772757644947076
41.465768,5.9089733251857215,0.0766809471884355
41.470364,5.9144952995074265,0.0760848202498337
41.474956,5.924636630781517,0.0754567474187712
41.479544,5.935555211789111,0.0748308392325132
41.484136,5.949172096139646,0.0741985648402232
41.488724,5.956537080805276,0.0736404709801316
41.493324,5.964434945776117,0.0730994931296704
41.49792,5.9654258460426925,0.0726240602251938
41.502508,5.968870680223923,0.0721539869876831
41.507104,5.977589936376894,0.0716687034768955
41.511692,5.990806364768105,0.0711677983245595
41.51628,6.003900608445168,0.0706778637137815
41.520868,6.017117036836378,0.0701844824514473
41.525452,6.0340533877323255,0.0696746193350513
41.530048,6.045226577799948,0.0692060448186289
41.53464,6.059875320944016,0.0687311863231966
41.539232,6.070315402726765,0.0683070693850876
41.543824,6.082965048995876,0.067903215315526
41.548416,6.096758499140925,0.0674837499644589
41.553008,6.110307579857683,0.0670812456983818
41.557596,6.117971315031971,0.0667266418680459
41.562192,6.124613431044464,0.0663858947721299
41.566772,6.129867373752728,0.0660766954186674
41.57136,6.137941804518081,0.0657537435940231
41.575952,6.142051943350406,0.0654644525816207
41.580552,6.153968481334642,0.0651186540026004
41.585156,6.170748745699555,0.0647418976223932
41.589748,6.193292170892793,0.0643292638830971
41.594352,6.214813976924235,0.0639298080431755
41.59894,6.234414729346236,0.0635449025762836
41.603536,6.2464534520446175,0.0631993380984914
41.608116,6.254894436952407,0.0628626795830153
41.612716,6.261047814108319,0.062559268641093
41.617304,6.262459649597699,0.0622814263618285
41.6219,6.270534080363053,0.06196873742623
41.626484,6.277953446109049,0.0616451626475783
41.63108,6.284717746835689,0.0613073745646058
41.635672,6.287473614180674,0.0609501414166609
41.640268,6.291251100687449,0.0605866213810165
41.644856,6.295395141336664,0.0602039502944841
41.649452,6.3005608011476735,0.0598101054465903
41.65404,6.2991860503968535,0.0594409846278396
41.658636,6.302142145721499,0.0590250120076568
41.663224,6.301256133827263,0.0586298901575504
41.667812,6.301391741094821,0.0582260822885344
41.672392,6.298051795285933,0.0578229505903381
42.044248,2.066987205369415,0.0576115675221323
