Time,Force,Position
35.968504,2.876094400883143,0.1600335460492102
35.973091999999994,3.077327912383083,0.1587025566461727
35.977684,3.267924297042284,0.1579383621242591
35.98228,3.451603477365484,0.1573454253922885
35.98687199999999,3.633106995019212,0.1565958129755828
35.99146399999999,3.8060607656044154,0.1560662028856265
35.996044,3.977694166519167,0.1553024128134511
36.000640000000004,4.146086144154026,0.1543382754491799
36.005228,4.308127699574984,0.1532514820177503
36.009828,4.462797213620243,0.1520934639446494
36.01441199999999,4.612670804918608,0.1508476581150497
36.019003999999995,4.7491648245846605,0.1497826138794113
36.023596,4.877920248732583,0.1487322700861647
36.028192000000004,4.994151394247214,0.1477237240230296
36.03278,5.095404327213903,0.1468153136107798
36.037376,5.182700666794441,0.1459570983841299
36.041972,5.268476408724864,0.1450366277398283
36.046572,5.34574654503539,0.1442743593902726
36.051164,5.417898345905211,0.1434903532075715
36.055748,5.478024846630063,0.1428608143665858
36.06033599999999,5.529190904695325,0.1422750254029764
36.064924000000005,5.570619270367495,0.1417662488718998
36.069508,5.610527038389551,0.1411579855549349
36.07410399999999,5.64417266709496,0.1405480838464538
36.078688,5.666936799531338,0.1400224138837077
36.083276,5.6840497162218,0.1394366783153709
36.087876,5.690036767214941,0.1389562027785777
36.09246399999999,5.688862244443787,0.1384835895186781
36.097056,5.682202832089489,0.1379948469294081
36.10164399999999,5.672512464066703,0.1374641379825393
36.10623199999999,5.655538337565475,0.1369436086427795
36.110844,5.635244744518837,0.1363431033803576
36.115424,5.608811196869697,0.1357151873614715
36.120012,5.578325074390271,0.1350616738954241
36.1246,5.543419822938124,0.1344106740383369
36.129192,5.503318192779751,0.1337647901755719
36.133788,5.453034272820333,0.1332316070365699
36.138364,5.40433875414481,0.1325621195404848
36.14296399999999,5.351879171515921,0.1318925916726182
36.147552000000005,5.300397066600196,0.1311337743194607
36.152152,5.255533415511815,0.13017921448926
36.15674,5.206172592185195,0.1292804178074237
36.16134,5.151415162172687,0.1284510169290643
36.165924,5.093959428817236,0.1276513616591238
36.17052,5.038669118499519,0.126777932109883
36.17511999999999,4.985055492362951,0.1258708226112171
36.179712,4.931974746531593,0.1249663362776017
36.18429999999999,4.880981380472451,0.1240561005730406
36.188896,4.830687220881293,0.1231985549626085
36.193484,4.776961649662319,0.1224341106265061
36.198072,4.720870427425948,0.1218034416406448
36.20266,4.667399465267002,0.1211876108755158
36.20724799999999,4.614138970719459,0.1206743369206607
36.21183599999999,4.56721865875408,0.1201117042869467
36.21642799999999,4.524961845189716,0.1195200701697384
36.22102,4.489333725084432,0.11892487730233
36.225612,4.459557048704729,0.118330484237687
36.23019599999999,4.430768089669932,0.1178421950201883
36.234784000000005,4.407830574360714,0.1173573104617491
36.239372,4.388046199434134,0.1169199787748692
36.24397999999999,4.362098207719904,0.1167672631025291
36.24856799999999,4.348908624435518,0.1164721523359063
36.25318,4.343369353772007,0.1161622362885908
36.257768,4.348545253214755,0.1157682169662686
36.262376,4.3607605417076485,0.1154198946944222
36.26696,4.3787050892119765,0.1151014678653733
36.271548,4.403400514889534,0.1147876587476137
36.276144,4.429328027340286,0.114565542960604
36.280736000000005,4.460696287925554,0.1143323578075994
36.28532799999999,4.502657533902933,0.1140344765610475
36.28992,4.555167623823794,0.1136076202922057
36.294528,4.610953038841439,0.1132279476354275
36.299108,4.673689560011974,0.1127752829342974
36.303708,4.738269091526434,0.1123745053248836
36.308296,4.807267752013615,0.1119951278182576
36.312896,4.877698727253656,0.1116291518227631
36.317488,4.95250469001779,0.1112264245671225
36.322084,5.027843533087134,0.1108416456231524
36.32667599999999,5.105514125356986,0.1104691465509531
36.331272,5.182940348198545,0.1101226414530254
36.335868000000005,5.271892892696753,0.1095830124605146
36.340464,5.353161222757196,0.1091973418620629
36.34504799999999,5.432875053350633,0.1088216713540963
36.349644,5.506292842810538,0.1085313175050124
36.354232,5.575047133869428,0.1082504954564997
36.358816,5.646577771536778,0.1078982666519112
36.36340799999999,5.716387583574351,0.1075141454644893
36.368,5.787952123058591,0.1070616125727405
36.372592,5.855752598589467,0.1066113136012395
36.37718,5.917335076252324,0.1061785087607081
36.381776,5.971189198028789,0.1058092547806919
36.38635599999999,6.022545244441972,0.1054029175406024
36.390948,6.068216173292351,0.105024375621846
36.39553599999999,6.108446354008212,0.1046518387029703
36.40012399999999,6.144501775179644,0.1042553769502736
36.404732,6.176382436806645,0.1038313681102459
36.409324,6.198980243080249,0.1034607080404968
36.413912,6.2230442659236,0.1029981663457735
36.418508,6.238314172270137,0.1025553344706353
36.423104,6.249942199377452,0.1020968901255877
36.427708,6.25007780664501,0.1016827708463257
36.432296,6.2436288619021125,0.1012891053613357
36.4369,6.233538037919996,0.1008785843416735
36.441496,6.220582584432162,0.1004495474985128
36.44609199999999,6.2086046086574935,0.0999554462782016
36.450672,6.1841567353299,0.0995615729612099
36.455268,6.152757755849417,0.099210520030274
36.459848,6.114896409072624,0.0988695329372379
36.464448,6.072005009752381,0.0985472794881913
36.469044,6.024083557888688,0.0982426507118759
36.473636,5.974074726252779,0.09791699047382
36.47823199999999,5.921734145416364,0.0975844360825302
36.482828,5.867839065112945,0.0972459952499272
36.487424,5.811490050894872,0.0969098097981305
36.49202,5.747701191667327,0.0966496777023848
36.496608,5.683667963011491,0.0963994974782747
36.501204,5.621555787965094,0.0961222534521352
36.50578399999999,5.548694540995552,0.0959895338590935
36.510372,5.477143424064723,0.0958737506034319
36.514948,5.4052257529914565,0.0957821155242783
36.519544,5.336294896138054,0.0956954246168628
36.524136,5.274681699579981,0.0955313942982336
36.528728,5.214500817774765,0.0953718656368967
36.53332399999999,5.155752250722408,0.0952203317985219
36.53791199999999,5.094349521775736,0.0951414870700329
36.542508,5.035689237620636,0.0950995792226132
36.547096,4.981814636580695,0.0950539961381016
36.551688,4.93080466504647,0.0950282808114443
36.55628,4.889321918293936,0.0949333079523276
36.560868,4.856466961875442,0.094778876295179
36.565472,4.832117611076844,0.0945769870154474
36.57006799999999,4.810510705069817,0.0944065633935905
36.574656,4.794588916625598,0.0942257072266875
36.579256,4.785251680191833,0.0940272949230056
36.583848,4.789405960472786,0.0937115519547392
36.588452,4.7955254358118085,0.09342798326325
36.593048,4.806552778980135,0.0931360693610089
36.597652,4.8318488885966815,0.0927280309754471
36.60224,4.863074485204326,0.0922952057597765
36.606832,4.90329442628845,0.0917935592069659
36.61142,4.943436324107055,0.0913553767541872
36.616024,4.987464470593173,0.0909374931814559
36.620612,5.036278300194447,0.0905270753683075
36.625204,5.094741539291557,0.0900667227130262
36.629796,5.158234830932117,0.0895919717289214
36.63437999999999,5.232110640353388,0.0890105493350788
36.638972,5.312404675622337,0.0883855274578398
36.643564,5.39875038259653,0.0877392085866623
36.648156,5.481131797637696,0.0871610625364413
36.652748,5.562657919679841,0.0866570686052203
36.657336,5.643040237846048,0.0861946968824159
36.661924,5.723666925440547,0.0857188118300395
36.666512,5.805559601625129,0.0852303901726442
36.671108,5.8893733314191525,0.0847359421332025
36.675704,5.970244388441943,0.0842969095783039
36.680292,6.054424672378404,0.0838098037968723
36.684884,6.1388493257431564,0.0833184670436534
36.689472,6.219021176297961,0.0828539621769386
36.694068,6.297882896814052,0.0823797778887291
36.698656,6.370981456501819,0.0819699298308016
36.703248,6.447100732226339,0.0814778804915788
36.70785599999999,6.516513271226257,0.0810028726255777
36.712444000000005,6.583427734862895,0.0804929173556239
36.71704,6.6401599086984895,0.0800138065930047
36.721632,6.694271822456656,0.0795027784567317
36.72622,6.739755945880782,0.0790251513347157
36.730812,6.776734463685012,0.0785688213582522
36.735412,6.808394418068873,0.0780928694687059
36.740008,6.840010231004106,0.0775758075479998
36.74458799999999,6.864997350480256,0.0770129046742395
36.749184,6.882500483498304,0.0764517950272477
36.753776,6.896894617582343,0.0758786801599321
36.758376,6.898696669399312,0.0753569988972252
36.762956,6.891338050577028,0.0748352908833811
36.767556,6.876373260582497,0.0743184950069192
36.772148,6.852780680253923,0.0738150230948831
36.776744,6.821704113467248,0.0733056200262332
36.781336,6.785719678851267,0.072786373359685
36.785932,6.739963650025307,0.0722919332766496
36.79053999999999,6.687090188883681,0.0717666081611488
36.795132,6.631884978541549,0.0712245082349539
36.79973199999999,6.574225834284763,0.0706706927903722
36.804332,6.509004660304359,0.070154401710373
36.808924000000005,6.44084081355272,0.0696530378846254
36.81351599999999,6.368179794562841,0.0691569030731532
36.81810399999999,6.29167666835408,0.0686785500129715
36.8227,6.212230869374084,0.0682145538206488
36.827288,6.128942963175205,0.0677649756810205
36.831876,6.039891896148002,0.0673451951151837
36.836468,5.952028774445367,0.0669443839797306
36.84106,5.8667417713715295,0.0665321333301105
36.845652,5.781454768297691,0.0661084465661107
36.85023199999999,5.70270817578568,0.0656392606051993
36.854828,5.630668319998269,0.0651689143337597
36.859416,5.562226202001449,0.0646772491334005
36.864004,5.498936321262224,0.0641751828335542
36.8686,5.440554308352305,0.0636791098031268
36.873188,5.384626229357037,0.0631819694438235
36.877776,5.341412417342984,0.0626372973118267
36.882364,5.310546318167711,0.0620712392880625
36.88696,5.279968729869357,0.0615377640616014
36.891564,5.254421194114453,0.0610107155289153
36.89616,5.234925330064794,0.0604789587681961
36.900752,5.224668179919903,0.0599100390550264
36.905344,5.219318897604317,0.059357969590981
36.909932,5.220265656422266,0.0587893211688899
36.914524,5.229307325269047,0.0582030927147864
36.919128,5.24325686194513,0.0576361011952298
36.92372,5.270165035030721,0.0570278930943665
36.92832,5.307211356468731,0.0563968262769912
36.93290399999999,5.3486326654308325,0.0557721090828833
36.9375,5.398803949441121,0.0551595620282655
36.942092,5.456703589337805,0.054569915027658
36.946688,5.512682175625046,0.053997056487881
36.951284,5.569848707236855,0.0534645455339235
36.955884,5.629346988049171,0.0529589026734969
36.960476,5.690399768328492,0.0524717798066513
36.965068,5.7536621130941725,0.0520164807884945
36.969656,5.813859600374473,0.051597974870758
36.974244,5.864329634893419,0.0512360357650634
36.978832,5.916476353593517,0.0508848700318739
36.983424,5.968623072293616,0.0505377897035456
36.98801999999999,6.022568659889008,0.050193603829395
36.992612,6.0716505211037255,0.0498802120423385
