Time,Force,Position
36.027912,2.375476814960616,0.1737972015963939
36.0325,2.5209722358132125,0.1716915367507346
36.0371,2.663803255139755,0.1696507895255105
36.041684,2.799472700702004,0.168028865835369
36.046276,2.933132809757556,0.1664956472620422
36.050884,3.0608192903733813,0.165129899680538
36.05548,3.1846975655872134,0.1638739249818865
36.060076,3.3060336239891366,0.162624124940267
36.064676,3.4171432511413857,0.1617094993298299
36.069264,3.5264437697666,0.1606915756005211
36.07386,3.632302637132258,0.1596972199556697
36.078448,3.730999930733624,0.158816544735388
36.083032,3.8341943965732286,0.1578352247689539
36.08762,3.9352234393751,0.1569998577472276
36.092212,4.03768479692983,0.1561286934626596
36.096808,4.132950678903377,0.1555158500114705
36.101388,4.234468460561832,0.1546488867524753
36.105972,4.335575546629222,0.1537995343031036
36.110552,4.429320830952656,0.1531341707340737
36.11514,4.517014443570846,0.152674482762821
36.119748,4.597346254445079,0.1523749169288214
36.124336,4.6826198349655055,0.1518802367136751
36.12894,4.76605040514201,0.1513845520496676
36.133528,4.850580637745825,0.1508031545323316
36.138128,4.929914491643418,0.1502759135585517
36.14272,5.011325485681486,0.1495698332087444
36.147308,5.08868390488927,0.1488708012464872
36.151912,5.160313065085619,0.1482120955561432
36.156504,5.231976127098857,0.1474289498082272
36.161096,5.292679649577547,0.1468298679225511
36.165676,5.345610674721216,0.1463121550593573
36.170276,5.39587729833883,0.1457325958125597
36.174864,5.438737978763859,0.1452008488763483
36.179456,5.478157007929332,0.1446097984511498
36.184052,5.517443612748921,0.1438649981604815
36.188652,5.556886304099543,0.1429959776042258
36.193244,5.589045236971728,0.1421636611728321
36.197832,5.611466477450821,0.1413793875956763
36.20242,5.631589870546296,0.1404996371232147
36.207016,5.640176702353384,0.1396906414345276
36.2116,5.640458156520238,0.1389185618368127
36.216196,5.629491560275627,0.1382573323518208
36.220784,5.6147167586290205,0.1375585903666195
36.225372,5.595889382152127,0.1368414730418298
36.229948,5.571987811683155,0.136124900691239
36.234544,5.538925570574934,0.1355054830111823
36.239136,5.500911320188776,0.1348736343873711
36.243724,5.459133005849254,0.1342476061939936
36.248316,5.40921564003227,0.1336900204228263
36.252896,5.361297371090248,0.1330191008914688
36.257488,5.310758842070799,0.1323169860274172
36.262084,5.254413010774398,0.1316665650112556
36.266672,5.1947138111156965,0.1310459092653032
36.271268,5.128962939751752,0.1305021826776294
36.275856,5.058470526721278,0.1300356746086335
36.280444,4.98245932229077,0.1296578964444289
36.285048,4.906448117860261,0.1292618662170523
36.289636,4.832235782325049,0.1288263713858897
36.294232,4.754592035162018,0.1284881437357537
36.29882,4.682877774990086,0.1280693473207994
36.303416,4.617992436256899,0.1275482930380131
36.308004,4.552007435096404,0.1271286823223162
36.312604,4.4831239026133,0.1268345474986417
36.317188,4.412241273255236,0.1266457155661959
36.321788,4.346921576745835,0.1263999575690861
36.326372,4.290884735589831,0.1260195814530559
36.330968,4.239922088425908,0.125633091232299
36.335548,4.190435897463472,0.1253115189027834
36.34014,4.152319941626648,0.1248773105948851
36.344732,4.116457691724814,0.1245010759460313
36.349324,4.085180896958475,0.124176452724149
36.353912,4.057467938165838,0.1239356088200884
36.3585,4.038304726441726,0.1236484444926736
36.363088,4.0325549881668135,0.1232023502210868
36.367688,4.033556128065129,0.1227477099847519
36.372276,4.043229199746115,0.122241097973344
36.37686,4.058631530438535,0.1217611012357564
36.381456,4.082339238771189,0.1212743779512127
36.386044,4.113819444438864,0.1207543719108466
36.390636,4.154993201051003,0.1201829599778848
36.395224,4.200219532493424,0.1196666774252945
36.399812,4.255750338451039,0.1190210551120818
36.404408,4.321096880067262,0.1182958749530261
36.408996,4.391517615675562,0.1175788264071631
36.4136,4.464558611361292,0.1169168746134373
36.418188,4.535478325457913,0.1164047309421876
36.42278,4.609384853774398,0.1159097977052938
36.427376,4.692940791586719,0.1153073207740934
36.431976,4.7751085560948106,0.1147872744922292
36.436568,4.858586450641614,0.1142888199559023
36.441148,4.943985398797858,0.113756953823065
36.445752,5.041932287772545,0.1130180439480268
36.45034,5.139224111727875,0.1122958454265013
36.45494,5.22883172124544,0.1117298386269947
36.459528,5.313042724077117,0.1112353788868135
36.464128,5.3928787393847,0.1107940562245643
36.468712,5.464086964358242,0.1104353263093687
36.4733,5.529732256483123,0.1101067750043254
36.477892,5.594556157425874,0.1097372774923256
36.482488,5.6500972030152266,0.1094534720980533
36.487088,5.703262357955445,0.1091317899156578
36.491684,5.751886199208796,0.1088172006799638
36.496272,5.795313661755922,0.1085000838513999
36.500868,5.836853972510498,0.1081037260258938
36.505456,5.8740973390064966,0.1076921145654889
36.510052,5.908842630139215,0.1072422014294634
36.51464,5.937247738689771,0.1068099548747699
36.51924,5.954815492419925,0.106443875243941
36.523828,5.970007355500944,0.1060338890844169
36.528424,5.980125024589883,0.1056017073462738
36.533016,5.9887662374773365,0.1051159480919772
36.537596,5.981706369163711,0.1047561199750782
36.542188,5.966507449372626,0.1044214718650852
36.546776,5.95109806197014,0.1039947320255801
36.551368,5.9362554566897545,0.1034747550435681
36.555976,5.920058579922028,0.1028858408450748
36.560564,5.906638049762761,0.1022083918655528
36.56516,5.890475074811924,0.1015016082328617
36.569752,5.86580649424119,0.1008396644876827
36.574356,5.8401943377741805,0.1001297844389823
36.57894,5.805343467402401,0.0995130274470116
36.583528,5.766239794220676,0.0989139022216277
36.588124,5.724804371838442,0.0983071018301965
36.592704,5.677605788627883,0.0977670878331252
36.5973,5.628852705950321,0.0972176491357447
36.601884,5.5757246357486645,0.0966926896065426
36.606484,5.522840934975299,0.0961422454919192
36.611072,5.468935615040142,0.0956010961874469
36.615672,5.410044384010162,0.0951284284185858
36.620268,5.3555281405042745,0.0946151203622319
36.62486,5.297702670084717,0.0941617087615391
36.629444,5.245928871370402,0.0936627054329897
36.634036,5.198407875466035,0.0931340440144547
36.638628,5.153873693781531,0.0926108118247418
36.64322,5.108484219098007,0.0921429477358146
36.647808,5.066736623653704,0.0916934691156648
36.652404,5.025033169658029,0.0912950981076425
36.656984,4.989792082958663,0.0908864021312162
36.66158,4.964611101346195,0.0904409878254372
36.666168,4.938863337611627,0.090092807586861
36.670764,4.924808221696482,0.0896481937507182
36.67536,4.918114907525293,0.0891923378634383
36.679952,4.91494128787918,0.0887727627868098
36.684552,4.9202732738529615,0.0883176671690666
36.68914,4.9301465735136105,0.0878854948554472
36.693724,4.949302728527656,0.0874229122332232
36.698316,4.972878012514425,0.0869931248897179
36.702908,5.006635586302239,0.0865302973123807
36.707516,5.049920384871743,0.0860231132292174
36.712096,5.095414747927608,0.0855439703181065
36.716684,5.148759651584012,0.0850316912092925
36.72128,5.204314119726777,0.0845469806467835
36.725868,5.267719128470081,0.0840405231782642
36.730472,5.3311682786620125,0.0835969809949352
36.735064,5.402590154168631,0.0831191396796069
36.739656,5.479408636361134,0.0826269155938078
36.744236,5.561090844934315,0.0820898755260473
36.748836,5.641507064917411,0.0815959218186552
36.753424,5.718325547109916,0.0811350316107964
36.758024,5.80217317872083,0.0805925728924767
36.762616,5.887042429493537,0.0800631541071462
36.767212,5.972400419122827,0.0795194069689238
36.771796,6.056326093999257,0.0789662600072428
36.776392,6.138819454122829,0.078411976877906
36.78098,6.219636130065252,0.0778663470600128
36.785576,6.299264860683106,0.0773087483536979
36.790156,6.37974888429998,0.0767105059500123
36.794744,6.454669975068195,0.0761120151529873
36.799332,6.523783763559456,0.0755239005552501
36.80392,6.589544183688417,0.0749460584504097
36.808512,6.651173985721576,0.0743788356622652
36.813104,6.70789591992543,0.0738114788562866
36.817696,6.75382464075751,0.0732952285622563
36.822288,6.795334232616868,0.0727462001940723
36.826888,6.827316599694538,0.0722206914059297
36.831476,6.847073438647575,0.0717268130117327
36.836064,6.864376343685958,0.0712353202546212
36.840648,6.875339066142179,0.0707218790403284
36.845228,6.8830706049502455,0.0702002831922363
36.849832,6.883851037605421,0.0696925164048625
36.854416,6.873838256888821,0.069221016962437
36.859004,6.855608381429247,0.068781435935182
36.8636,6.833370072588015,0.0683256618570384
36.868192,6.805979526489187,0.0678707986320198
36.872788,6.766896332570937,0.0674464986689602
36.877368,6.718696609462064,0.067051846682837
36.881968,6.664200845219654,0.0666710302862471
36.886556,6.60316467041542,0.0663161294980561
36.891156,6.539674561696531,0.065947748027588
36.895748,6.471931650167696,0.0655715111746787
36.900348,6.394172775000588,0.0652224849429357
36.904948,6.313715596490537,0.0648728701579725
36.909548,6.233502787408778,0.064502031476256
36.914132,6.152512728593516,0.0641149895136726
36.918728,6.071522669778254,0.0637186391846838
36.923316,5.990288241534702,0.0633264131533954
36.927908,5.8998150993863785,0.0629621534644271
36.9325,5.813594760048004,0.0625901183098978
36.9371,5.730194908766719,0.0621940339535755
36.941688,5.645406884181203,0.0618223851329215
36.946272,5.560130120739104,0.0614743888971177
36.950852,5.481393767858831,0.0610870356246762
36.955448,5.408586901969657,0.0606995300704427
36.96004,5.337334535547486,0.0603142801338194
36.964644,5.283904531915499,0.0598385724488675
36.96924,5.239224503331699,0.059354766070463
36.973828,5.194055735891316,0.0588942311009552
36.978412,5.15878074737506,0.0584101101765884
36.983,5.1263703883645215,0.0579619892950269
36.987592,5.099889516345079,0.057522221592361
36.9922,5.086000726592708,0.0570551781414401
36.996784,5.0762425549361385,0.0566004919815349
37.001372,5.072658239698958,0.0561427385251716
37.00596,5.073859607576938,0.0557158909351832
37.010548,5.082134266321955,0.055287598663687
37.015144,5.100058334562806,0.0548616927258793
37.019736,5.130452300356581,0.0544253350051313
37.024328,5.163178015350864,0.0540148123738212
37.02892,5.19607005650792,0.0536544025384359
37.033516,5.237423561836244,0.0532640884642607
37.038108,5.288915215516984,0.0528467334165381
37.042708,5.33889651117935,0.0524769790837589
37.047296,5.387734002965775,0.0521293549506337
37.051896,5.4426231664574445,0.0517966283423671
37.056488,5.489339376654765,0.0515408247710926
37.061084,5.533112914080852,0.0513053239907733
37.065672,5.58216087347868,0.0510732975470327
37.070264,5.62748891037177,0.050856714281801
37.074852,5.672939131979007,0.0506331475096336
37.079448,5.715446680815008,0.050428259903558
37.084036,5.753090503270334,0.0502515744807044
37.08862,5.79073432572566,0.0500759820233145
37.093212,5.823270052372018,0.0499412074949702
37.0978,5.851064237351845,0.0498234905299808
37.102388,5.872850892075057,0.0497466484854047
37.106976,5.888219320950588,0.0496807596534607
37.111568,5.89794677371194,0.0496327489107559
37.116156,5.902277619787406,0.049587039480148
37.1437,5.78015476288696,0.049560925650126
