Time,Force,Position
35.775004,3.581570164365825,0.1408093016233685
35.779596,3.765517376302465,0.140777160133795
35.784184,3.9392720588063215,0.1405764581113111
35.78878,4.104999634915127,0.1402558400305128
35.79335999999999,4.264987712380758,0.1396202746520095
35.79796399999999,4.416782357288564,0.1387465451312222
35.802548,4.557607223030082,0.1378755372891237
35.807136,4.686196321015228,0.1371099882976933
35.81173199999999,4.801161477939771,0.1364624485663719
35.816328,4.910186908241479,0.1356929524468781
35.820924000000005,5.010163612986339,0.1348516425409819
35.825512,5.092385758574798,0.1341707371817457
35.830112,5.1628608752634655,0.1334844710754696
35.834704,5.223265647233494,0.1327632345994492
35.839304,5.264405502028743,0.1322656581855207
35.843892,5.294752143452217,0.1319615024677291
35.84849199999999,5.320890123514372,0.1317734105409499
35.85307999999999,5.3533241447100615,0.1314800140903567
35.857676,5.383959297010457,0.1312197337519551
35.862252,5.4132843192721385,0.1309525481795532
35.866848000000005,5.444241884266341,0.1306205095720886
35.871436,5.471968265612388,0.1303161540450687
35.876031999999995,5.5044361886249655,0.1299299544578886
35.88061999999999,5.531385320237511,0.1296409318547877
35.88520799999999,5.555636148507114,0.1293983427063535
35.889796000000004,5.577066488719628,0.1292068952069955
35.89438799999999,5.597963948626932,0.1290034114401078
35.898984,5.614608605724287,0.1288469151581791
35.90356799999999,5.635173413306043,0.1285635674498841
35.908156000000005,5.655205340582587,0.1282696400432929
35.912735999999995,5.674582202839774,0.1279735189160377
35.917328,5.6966132269912775,0.1275875173765405
35.92192,5.716434686656419,0.1272053239751726
35.926512,5.73494601628285,0.1268152693411332
35.93111999999999,5.754190454194154,0.1263742839716275
35.935708000000005,5.774778923961058,0.1258352880177056
35.940296000000004,5.793280013955748,0.1252870831849558
35.944892,5.809449354749933,0.124750694344008
35.949479999999994,5.821732446876606,0.1242275258748156
35.954083999999995,5.83090654006927,0.1237163759247109
35.958676,5.8332517118231895,0.1232755682740552
35.963272,5.835308372700188,0.1228002939854984
35.96785199999999,5.829636677690794,0.1224059968856634
35.972452000000004,5.82392084123277,0.1219592904490123
35.97704,5.814318756107236,0.1215249301787042
35.98164,5.80532759455243,0.1210442737697487
35.98622399999999,5.791062011025883,0.1206229005468017
35.99082799999999,5.777162981641771,0.1201720965720919
35.995412,5.753903053638745,0.1198650624521272
36.000007999999994,5.724591453930477,0.1196216758458365
36.0046,5.691804301145761,0.1194149875955302
36.009196,5.657995529199253,0.1192261649489567
36.013791999999995,5.622265703643304,0.1190682651471704
36.01837999999999,5.581672151706677,0.118997808248811
36.022972,5.540179165322401,0.1189330762030052
36.027556000000004,5.5010179281386336,0.1188528175221786
36.032152,5.464677179011956,0.1187254209743078
36.036736000000005,5.429358049047071,0.1185741356784787
36.04132,5.398413906606279,0.1183729727913146
36.04590399999999,5.370700947813641,0.118151486931863
36.0505,5.344298119059718,0.1179428275850204
36.055088,5.321004289239803,0.1177234179430709
36.05968,5.302085446943981,0.1174549067976857
36.064268,5.2838658111161445,0.1172453742478921
36.068856,5.26838862007988,0.1170542331492905
36.073468000000005,5.253077755206388,0.1169060213341397
36.078052,5.242141877856991,0.1167096769334764
36.08264799999999,5.235458803317542,0.1164751804944333
36.087236,5.236093389073421,0.1161400494657069
36.091824,5.247521188201073,0.1156735250565816
36.09642,5.258460248472144,0.1152389322834082
36.101020000000005,5.269154939314923,0.1148223484333589
36.105616,5.283858063539358,0.1143864758747214
36.110204,5.3076777169544185,0.1138294532492265
36.1148,5.331908065960544,0.113302327367952
36.119388,5.351274688585993,0.112861663333185
36.123988,5.368231518745418,0.1124908895855859
36.128564,5.388419532552996,0.1121103960928281
36.133168,5.412205284151167,0.1116966730534726
36.13775199999999,5.435502296892754,0.1113214648309895
36.142348,5.465095350767877,0.1108783323061959
36.146936,5.494033339623643,0.1104335410090533
36.151532,5.522604774336973,0.11001962573013
36.156128,5.553341632088034,0.1095609514584688
36.16072799999999,5.589064400933918,0.1090255849963473
36.165316,5.6297730808746245,0.1084171799123018
36.169912,5.672036260282335,0.1078118065874588
36.1745,5.710457332471162,0.1072663953657766
36.17908799999999,5.747734600784051,0.1067546050096192
36.18367599999999,5.776794774353963,0.1063427446344424
36.188272,5.811862478180491,0.1058362701274615
36.192868,5.849872854778253,0.1052899360894754
36.197456,5.888494154946745,0.1047093965677396
36.202052,5.924783705914728,0.1041443575318577
36.206636,5.957719888520412,0.1035953186886605
36.211232,5.992821494163829,0.1030035345217058
36.215812,6.032376130596857,0.1023262816028141
36.220392,6.065879095324641,0.1016953055595712
36.22498399999999,6.095007072528332,0.1011077530959792
36.22958,6.126134146606981,0.1004462275389842
36.234184,6.151453918408678,0.0998146865444968
36.238776,6.177018059638668,0.0991734660872497
36.243368,6.20241587470588,0.0984964444523471
36.24795999999999,6.2285467980579705,0.0977813990850703
36.25254,6.242985073590637,0.097159948398993
36.257136,6.247407385485031,0.0966263517228999
36.26171599999999,6.248965067873709,0.096075368643863
36.266308,6.249212620223674,0.0955045262015982
36.27089599999999,6.247128423373131,0.0949311575644077
36.275496,6.24643239982682,0.0943176889031305
36.28008,6.242383007918208,0.0937189780893078
36.284676000000005,6.234735878219004,0.0931477120395633
36.289272,6.222713760995709,0.0926013854771746
36.293868,6.20541722180067,0.09208478629623
36.298464,6.191307724805158,0.0915150582075801
36.30306399999999,6.175643728342642,0.0909408098492165
36.307656,6.154094386337657,0.0904347490011004
36.312252,6.131645609885022,0.0899303421601174
36.31684,6.103555857318209,0.0894759005735451
36.32142399999999,6.071379628104223,0.0890751795651624
36.326016,6.04190170223318,0.0886522957680332
36.330608,6.012423776362137,0.0882271384195929
36.3352,5.980780427453362,0.0878337878666488
36.339792,5.943906798021473,0.0875132872170059
36.344388,5.920769054732595,0.0870873771754643
36.34897599999999,5.9022506683961,0.0866202578300168
36.353568,5.888229454297844,0.0861237385600542
36.358156,5.878050347418471,0.0855875455354882
36.36274399999999,5.871468978329689,0.0850293505469753
36.367352,5.86505393540368,0.084511309053101
36.37194,5.8617478914116825,0.0840043530559961
36.376536,5.86216176992442,0.0834694113145379
36.381124,5.865806832085313,0.0829359434778905
36.385712,5.872194339037778,0.0824329413014923
36.390308000000005,5.880791410476603,0.081949154337629
36.394908,5.895317968906526,0.0814574988735094
36.39950399999999,5.913564449841187,0.080938463068196
36.40407999999999,5.941949079128265,0.0803573154068701
36.408672,5.9793280528918205,0.0797279805487644
36.413264,6.018383710836527,0.079097138144191
36.417864,6.054907391601063,0.0785234444954513
36.42245199999999,6.087999660737782,0.0780101148882082
36.427052,6.123545863789152,0.0774990038331369
36.43164,6.163833608507055,0.0769509074770473
36.436232,6.197458757948986,0.0764679871774614
36.44082399999999,6.238157198257953,0.0759673457361405
36.44542,6.274524792491454,0.0755326749482769
36.45002,6.314900820106612,0.0751168400843438
36.454616,6.353111424684037,0.0747347074699314
36.459204,6.394386886746844,0.0743234768011617
36.46379999999999,6.4316980568766215,0.073950998782555
36.468392,6.470441541759257,0.0735990189703015
36.472976,6.506242353870658,0.0732723737599714
36.477568000000005,6.544985838753295,0.072922786287465
36.48215999999999,6.582829889188283,0.0725821567394085
36.486756,6.612456844880295,0.0722820182295083
36.491344,6.642083800572308,0.0719852190595322
36.495932,6.664026541826555,0.071747345082609
36.500524,6.686091467794947,0.071507503523802
36.505116,6.708156393763339,0.071268718357371
36.5097,6.730710058588315,0.0710028268706851
36.51428799999999,6.7574723847746085,0.0706919008633587
36.518884,6.7843568956750495,0.0703763570967928
36.523472,6.810341972127842,0.0700673502655506
36.52806,6.83644923329478,0.0697532857859035
36.532656,6.8524183461093005,0.069486668413202
36.537244,6.870308512533263,0.0692079978840691
36.54183999999999,6.878060530604808,0.0689742668792341
36.546436,6.888100156428229,0.0687103770995921
36.551028,6.891843741118118,0.0684657910708542
36.555620000000005,6.9001625413117615,0.0681600549076828
36.56022,6.904595092837895,0.0678370724286582
36.564808,6.9132363057253485,0.0674724836982554
36.569416,6.916725281355205,0.0671104182922846
36.574,6.9148176502991765,0.066762357199164
36.5786,6.916097061442675,0.0663792776661353
36.58318799999999,6.9145559845290805,0.0660096515880224
36.587784,6.908517735377249,0.065648688025213
36.592376,6.892463522587145,0.0653188183799742
36.596972,6.875876429491829,0.0649706436560443
36.601568,6.8605553249866,0.0645994643218487
36.606168,6.839837613795484,0.0642396615939602
36.61076,6.817687587851509,0.0638636253308259
36.615352,6.791939824116942,0.0634939999300976
36.619944,6.765536995363018,0.0631115117439487
36.624532,6.7402779704850335,0.0627101744039305
36.62912,6.709988893063599,0.0622980245371801
36.633712,6.684685726736987,0.061846594900581
36.638308,6.653741584296196,0.0614170737143569
36.64289599999999,6.629215667703085,0.060966266537918
36.64748399999999,6.598027155834003,0.0605447730075011
36.652072,6.565328285946544,0.0601547456375019
36.65666,6.529686743287852,0.0597809753338263
36.661252000000005,6.498131677276332,0.0593713455000125
36.66584,6.471684707073781,0.0589182432206427
36.670436,6.44769167078588,0.0584733008788218
36.675028,6.429461795326304,0.0580012589632593
36.67962,6.420959372628082,0.0574761126377232
36.684212,6.422961652424714,0.0569036341091741
36.688812,6.427417866135998,0.0563425292985409
36.693416,6.433184209885995,0.0558077615364822
36.698004,6.444224975607733,0.055273102968948
36.702608,6.455920806348828,0.0547512646033542
36.707188,6.471458744308806,0.0542133415207954
36.711788,6.486630128126348,0.0536949457359097
36.71637199999999,6.508341922505713,0.0531611742517556
36.720972,6.5401918652375,0.0526110012973723
36.725556,6.574862296026375,0.0520585860432373
36.730156,6.615828767948784,0.0515039743977297
36.734748,6.650254829309367,0.0509678127440969
36.739344,6.688811508765752,0.050448192871287
36.74394,6.7295336112598685,0.0499094827365772
36.748532,6.773076201811076,0.049367419094536
36.753136,6.814986249629761,0.0488683347024089
36.757732,6.858084242773013,0.0484070893978619
36.76232,6.899383367020969,0.0479503180514021
36.766912000000005,6.935940949602395,0.0475118803059433
36.77150399999999,6.967268251660708,0.0471152798750693
36.776088,6.991199850158174,0.0467755943782337
36.780676,7.011289341436759,0.0464488632746309
36.785276,7.028680529372399,0.046123160469546
36.789864,7.047093336469832,0.0457951650550589
36.794456,7.064484524405473,0.0454736379604844
36.799052,7.080487539036883,0.0451774521797577
36.80363199999999,7.097267803401795,0.0448877251783008
36.808224,7.106241668614797,0.0446262785578376
36.812812,7.108308569123536,0.0443942911517547
36.81739999999999,7.10346850492801,0.0441889165872288
36.821996,7.094908518227747,0.0439880915526584
36.826584,7.085204727651544,0.0437962199875888
36.831172,7.0711259495512495,0.0435948660827599
36.835768,7.048996402870751,0.0434291287212708
36.840356,7.016239968981252,0.0432916493577067
36.84495199999999,6.978986362853514,0.0431495775092368
36.849532,6.932371858106862,0.0430186294768251
