Time,Force,Position
41.81751200000001,2.7766846566089325,0.1680228361842978
41.822104,2.925788054883859,0.1668478669205712
41.8267,3.071571986613375,0.1654524477506994
41.831296,3.2126821803101397,0.1639284854669912
41.83588400000001,3.342333855984034,0.1627417436762108
41.840484,3.4664565006261574,0.16164579699162
41.845072,3.5829627344642936,0.1605957817884002
41.849664,3.6948393717183055,0.1594855885470351
41.85425600000001,3.798077979006539,0.1584312562850703
41.858836,3.89664284826202,0.1572077000011787
41.863444,3.9865696875517207,0.1560100022613916
41.868036,4.068713789874659,0.1547638755270896
41.872624,4.143119296679467,0.1535317357770394
41.877216,4.202101993528376,0.1525707336302058
41.88180800000001,4.255389333182739,0.1515275428638444
41.88641200000001,4.285203094301002,0.1510337876311721
41.891000000000005,4.318903104086776,0.1504932124443975
41.895596,4.352681157138068,0.1498929048998691
41.900176,4.3820842226652665,0.1493940672853178
41.90478,4.414918699820283,0.1487514725596078
41.909368,4.445377286326163,0.1480687838612687
41.91396,4.476979676707983,0.147329392129954
41.918556,4.506083991726523,0.1465641850501297
41.923156000000006,4.530036069487468,0.1459058318057976
41.92774800000001,4.5494909750101735,0.1453382916261536
41.932344,4.563915827989428,0.1448651333901464
41.93694000000001,4.574987312606384,0.1444532279255405
41.941536,4.583194167717621,0.1440537832228043
41.946124,4.590213077504291,0.1436368020697394
41.95072400000001,4.593878618928661,0.1432768192666159
41.955316,4.598032899209614,0.1428712640248741
41.95991600000001,4.599366691433477,0.1425383370776745
41.964504000000005,4.594526627237952,0.1423258625444287
41.96909600000001,4.591319105774948,0.1420228453829768
41.973684000000006,4.584391661807207,0.141808484381339
41.97827600000001,4.575665348944171,0.1416312916535699
41.982868,4.563751993881608,0.1415582545007599
41.987464,4.549673215781312,0.1415544882046125
41.992056000000005,4.540091609919255,0.1414567389297736
41.99664,4.5282223963053205,0.1414419457699904
42.001232,4.518807116606039,0.1413944095317167
42.005824,4.5143777480015785,0.1412105469579822
42.010416000000006,4.51522280136886,0.1409343384564759
42.015004000000005,4.515701300593704,0.1406902133783615
42.01959600000001,4.523864014256312,0.1402578129524457
42.024184000000005,4.535868835137805,0.1397362260423746
42.02877600000001,4.55057195936224,0.1391657948522568
42.033368,4.563109660548944,0.1386625361970064
42.037968000000006,4.575158622879064,0.1382064717004273
42.04256,4.590927507713921,0.1376757348787297
42.047152,4.609394695891723,0.1371062026846068
42.051736000000005,4.628761318517171,0.1365242880058398
42.056336,4.654912721132737,0.1357835963165412
42.060924,4.680042504586511,0.1350721230970483
42.065524,4.704517223020927,0.134354153691925
42.070112,4.728991941455343,0.1336332619975817
42.074712000000005,4.758574755698727,0.1327721827284242
42.079308,4.787380320208609,0.1319218642994446
42.083904,4.80976765887081,0.1312018020388821
42.0885,4.83444260528489,0.1304017509289851
42.093092,4.858340301965468,0.1296161612893317
42.097692,4.8777408264078055,0.1289216441359096
42.102276,4.893665797773696,0.1282914626283597
42.106864,4.914943234376849,0.1275158824016587
42.11146000000001,4.932622933189408,0.1268073763362666
42.116052,4.946704894211377,0.1261637036505115
42.120636000000005,4.957066932728608,0.125589345157052
42.12522800000001,4.970493828731222,0.1249402171562013
42.12982,4.984287278876272,0.1242609953455426
42.134416,4.9914181337453485,0.1237127231671158
42.139004,4.989965339729011,0.1233336821074766
42.143596,4.986591492103233,0.1229935540824563
42.148188000000005,4.98003060227793,0.1227382058717163
42.15278000000001,4.974246962186127,0.1224788720046109
42.157368000000005,4.968341137380181,0.1222291555568602
42.161952,4.966277419793116,0.1219042316936716
42.166544,4.963192083044257,0.1216047998866954
42.171136,4.961128365457193,0.1212823702207194
42.175724,4.964949993412598,0.1208403890260206
42.180312,4.967505632777918,0.120441799526677
42.1849,4.968140218533797,0.1200800207866076
42.189508,4.969185499880741,0.1197456222332744
42.19408800000001,4.969986411799394,0.1194331133176997
42.19869200000001,4.968255346537877,0.119208569394413
42.203276,4.969100399905158,0.118957192114296
42.207876,4.972399387187092,0.1186895378292877
42.21246000000001,4.980195546707264,0.1183616055126246
42.217052,4.987502967370853,0.1180750045898836
42.221648,4.996487072215592,0.1177767367813753
42.22624,5.012011587622157,0.1173751185778746
42.23082000000001,5.034198698304696,0.1168565539854658
42.235416,5.061127350653765,0.1162653019590377
42.240016,5.087156568555186,0.1156843592218518
42.244612,5.117805143408992,0.1150450007812072
42.249204000000006,5.152173640767535,0.1143552345890522
42.25379600000001,5.182455661478905,0.1137554467610974
42.25838400000001,5.21363711663792,0.113152197475539
42.262972000000005,5.243430398492706,0.1126012954897883
42.26756,5.267626845681942,0.1121934410393557
42.272156,5.298363703433004,0.1116976693338552
42.276748,5.332698298974657,0.1111628863305158
42.28134,5.3698533825734,0.1105921573496158
42.28593600000001,5.402144739791466,0.1100976897281581
42.290524000000005,5.431615608952443,0.109642951628533
42.29512,5.461741543132777,0.1092040815899753
42.299712,5.488924804541876,0.1088167232458625
42.304304,5.512388143446237,0.1084832925497222
42.30890000000001,5.539038524550126,0.1080886571180175
42.31348800000001,5.562624048168632,0.10775351759555
42.3181,5.58620957178714,0.107426071195955
42.322688,5.6087734762438535,0.1071214856572558
42.327288,5.625574219872243,0.1069043245555939
42.331884,5.645684190414305,0.1066167947228742
42.336472,5.657454881499244,0.1064334922124329
42.341076,5.662807346736503,0.1063250805132305
42.345668,5.672368473335082,0.1061366588876757
42.350268,5.680252915752511,0.1059597709864813
42.354864000000006,5.685683424255287,0.1057919850656141
42.35946,5.69683295213776,0.1054918024535636
42.364052,5.701031373867341,0.1052503817586551
42.368652,5.703919665558209,0.1049948910830041
42.37324,5.7034545888867765,0.1047583651929759
42.377840000000006,5.706543108557307,0.104434060410091
42.382432,5.715883527912745,0.1040001507386045
42.387024,5.720193894724733,0.1035930166652801
42.39162,5.724993000393304,0.1031507298842826
42.396208,5.730280844918457,0.1026734598913009
42.40080400000001,5.727229409986489,0.1022901723685346
42.4054,5.727487201968192,0.1018396196864006
42.409988,5.722226202549861,0.1014484520480017
42.414576,5.716310138112176,0.1010492705229803
42.419168,5.7106384431027815,0.100630883853423
42.423756,5.70460019395095,0.1002401089064444
42.428340000000006,5.704325105627442,0.099773634356942
42.432936,5.709690993418112,0.0992398270816478
42.437524,5.710315339542252,0.0987654806395848
42.44212,5.712372000419252,0.0983021088924846
42.446712000000005,5.719414572391072,0.0977654799163705
42.45130400000001,5.720205244677986,0.09733571480509
42.455888,5.722306047003613,0.0969227741167068
42.46048,5.719176568806127,0.0965980410231189
42.46506000000001,5.715680536466204,0.0962977079213736
42.469672,5.718113991117379,0.0959710204189907
42.47425200000001,5.715439349959586,0.0957253410197768
42.478848,5.713297589107004,0.095495360447278
42.48343200000001,5.713199066578008,0.095234081125359
42.488020000000006,5.712611805192431,0.0950054220927057
42.492616,5.718564954368679,0.0947071399193781
42.497208,5.724273734116636,0.0944284351256349
42.501816000000005,5.734068990511767,0.0940875925791177
42.506396,5.745663115802195,0.0937351221229532
42.511,5.76097716359736,0.093347485113994
42.51558800000001,5.772571288887786,0.0929969268615574
42.52018,5.782366545282917,0.092662872994108
42.524768,5.791017997802109,0.0923544373601507
42.529372,5.802367753664244,0.0920260519910175
42.533956,5.808809641697075,0.0917050258926688
42.538544,5.8121866722445255,0.0914295273821341
42.54314000000001,5.822715036924531,0.0910534465043836
42.547728000000006,5.832832706013472,0.0906518827738189
42.55232,5.849080090073174,0.0901627521642325
42.55690800000001,5.866715647437106,0.0896353431077773
42.561496000000005,5.878177348381648,0.0891504956410647
42.566084,5.889883418754482,0.0886489880604648
42.570676000000006,5.907597019383931,0.088074037136776
42.575272,5.924821881156796,0.0875349130291192
42.579864,5.946255404290983,0.0869364310977104
42.584464,5.966012243244019,0.0863468286753511
42.589056,5.985114017177699,0.085752884113642
42.59364000000001,6.002827617807149,0.0851986524766497
42.598236,6.017842915093655,0.0846638931109877
42.602816,6.033757646827809,0.0841301950710409
42.6074,6.053758855209137,0.0835469331157392
42.611996000000005,6.073760063590464,0.0829658612034551
42.616576,6.091429522771286,0.08237833732877
42.621176000000006,6.108321732218604,0.0817910342224371
42.625772,6.132409417247106,0.0811664483553628
42.63036,6.160217024780345,0.0805190068136136
42.634968,6.181239852323467,0.0799398443877919
42.63956,6.20778147126662,0.0793327565891106
42.644152000000005,6.234078720781484,0.0787479819859268
42.64874400000001,6.26139758945814,0.0781563421999001
42.653336,6.288716458134797,0.0775652175379466
42.657916,6.318855814868542,0.0769581058113965
42.662516,6.339634272983372,0.0764157845153005
42.667104,6.35987985079299,0.0758585592472405
42.6717,6.377304940545519,0.0753261908198222
42.676292,6.396773268621637,0.0747766319190763
42.680888,6.411622239745368,0.0742527198379181
42.68547600000001,6.426837765011536,0.0737088397715974
42.690068,6.442175474991852,0.073158061879553
42.69466800000001,6.45403763189572,0.0726181942774071
42.699268,6.464878169637794,0.0720933434466574
42.703860000000006,6.4787835648652505,0.0715419850077957
42.708448,6.5001288051021815,0.0709570803954378
42.713036,6.521718414767402,0.0703611213609646
42.71762,6.535745994709004,0.0698120049505427
42.7222,6.547319640735954,0.0692625987793175
42.72679600000001,6.560814340372344,0.06869837150059
42.731392,6.563926522228026,0.0681936659099378
42.73598,6.566383639064351,0.0676813184114291
42.74058000000001,6.568718571186532,0.0671781975537246
42.74516,6.5739961760799455,0.066655600177231
42.749752,6.57735272736392,0.0661471540312884
42.75434800000001,6.590070177266807,0.0655937164068822
42.75894,6.60266544245555,0.0650485347744365
42.763532,6.613461838748998,0.0645082562606257
42.76812,6.621848442576421,0.0640084951917394
42.772724,6.634854403356229,0.0634902296186962
42.77732,6.649781417745478,0.0629646638660453
42.781908,6.663442443544643,0.0624599185487362
42.786524,6.67788071907731,0.0619606165149392
42.791112,6.691053006019892,0.0614848785605219
42.795708000000005,6.697440512972356,0.06104964771548
42.800288,6.695366555753552,0.0606530131599172
42.804888000000005,6.695091467430045,0.0602546061531063
42.809468,6.7017233438108015,0.0598125309143688
42.814064,6.706067612439678,0.0593991007297095
42.818656,6.715153422735085,0.0589679618794739
42.823256,6.730779643592319,0.0585111232571333
42.827844,6.740642703621231,0.058081434659955
42.832440000000005,6.748462525326555,0.0576684732346273
42.837028,6.752195870384703,0.057287483448004
42.841620000000006,6.756173584871142,0.0568944968155212
42.84621200000001,6.7563091921387,0.0565219061640837
42.850808,6.757588603282198,0.0561365909791988
42.855396,6.761566317768637,0.0557483252691239
42.85998000000001,6.767953824721101,0.0553284268131716
42.864572,6.775118581407068,0.0549165033711264
42.869152,6.779218480607653,0.0545273234833264
42.873748000000006,6.787404856455414,0.0541107384087218
42.878344,6.793670178693732,0.0537015223503569
42.882936,6.799524805340986,0.0532683731639086
42.887516000000005,6.810776038674127,0.0528304992245021
42.892112,6.8237039561884165,0.0523961169488564
42.8967,6.832545397055533,0.0519902696897833
42.90128800000001,6.839343599599062,0.0516014826534741
42.905896,6.848185040466178,0.0511988576308931
42.91048000000001,6.84934226689553,0.0508252193520283
42.915088,6.850621678039027,0.0504469570389322
42.919672000000006,6.85447720781132,0.0500705996664905
42.924276000000006,6.855390064812381,0.0497053842921321
42.928872,6.85744672568938,0.0493262183024042
42.93346,6.8561941596527065,0.0489780282912919
42.938064,6.851099486397151,0.0486416185648959
42.942656,6.838975663723186,0.0483421634094432
42.947252000000006,6.822887549116193,0.0480611047111219
42.95184400000001,6.796827612319556,0.0478292549402528
42.956436,6.761406776904003,0.047614784990031
42.961024,6.719201161498334,0.0474241304409339
42.965624000000005,6.668289712493103,0.0472630950051723
