Time,Force,Position
37.441788,3.794912274798084,0.1479964310075703
37.446392,3.868326881336314,0.1477762978823822
37.450988,3.934203120336075,0.1473773331234273
37.455584,3.990497753473781,0.1468480815449519
37.460184,4.044239930167839,0.1459852172169813
37.464776,4.088156131571548,0.145049194698087
37.46936,4.124578106885417,0.1440137749748088
37.473952,4.154527475271238,0.1428757311262888
37.47853599999999,4.16488951378847,0.1421643072334432
37.483128,4.178072040362791,0.1413723483480945
37.48772,4.191376751651257,0.1405814512727846
37.492312,4.198796117397253,0.1399564147721069
37.4969,4.205804787552185,0.1393001408107504
37.50149999999999,4.211014588811821,0.138687212997031
37.50608799999999,4.214914260032743,0.1380657447363653
37.510668,4.219957735129606,0.137394744917177
37.515264,4.226555709693471,0.1367122890596337
37.519856,4.230866076505459,0.1361168727032887
37.524464,4.2368531274985965,0.1354889486638117
37.529044,4.242229254921005,0.1349290641341252
37.53362799999999,4.246950317324059,0.1343647077170447
37.538224,4.251671379727111,0.1338106604854629
37.542812,4.252838845788199,0.1334017348425476
37.547408,4.258381299373382,0.1329153832973497
37.551988,4.255995169092509,0.1326501122833548
37.556588000000005,4.261703948840466,0.132231230488501
37.561168,4.2729315199884566,0.1317036813313588
37.56576799999999,4.284036906422301,0.1311961001853796
37.570356,4.301804888132118,0.1305500300620388
37.574956,4.324602922385385,0.1298541923636832
37.579544,4.344091729724978,0.1292668763049176
37.584140000000005,4.368610589608022,0.1286118394835335
37.588728,4.396238448425075,0.1279472367566001
37.59331999999999,4.422722503366189,0.1273190768784659
37.59792,4.452027046364392,0.1266437757931116
37.60252,4.486850380762627,0.1258778818933175
37.607112,4.520652095999071,0.1251441513317449
37.611696,4.558784657310979,0.1242870729637318
37.616288,4.599204826374766,0.1233597749482701
37.620876,4.640113734295134,0.1223965360721024
37.625464,4.681022642215504,0.1214357807873384
37.630056,4.7170678237551975,0.1205883897009958
37.634652,4.755156243618477,0.1196896045882694
37.63924,4.788503121815227,0.118890547796587
37.64383599999999,4.825569922516713,0.1180201943579964
37.64842399999999,4.8522542054374895,0.1173610186699804
37.653016,4.873419696958235,0.1168062836510318
37.65760399999999,4.891642515707745,0.1163170801267689
37.662192000000005,4.905123792790723,0.1159279826922045
37.666788,4.912431213454313,0.1156232516528736
37.671376,4.919983003546194,0.1152959867082324
37.67597599999999,4.927001913332863,0.1149512995422108
37.680572,4.929768020309585,0.114651157986898
37.68516,4.93559898477169,0.1142823211742525
37.689756,4.935666788405468,0.1140213698532216
37.694344,4.929071996763274,0.1138804027227803
37.69893999999999,4.924520443444668,0.1136940621660444
37.703532,4.917559097660038,0.1135830893889855
37.70812,4.912929501075914,0.1134664638403121
37.712704,4.908177719777645,0.1133597021640517
37.717308,4.907390230412404,0.1131779406063866
37.721900000000005,4.907746544923102,0.1129640298484634
37.726488,4.907325609700298,0.1127521186853698
37.73107999999999,4.910746781696377,0.1124753912410989
37.735676,4.9141679536924565,0.1122003409400301
37.740268,4.921309048193272,0.1118677019100783
37.74486399999999,4.926406904370499,0.111574948693829
37.74946,4.933547998871316,0.111239694486813
37.75405599999999,4.937746420600897,0.1109584258039592
37.758644,4.943499341797483,0.1106733529647489
37.763232,4.9502738821558605,0.1103666960735946
37.767824000000005,4.955782433924155,0.1101011682647157
37.77242,4.964766538768894,0.109800541730672
37.777012,4.972729024451842,0.1095241246961609
37.781604,4.982490379030084,0.1092221571417981
37.786196,4.992618287750764,0.1088869493151507
37.79078799999999,5.000458588719565,0.1086171602153219
37.795388,5.007277270526571,0.1083680396254739
37.827556,4.97041388072642,0.1083215701061331
37.832144,4.9667720014872,0.1083063159749941
37.836744,4.967993848628656,0.108208591516979
37.84134,4.967172457446527,0.1081516624054168
37.845928,4.967250500712044,0.10808377711076
37.850532,4.967450728691707,0.1080060913503125
37.855132,4.969205456138376,0.1079271447255837
37.859724,4.973125606622775,0.1077978631844537
37.864312,4.974469638478378,0.1076908350222507
37.86892,4.972993182276891,0.1076247788324617
37.873508,4.973437779684845,0.1075280808424625
37.87810399999999,4.978501734045184,0.1073704698773362
37.88269199999999,4.985853296157401,0.1071548789815543
37.887292,4.995614650735644,0.1068713583009868
37.891888,5.011261350856356,0.1064862193153183
37.89648,5.024087562919979,0.1061409844621102
37.901072,5.040223001897273,0.1057135539913789
37.905664,5.053660137531623,0.1053189289540705
37.910264,5.066686577574909,0.1048953721656189
37.914856,5.081878440655927,0.1044255461323678
37.919448,5.099402052937452,0.1039582766738923
37.924040000000005,5.109485820209502,0.1035938153140971
37.928628,5.118914522462196,0.1032241606979586
37.933212,5.13116371277198,0.1028174774449099
37.9378,5.144434522243558,0.1023911365458271
37.942396,5.158849135591075,0.1019388388302646
37.946988000000005,5.170809815023938,0.1014977614591499
37.951584,5.182526125028511,0.1010779826274969
37.956168000000005,5.193998065604792,0.1006756925081616
37.960756,5.209312113399957,0.1002180945429987
37.96534799999999,5.227568833966355,0.0997215424890654
37.969936,5.240961828152078,0.0993001188985071
37.974524,5.246548423185889,0.0989941674208958
37.97913199999999,5.251646279363119,0.0987270816670541
37.983720000000005,5.257765754702141,0.0984456551304155
37.988316,5.266827902812397,0.0981196926012178
37.992908,5.277322365675514,0.0978059537888133
37.99750399999999,5.287816828538629,0.0974913099456719
38.0021,5.300643040602252,0.0971798403457716
38.006688,5.312447633504081,0.0968893732510183
38.011292,5.32089885804361,0.0966154299437516
38.01588,5.331437462355355,0.0963595059671908
38.020476,5.344552185295896,0.0960927219364551
38.025064,5.354846420179348,0.0958600114858627
38.029656,5.368083327834036,0.0955883303866953
38.03423599999999,5.379932062184492,0.0953609676366115
38.038832,5.392558046268452,0.0951347480987397
38.043424,5.405672769208993,0.0948755978405492
38.04802,5.423651218530212,0.0945548340691831
38.052612,5.443550721460872,0.0942170206755927
38.057208,5.455766009953766,0.0939732725265748
38.06181599999999,5.469902352056102,0.0937052528278408
38.066412,5.496586634976879,0.0932830060190702
38.071,5.521716418430652,0.0928592734060967
38.075596,5.542881909951396,0.0924936195654094
38.08018799999999,5.563925216757996,0.0921394114690235
38.08478,5.579571916878707,0.0918265221225784
38.08936799999999,5.603680081170686,0.0914323563144559
38.09395599999999,5.626355930709806,0.0910299900288265
38.098544,5.646866357211195,0.0906668329614936
38.10314,5.66942002203617,0.0902749353742978
38.107732,5.694505664041314,0.0898213608229859
38.112312,5.712806526056342,0.0894498042273954
38.116904000000005,5.727509650280778,0.0891005742121176
38.121492,5.740169536181626,0.0887853379490972
38.12608399999999,5.756016464282001,0.0884198481012898
38.13068,5.77288501154417,0.0880413042796977
38.13526,5.791430242987488,0.0876636302821329
38.139864,5.80511174805013,0.0873447344100519
38.144452,5.815195515322181,0.0870541131042439
38.14904,5.832308432012641,0.0866735001413261
38.153644,5.852486206188482,0.0862550957058263
38.158232,5.863958146764762,0.0859337890475087
38.162828000000005,5.877106771522194,0.0856096185856251
38.167416,5.89266518874565,0.0852361199355896
38.172012,5.905769672054452,0.084864139245324
38.17659999999999,5.927702173676961,0.0843977286086564
38.1812,5.942317015004141,0.0839912581777333
38.185788,5.9599967138167,0.0835510863290363
38.19039599999999,5.978409520914135,0.0830646663429785
38.194988,5.99706669743986,0.0825674412064313
38.19957599999999,6.016212612822168,0.0820469720256272
38.20416,6.040466624013444,0.081464901596653
38.208756,6.074325903251927,0.0807994104276512
38.21336,6.105975618004049,0.0801201314837616
38.217952,6.133250345232076,0.0794614706460077
38.222556,6.160769441888395,0.0787930350057449
38.227152,6.182769747144682,0.0781611216336914
38.23174,6.203704291790546,0.0774913937337079
38.236328,6.222184902521758,0.0768195688553531
38.24092,6.23592397158644,0.0761878118193276
38.245516,6.244022064536944,0.0755975521247569
38.25010399999999,6.254652134667617,0.0749541307194839
38.254696,6.264216444187868,0.0742765432338112
38.259292,6.270838080936884,0.0736264224609365
38.26388,6.2801580210288455,0.0729649390577249
38.26847599999999,6.283714800292484,0.072353884599008
38.273064000000005,6.279831734546645,0.0717807742642293
38.27766,6.270962757705985,0.0712564326842029
38.282248,6.265691518655917,0.0707195620345066
38.286836,6.254534934063379,0.0702298704371986
38.291428,6.236349200052431,0.0698054937754843
38.296016,6.213544109089099,0.0694035136055885
38.300608,6.187385649763468,0.0690001102741084
38.3052,6.16278168990484,0.0686023193964567
38.309792,6.139854414227362,0.068203388109642
38.314388,6.112962846616856,0.0678359902907219
38.318984,6.085049659844556,0.0674752288144422
38.323576,6.057180614520884,0.0671595148937553
38.328164,6.028700645626484,0.0668773422737113
38.332756,6.003041164789172,0.0665767882352508
38.33734799999999,5.982245410332538,0.0662379437275419
38.341948,5.963903589790556,0.0659050425992601
38.346532,5.945605910697202,0.0656190527101821
38.351124,5.93090596939444,0.0653218910670954
38.355704,5.914284974482236,0.0650363905706669
38.3603,5.896642360408238,0.0647588402931145
38.364904,5.889015709972512,0.0644446505493383
38.369496,5.883310113146229,0.0641172443934028
38.374088,5.871596986063329,0.0638406137919038
38.37868,5.869244757599345,0.0635184981354878
38.383268,5.8779301119354255,0.0631556779938245
38.387856,5.891112638509747,0.0627822237621378
38.392444,5.9025404376374,0.0624637771626665
38.39704,5.9148676712127015,0.0621449812299185
38.40163199999999,5.928993773683299,0.0618244903930498
38.406224,5.945940364210984,0.0614899994914008
38.41082,5.972370038071731,0.0611104219040465
38.415408,6.006850480512682,0.060670631057533
38.42000399999999,6.046194649334306,0.0602008816083114
38.424592,6.086193883175289,0.0597492052205868
38.42918,6.123905509264392,0.0593339219105451
38.433776,6.157530658706323,0.0589566492888634
38.43836399999999,6.193321231185985,0.0585578957527353
38.44296799999999,6.226169130894413,0.0581802642123941
38.447564,6.263880756983517,0.0577795185149013
38.452168,6.305434490291503,0.0573622740854661
38.45676399999999,6.347476962456073,0.0569261091853691
38.461352000000005,6.391196118801794,0.056498257120231
38.46596,6.439901186242335,0.0560385443970359
38.470548,6.479245355063959,0.0556140655910604
38.475144,6.507796310513812,0.055207072815912
38.479724,6.534670581782515,0.054799290422269
38.484324,6.562155776621944,0.0543599890428449
38.488912,6.587842102566079,0.0539247107910029
38.493512,6.612751178776711,0.0534880044580063
38.4981,6.642890535510458,0.0530149316955006
38.5027,6.666611666396522,0.0525596930673381
38.507284,6.683137321701404,0.0521149096571664
38.511880000000005,6.697086858377486,0.0516673962024545
38.51647199999999,6.706661407529477,0.0512159748210219
38.521068,6.716602510823905,0.05074639437539
38.525656,6.727276722403205,0.0502385360989646
38.530248,6.735741369496146,0.04970869871934
38.534836,6.7435509515697305,0.0491649307145408
38.539424,6.743676319205551,0.0486484236272367
38.544016,6.739959579622487,0.0481453143298687
38.54861199999999,6.728558625601657,0.0476663001840641
38.5532,6.709062761551997,0.0471832718497532
38.557796,6.684048106102304,0.0467036779428155
38.562388,6.661076688976197,0.0462057219619787
38.566968,6.641703009640683,0.0457037454505469
38.571568,6.61554455031505,0.0452203319702455
38.576148,6.581579691837507,0.0447603949327506
38.58072799999999,6.54185167253164,0.0443116944517365
38.585336,6.491741135445063,0.0438772553501982
38.58991999999999,6.424341115873514,0.0434850276882718
38.594528,6.348235262702407,0.0431124757877068
38.599116,6.2685758131893365,0.042778273600596
