Time,Force,Position
37.690168,3.697128610675169,0.1666986344044876
37.694748,3.754444862974668,0.1657404493245713
37.699344,3.797726478622499,0.1650084333570844
37.703932,3.830082456552671,0.1644037798797433
37.708528,3.859807934773678,0.1635549083793664
37.713116,3.883882197248768,0.162703125755171
37.717704,3.9066904711337735,0.1619367792553119
37.7223,3.930808875057491,0.1611614027274197
37.726888,3.95546015928642,0.1603956344698798
37.731476,3.979989258801204,0.1596546816043293
37.736064,3.999488305772537,0.1590398028271144
37.740656,4.019476091600453,0.1583975051743757
37.745252,4.040196985713243,0.1576837829174044
37.749848,4.064759987044916,0.1568623538559508
37.754448,4.091244041986029,0.155998874788184
37.759028,4.115562673889411,0.1552250521683542
37.763628,4.144622847459322,0.1543191494320074
37.76822,4.172905771295732,0.1534322682833646
37.77282,4.201188695132141,0.1525499483965812
37.777408,4.227917119501547,0.1516996322364073
37.782,4.251702871099718,0.150957403659216
37.786596,4.277453817755958,0.1502314362245503
37.791192,4.304881448593347,0.1494741953850746
37.795772,4.336029001935474,0.1486212484303454
37.800368,4.365910566687518,0.1478421641276586
37.804972,4.393871077830119,0.1471353709468095
37.809572,4.422731023420367,0.1464184613393559
37.81416,4.453634207334202,0.1456346282469553
37.818756,4.487357879305128,0.144782061228571
37.823348,4.521858801009555,0.1439324550884833
37.827944,4.559957460504573,0.1430124716260473
37.832528,4.590249720847681,0.1423168906647042
37.837124,4.615311700667674,0.1417877961836457
37.841708,4.6364093885546405,0.1413809775998256
37.8463,4.652643350060931,0.141107019868421
37.850892,4.669898930729014,0.1408017596682274
37.855472,4.683923327748942,0.1405430051162777
37.860064,4.699091528644809,0.1402471137156212
37.864656,4.712949599501965,0.1399422546931922
37.869244,4.731793581453942,0.1395152843751106
37.873848,4.7499824983865615,0.1390857894207133
37.878436,4.769026708318202,0.1385858669080717
37.883024,4.786882972925275,0.1380659724359781
37.887608,4.802529673045987,0.1375579545933898
37.892196,4.817354981984567,0.1370001830886169
37.896792,4.82907129198914,0.1364660295015806
37.90138,4.836290429755473,0.1360129623873207
37.905976,4.843343241359032,0.135513548259448
37.910564,4.848064303762086,0.1350320558853793
37.915164,4.8487769327834815,0.1345865477321456
37.919752,4.845236758994931,0.1341994094079271
37.924352,4.845005812120052,0.1337087210764745
37.928948,4.84652959269184,0.1331207629482213
37.933544,4.8463766890824775,0.1325521509983345
37.93814,4.84941082767264,0.1318904211956081
37.942736,4.85064609736751,0.1312590221273229
37.947324,4.848572140148706,0.1307290826252717
38.029936,4.590921810796917,0.1305462638490843
38.034528,4.596606928359724,0.1304964209190669
38.039124,4.6067892181607695,0.1303716328074295
38.043708,4.618692333591594,0.1302876377656208
38.048312,4.63611424042245,0.1301079465353184
38.0529,4.656356635310396,0.1298708532471585
38.057496,4.677498464645989,0.1296211083590913
38.062084,4.707756823172208,0.1292120552657067
38.066684,4.738015181698426,0.128803002172322
38.071284,4.770072409119939,0.1283694658797812
38.075884,4.8062161131886265,0.1278383373596313
38.080468,4.848733901656368,0.1271386492032217
38.08506,4.891373874838254,0.1264396681481659
38.089656,4.934502586876723,0.1257088663942212
38.094244,4.978486591914211,0.1249059269221726
38.098832,5.022837151094136,0.1240837760620196
38.103428,5.071274186921236,0.1231782764346341
38.10802,5.118933973014832,0.1222885852119618
38.112604,5.159764837669685,0.1214899327887949
38.117192,5.196098530086298,0.1207614576772664
38.121788,5.230877723035906,0.1200434617033079
38.12638,5.259483059566124,0.1194152847967992
38.13096,5.287022635485921,0.1187596477346089
38.13556,5.314640254671236,0.1180399757391177
38.140148,5.335062398275368,0.1174252538698911
38.144732,5.35458510743185,0.1168223090481049
38.14932,5.372675501835476,0.116217121326696
38.153908,5.3840591595145,0.1156740348454645
38.15852,5.398874228821343,0.1150440110151616
38.163108,5.411357548927679,0.1144237431808877
38.167696,5.418688631776419,0.1138555545602055
38.172292,5.42152254238692,0.1133487154875171
38.17688,5.4220247037969145,0.1128487277581405
38.181476,5.417374627949313,0.1123950490400788
38.186068,5.412602367387567,0.1119508457925448
38.190672,5.406642161501252,0.1114831404281757
38.19526,5.396184783376699,0.1110694840641825
38.19986,5.38507234023279,0.110647831796001
38.204448,5.3747371468223815,0.1102231195447455
38.209048,5.368610614773293,0.1097115944449071
38.213636,5.361051767971347,0.109191514255664
38.218236,5.355169605350549,0.1086588441214394
38.22282,5.349820323034964,0.1081444559622764
38.227416,5.343449421557584,0.1076484662787558
38.231996,5.339776823423149,0.1071206317697769
38.23658,5.341090136383534,0.1065107628589794
38.241172,5.342036895201484,0.1059268287742668
38.245764,5.346581391810024,0.1053035544812422
38.250344,5.347938846219037,0.1047495181623414
38.254928,5.349706996219117,0.1042217267780384
38.25952,5.353684710705558,0.1036997318830586
38.264112,5.360238543820796,0.1031611933487527
38.268708,5.364626953898302,0.1026654306642729
38.273296,5.371224928462168,0.1021741459888552
38.277884,5.378600152759536,0.1016847202037462
38.282464,5.383199030448443,0.1012858154106081
38.287044,5.388575157870852,0.1008869207954617
38.291652,5.394606350312618,0.1004989052486716
38.29624,5.406278518868563,0.1000442595154328
38.300844,5.415418710244337,0.0996638466556913
38.305436,5.427012835534764,0.0992760635758449
38.310024,5.439262025844548,0.0988988268040226
38.314612,5.449590162544889,0.0985482232527721
38.3192,5.465559275359409,0.0981355664090906
38.323796,5.479485149850346,0.0977558413731824
38.328376,5.490101797427607,0.0974492021696944
38.332976,5.505337801957253,0.097097006057408
38.337556,5.51943000261096,0.0967724096976339
38.342152,5.5334000185505205,0.0964572339169807
38.346744,5.546714969470726,0.0961325379312964
38.35134,5.565260200914045,0.0957244379947444
38.355932,5.5836832476432186,0.0953301200322215
38.36052,5.608646704934218,0.0948701505247767
38.365124,5.640394942215334,0.0943338067089233
38.36972,5.673164798658245,0.09378869535798
38.374308,5.710920566195976,0.0931779428729176
38.378904,5.746755280124267,0.0925887016294134
38.383492,5.782589994052558,0.0920046933885679
38.38808,5.813805351028464,0.0914733027485924
38.392668,5.843344023823221,0.090945420365857
38.397248,5.87390431577977,0.0904089158559561
38.401844,5.907773834649991,0.0898215910110545
38.40644,5.941887722948503,0.0892180565979607
38.411032,5.968972461828607,0.0887124555251271
38.41562,6.002064730965325,0.0881346337139094
38.420208,6.032825250901538,0.0875521173983719
38.424796,6.058311348866009,0.0870031550023694
38.429384,6.083553077402188,0.0864707714443389
38.433988,6.110960228976101,0.08590741427864
38.438576,6.139511184425952,0.0853242947779224
38.443172,6.162054609619189,0.0848219910411127
38.44776,6.181899731469481,0.0843390582045713
38.452348,6.196226061919742,0.0839003578772892
38.456948,6.203234732074673,0.0835168909667665
38.461536,6.209343967781957,0.0831414680570831
38.466132,6.211733280984506,0.0827959168877817
38.470724,6.216043647796492,0.0824319081839317
38.47532,6.220476199322626,0.0820622007785928
38.4799,6.22208826279167,0.0817138800813087
38.4845,6.227786802907888,0.0813165552383845
38.489084,6.232585908576459,0.0809267937864691
38.493684,6.228801365359615,0.0806096297400691
38.498276,6.22591625659042,0.0802874418490899
38.502872,6.224297136411311,0.0799369668296014
38.507452,6.218835909013319,0.0796218749868251
38.512044,6.213374681615327,0.0793050984631784
38.516644,6.206891835055539,0.0789981838631276
38.521236,6.20191934651413,0.0786501269649996
38.525816,6.1950258043632775,0.0783192009283067
38.530404,6.18968676167943,0.0779950648052372
38.534992,6.184592088423874,0.0776554280493896
38.539588,6.178720165434815,0.0773113645132559
38.54418,6.172848242445757,0.0769654462070991
38.548772,6.169674622799643,0.0766064485141897
38.553364,6.163802699810584,0.0762595801263198
38.557952,6.157153527088024,0.0759080349306802
38.562556,6.150748723793757,0.0755417008815954
38.567136,6.140379628566459,0.0752126457863099
38.571728,6.130665598358519,0.0748921783271477
38.576324,6.11698727621755,0.0746095191242855
38.580912,6.100366281305346,0.0743527710837854
38.585504,6.088242458631381,0.0740744207036341
38.590092,6.077018070405063,0.0737919412658531
38.594684,6.069757974111775,0.0734722126983723
38.59928,6.061476258656693,0.0731630808621065
38.603872,6.056792280992204,0.072838964481027
38.608468,6.056727660280098,0.0724888374189001
38.613048,6.057195919873202,0.0721591290537126
38.617644,6.0565203755903685,0.0718473442945493
38.622232,6.053146527964591,0.0715465622030346
38.626836,6.048628876462874,0.0712626360878226
38.63142,6.047586778037602,0.0709725343602092
38.63602,6.051164036564717,0.0706592569625643
38.640616,6.049999753425299,0.0703760153353974
38.645208,6.050634339181179,0.0700857228752968
38.649796,6.05678771633709,0.0697705910311036
38.654392,6.066661015997739,0.0694393538595144
38.658976,6.081642411467355,0.069057633097447
38.663572,6.102753521907733,0.0686182376470703
38.66816,6.127584554852846,0.0681618405955744
38.672748,6.156502064445134,0.0676678663871995
38.677336,6.187829366503448,0.0671375856706484
38.681936,6.222099341332996,0.0665934486871822
38.686524,6.254326077838956,0.0660757844608811
38.69112,6.288596052668504,0.0655420292159841
38.695712,6.323110396926344,0.0650018041112987
38.700304,6.358890729774267,0.0644475063650069
38.704904,6.39389381288869,0.063893674673251
38.709484,6.429019080717257,0.0633327007241568
38.714076,6.467209206031205,0.0627494056024784
38.718664,6.5084641888305335,0.0621412838435605
38.723252,6.546243618553415,0.0615371538740453
38.727856,6.580669679913998,0.0609331625926772
38.732444,6.62073671738876,0.0603044465561264
38.737044,6.661703189311168,0.0596780592627679
38.741636,6.697028685119399,0.0590806699740812
38.746228,6.7283898889946006,0.0585165563173247
38.75082,6.756031170365066,0.0579689862230027
38.755416,6.776110422011912,0.0574560606230718
38.760016,6.791692501420517,0.0569511066845311
38.7646,6.8064973310956205,0.0564457936943633
38.7692,6.818237303285344,0.0559661836302568
38.77378,6.823314680199096,0.0555156401819873
38.778388,6.82299545042696,0.0550697595728874
38.782976,6.820755167045383,0.0546328169852639
38.787576,6.811607918959542,0.054233143820677
38.792172,6.796575325331232,0.0538641695797336
