Time,Force,Position
3.631315999999998,0.14086953452456777,0.0
3.635907999999999,0.13804904646747854,0.0
3.6404919999999983,0.13432912396274146,0.0
3.6450799999999983,0.12484604062968027,0.0
3.6496799999999983,0.11691745676362343,0.0
3.654264,0.11168717624051017,0.0
3.658864,0.10226342926362025,0.0
3.6634559999999983,0.09206243255322816,0.0
3.6680439999999983,0.08443755447163395,0.0
3.672647999999999,0.07489162278059837,0.0
3.67724,0.06342463748012143,0.0
3.681831999999998,0.0559219441126729,0.0
3.686416,0.0504624890688114,0.0
3.691016,0.0414052962343585,0.0
3.6955959999999983,0.036190210618788354,0.0
3.700192,0.030975125003218206,0.0
3.704787999999999,0.028580527444737283,0.0
3.709387999999999,0.02360981125745848,0.0
3.7139719999999983,0.016595856746592627,0.0
3.718563999999999,0.01228020557867033,0.0
3.7231599999999982,0.008986173572541558,0.0
3.727751999999999,0.006347206585769294,0.0
3.732344,0.0037082395989970294,0.0
3.736939999999999,0.001968707059872617,0.0
3.741527999999999,0.00047354394903954697,0.0
3.7461119999999983,0.0,0.0
3.7506999999999984,0.0,0.0
3.7552999999999983,0.0,0.0
3.759891999999999,0.0,0.0
3.764479999999999,0.0,0.0
3.769072,0.0,0.0
3.77366,0.0,0.0
3.7782519999999984,0.0,0.0
3.7828399999999984,0.0,0.0
3.7874279999999994,0.0,0.0
3.792024,0.0,0.0
3.796612,0.00010698980660253318,0.0
3.8012039999999994,0.0031566523844399636,0.0
3.8058,0.012991094952395038,0.0
3.810383999999999,0.025768210291585006,0.0
3.8149919999999984,0.04058856395436202,0.0
3.819583999999999,0.05246624484590414,0.0
3.824188,0.06728659850868116,0.0
3.828764,0.08402800578089956,0.0
3.833364,0.0998699786054701,0.0
3.8379439999999994,0.10917154086821435,0.0
3.842547999999999,0.12219302563569565,0.0
3.847135999999999,0.13227183763194206,0.0
3.851735999999999,0.14067396544703845,0.0
3.8563199999999984,0.14895390854798918,0.0
3.860911999999999,0.15747822107723122,0.0
3.8655079999999984,0.1662469030347646,0.0
3.870104,0.17399396583050447,0.0
3.874692,0.18264046307389226,0.0
3.8792839999999984,0.18846647226019075,0.0
3.8838719999999984,0.1951919158941371,0.0
3.888463999999999,0.20181036972148095,0.0
3.893051999999999,0.2053639660634442,0.0
3.897651999999999,0.20025587025447655,0.0
3.902239999999999,0.19654618738147825,0.0
3.9068239999999994,0.19877623113131673,0.0
3.911415999999999,0.21851646460926827,0.0
3.916003999999999,0.24244169726338904,0.0
3.920603999999999,0.272961721559703,0.008054378275853754
3.925191999999999,0.3148180791647408,0.015992625169808407
3.929784,0.3745511806403288,0.023779199276639795
3.934372,0.436259716805725,0.03191135750189919
3.93896,0.5104483901557842,0.04001555935380943
3.943555999999999,0.5972835268532803,0.04807795054197019
3.948143999999999,0.6956993662877917,0.05600291422900246
3.9527319999999992,0.8059844193362379,0.06382248073812591
3.957327999999999,0.9281386859986184,0.07155615371603465
3.961919999999999,1.0625287204173708,0.07925178727717419
3.966515999999999,1.2055567848019033,0.08695933796633239
3.971091999999999,1.3618422361046012,0.09464788455552012
3.975679999999999,1.5246002943353465,0.10245212343779131
3.98026,1.6986946858748162,0.11020685712964884
3.98486,1.880405488218272,0.11804853429255965
3.989451999999998,2.0716876567920455,0.1258687576783692
3.994043999999999,2.262803499203045,0.133680475386682
3.998631999999999,2.4501891794775688,0.14140007076286698
4.003224,2.6228410166324405,0.1490625226090312
4.007812,2.789753355144139,0.15664873973519336
4.012407999999999,2.9490492828518504,0.15615799155778545
4.016995999999999,3.095987258089045,0.15584208563127924
4.021579999999998,3.2326105191793086,0.15564172865061
4.026167999999998,3.3617395541797315,0.15514155953625602
4.030755999999999,3.4805538750332237,0.15467906879088694
4.035347999999999,3.586843917253425,0.15427805767506877
4.039935999999999,3.679876572555461,0.15406186962400747
4.044528,3.7619394486912103,0.1539000056664571
4.049116,3.8285353734224334,0.15389212148765313
4.053707999999999,3.8796643467491307,0.1540178325026327
4.058295999999999,3.921378040376545,0.15411737804961576
4.062875999999999,3.9558418773424093,0.1541056598944275
4.06748,3.983422411789162,0.1539226775823833
4.072068,3.995946690422453,0.15390050017097973
4.076675999999999,3.999422243498899,0.15381278322372943
4.081271999999999,3.9927494085911888,0.15379381550035728
4.085859999999999,3.9801029452437513,0.1538351718663066
4.090456,3.962426429352864,0.1539801423383084
4.095047999999999,3.9402968826723663,0.15433236108382203
4.099644,3.915224663220634,0.15478597489641818
4.104223999999999,3.888597944301897,0.15525944800833588
4.10882,3.8641366484208923,0.15564333111857925
4.113408,3.8408191564158267,0.15596231426575247
4.118003999999999,3.823509194667377,0.15605520709144088
4.122591999999999,3.8100413401378104,0.15601917922348071
4.127191999999999,3.7993939736653317,0.1558960559302248
4.131775999999999,3.790789845516441,0.15569706479148923
4.136367999999999,3.777566360415164,0.15563265216075173
4.140963999999999,3.7696172972856306,0.15543647566720237
4.145555999999999,3.766942656127837,0.15510626096916716
4.150148,3.763490765236542,0.15478581818138254
4.154736,3.7540313440886313,0.15468351636388358
4.159324,3.746126422407725,0.15455875362603194
4.163915999999999,3.7414085429263446,0.15430380465946358
4.168503999999999,3.742087270130852,0.15390432375794247
4.1731,3.749062038468894,0.15333923903085736
4.177688,3.7560368068069363,0.1527670702280693
4.182288,3.7594138373543875,0.1522847321562666
4.186879999999999,3.770475082339603,0.15154073971225412
4.191459999999999,3.784112445953617,0.1507351860507737
4.196052,3.796483820977546,0.14999154655360092
4.200631999999999,3.807589207411391,0.14931586874994318
4.205215999999998,3.8174286052551505,0.14871813450537422
4.209828,3.8211382881281484,0.1483612796428908
4.214415999999998,3.8208836790681184,0.1481472255309434
4.219011999999999,3.820262515865651,0.14797699582596718
4.223595999999999,3.8186197335013903,0.1478445754397334
4.228183999999999,3.822373557823017,0.14756774894438712
4.232775999999999,3.8224074596399062,0.14740125411956775
4.237367999999998,3.8253840342280307,0.14713913984368765
4.241967999999998,3.8292600432638024,0.1468538145179876
4.246555999999998,3.8342798561755136,0.1465116303749401
4.251155999999998,3.8335365082589004,0.14635401157372174
4.255743999999998,3.833448225361644,0.14620097707128224
4.260339999999999,3.829884389387942,0.14612827491872757
4.264927999999999,3.8227228156236492,0.1461454428609013
4.269527999999999,3.8205471529541777,0.14599391322476787
4.27412,3.825566965865889,0.1456619718678915
4.278715999999999,3.8257230523969246,0.1454848521252857
4.283291999999999,3.8279223772515465,0.1452389170447306
4.287875999999999,3.8321649404297555,0.14492029385108368
4.292463999999999,3.838695111359843,0.14450356143330778
4.297059999999998,3.842771348375279,0.14412434100729296
4.301635999999999,3.8490130084284466,0.1436576248521772
4.306232,3.8553768531957604,0.1431744925126129
4.310815999999999,3.8610856329437175,0.14268797892685092
4.315411999999999,3.8706365199105575,0.14209155708752472
4.320003999999999,3.8794101571438944,0.1415100868912115
4.324587999999999,3.8881837943772317,0.14092128060329692
4.329187999999999,3.8893954018869508,0.1405473908254739
4.333775999999999,3.8903626399683775,0.14020118852719804
4.338367999999999,3.8940281813927475,0.13979003259938594
4.342951999999999,3.9015358300360004,0.13925890387457665
4.347539999999999,3.910964532288695,0.13867543029939605
4.352136,3.9181056267895102,0.13818797595802726
4.356719999999999,3.9248801671478892,0.1377423833868489
4.361307999999999,3.9265466116973005,0.1374751981478809
4.365903999999999,3.92575912233206,0.13724638160700386
4.370503999999999,3.9258710674144663,0.13699485279237625
4.375095999999999,3.9229181550114927,0.1368485401860854
4.379676,3.92020961203681,0.13667493491841215
4.384276,3.917134514919691,0.1365420237209956
4.388864,3.9156139172695754,0.13639468077708572
4.393459999999999,3.915647819086465,0.13623416564047156
4.398047999999999,3.918380024246298,0.13601389026947844
4.402647999999999,3.920090610244337,0.13582687515441894
4.407243999999999,3.916693100433409,0.1358066899073675
4.411835999999999,3.9093312986894526,0.13590711141220405
4.416419999999999,3.907854842487966,0.13583362510540678
4.421003999999998,3.9118971776865124,0.13562723293446471
4.425604,3.9188821856562934,0.13533811412586744
4.430195999999999,3.9279104319496607,0.13498993064963752
4.434783999999999,3.9379602974048225,0.13461224163124844
4.439371999999999,3.9450674900887486,0.1343188792987374
4.443959999999999,3.954217921096262,0.1339596828666914
4.448555999999998,3.9616916679226257,0.13362275849212776
4.453143999999998,3.9723524569485145,0.1331755243914866
4.457739999999999,3.9807256382225265,0.13281738611651603
4.462335999999999,3.9930631114295667,0.1323476549369397
4.466923999999999,4.00360171574131,0.13191295841274556
4.471515999999999,4.015694819520059,0.1314715007098212
4.476095999999998,4.027132858279451,0.13102537839757625
4.480687999999999,4.037016397571838,0.1305886990522424
4.485283999999998,4.045467622111368,0.13015444129579412
4.489871999999998,4.0504432935744505,0.12978204020415898
4.494479999999999,4.057462203361122,0.12934846440917383
4.499071999999998,4.070733012832698,0.12872073487623178
4.503659999999998,4.087068679789656,0.12799397111894043
4.508251999999999,4.099440054813584,0.1273896303006919
4.512839999999999,4.111156364818157,0.12678532495185119
4.517443999999999,4.120174371479787,0.1262396612423076
4.522039999999999,4.124328651760739,0.12581817247527557
4.526631999999999,4.1257846286987485,0.12544682169409307
4.531211999999998,4.127484975065048,0.1250491414399563
4.535811999999998,4.132127994202585,0.12458082392017047
4.540399999999998,4.137137567482557,0.12407120323270313
4.544999999999998,4.1411255216007365,0.12359321461177378
4.549587999999998,4.148178333204296,0.12302760967278288
4.554188,4.151389037588973,0.12255603482844812
4.558771999999999,4.1567651650113815,0.1220133081204472
4.563363999999998,4.161730596842726,0.12144369721692842
4.567964,4.167595463121718,0.12086104958651532
4.572559999999999,4.173993209705921,0.12029511100553673
4.577147999999999,4.178347717966537,0.11978392548752492
4.581743999999999,4.187565952607829,0.11916139367980443
4.586331999999999,4.197561436982624,0.11854291111305032
4.590919999999999,4.202693194976742,0.11804269331523508
4.595507999999999,4.210767625742095,0.11748086777289571
4.600103999999998,4.217043187612152,0.11694598490960069
4.604691999999998,4.221153326444477,0.11647640974872532
4.609276,4.221543542772065,0.11607327698494911
4.613867999999998,4.2239769974232395,0.11561545432513173
4.618443999999998,4.229886005150861,0.11511186214364279
4.623035999999999,4.236450077897837,0.11461691981931224
4.627619999999999,4.2374953592447815,0.11422210131943127
4.632207999999999,4.242016193668171,0.11378278442138365
4.636807999999999,4.2446159744821195,0.11338257945344264
4.641392,4.2455390711149175,0.11299975312571628
4.64598,4.244663298852421,0.11264243862205471
4.650583999999999,4.241744288266336,0.112336639354843
4.65518,4.239113788557171,0.11207798758096583
4.659783999999998,4.23276336634327,0.11188642666908338
4.664359999999999,4.227923302147744,0.1116206146135849
4.668956,4.222183803504569,0.11136684867943927
4.673539999999999,4.213135077947723,0.11121514673649349
4.678139999999999,4.199344810724348,0.11115650047215284
4.682723999999999,4.186453977948621,0.11108280534506818
4.687323999999999,4.170376102973366,0.11109509447746821
4.691915999999999,4.160183573540581,0.11097688478777609
4.696508,4.14933597908844,0.11084810492980492
4.701096,4.143884991322186,0.11063834058998787
4.705687999999999,4.139455622717726,0.11040336081188497
4.710272,4.131428516322674,0.11022093459154292
4.714863999999999,4.125689017679501,0.10996541411252707
4.719451999999999,4.124568875988712,0.10963314214271896
4.724043999999999,4.122671484564421,0.10930418158908277
4.728623999999998,4.122572962035426,0.10894881399134887
4.733215999999999,4.126849427030524,0.10854611652620072
4.737807999999999,4.13791067201574,0.10801507854002194
4.742395999999999,4.154857262543427,0.10737257202008942
4.746987999999998,4.167673234975309,0.10675550670099823
4.751575999999998,4.1831875107501375,0.10609853336738388
4.756167999999999,4.202421709029702,0.10539647157433635
4.760763999999998,4.228318502585237,0.10458588002635724
4.765348,4.254215296140774,0.10377528847837812
4.769959999999999,4.284076381629339,0.10288248758212391
4.774543999999999,4.309195925451374,0.10205991956603497
4.779155999999999,4.33173935064461,0.10125491481689025
4.783735999999999,4.345454757524141,0.1006248459747618
4.788323999999999,4.3628900869084095,0.09994008422800607
4.792915999999998,4.3750509943209375,0.09931109480742506
4.797516,4.3863124672858165,0.09869807443704169
4.802107999999999,4.404358720240814,0.09797055924541286
4.806704,4.418562865976929,0.09731300813119918
4.811295999999999,4.427003850884718,0.09675231462928023
4.815883999999999,4.431602728573626,0.09625594836922144
4.820483999999999,4.43824484458612,0.09571943870221986
4.825059999999999,4.436669865855638,0.09528835302385125
4.829651999999999,4.43023116074448,0.09494445145393304
4.834235999999999,4.417007675643204,0.09471447749025476
4.838828,4.40623812445658,0.09447507403179653
4.843419999999998,4.396856746574186,0.09418088945044226
4.848011999999999,4.381467838435178,0.09399882454476956
4.852599999999999,4.359416335020198,0.09391377040492094
4.857195999999998,4.335033082404711,0.09382364769987175
4.861787999999999,4.307951526446279,0.09375846531772034
4.866371999999998,4.286633131316173,0.09360333805830844
4.870956,4.27222170089033,0.09332548081884307
4.875556,4.261119497378159,0.09296124144254943
4.880147999999998,4.244254133037663,0.09268510193414943
4.884735999999998,4.232907560097201,0.09233954471151284
4.889327999999999,4.220661552709091,0.09200153462895104
4.893908,4.1990546467020655,0.09178563629786755
4.898491999999999,4.18218928236157,0.09150044524687365
4.903087999999999,4.1712092635635445,0.09111626004895497
4.907675999999999,4.164970786432049,0.090664950648012
4.912272,4.155134571509962,0.09024783635250988
4.916855999999999,4.1509393327020545,0.08975341495102873
4.921439999999999,4.147643528341795,0.08924957241214893
4.926036,4.148067646486271,0.08869840939249361
4.930624,4.149513383792541,0.088129381799747
4.935224,4.150592566956376,0.08759715448869233
4.939799999999998,4.151793934834354,0.08704940742427365
4.944395999999999,4.159535713274159,0.08642390878624277
4.948983999999999,4.171774663952204,0.08575843761667135
4.953583999999999,4.189532406030282,0.08504113201457664
4.958171999999999,4.2080673978418615,0.08433568686779992
4.962771999999999,4.221249924416182,0.08375159909902902
4.967351999999998,4.236642015476863,0.08318866809721455
4.971947999999999,4.258941071241808,0.08252177051449322
4.976531999999999,4.27739801978787,0.08190841944661995
4.981123999999999,4.29843108696273,0.08128906555109633
4.985715999999998,4.32563801055698,0.0806273206592917
4.990307999999999,4.350801695827641,0.08001300465850604
4.994895999999999,4.373799958060572,0.07945089671325796
4.999488,4.396676035579356,0.07890862612959579
5.004071999999999,4.426869773393467,0.0783164561308893
5.008664,4.456819141779289,0.07775132890071923
5.013255999999998,4.48676851016511,0.07718953912717719
5.017831999999999,4.514919009655635,0.07664298388604052
5.022411999999999,4.543313878574452,0.0760838372015014
5.026999999999999,4.572730366655063,0.07551735346548974
5.031587999999999,4.603046289183321,0.07494236957435998
5.036195999999999,4.625800181987958,0.07444427389970643
5.040783999999999,4.646633021183155,0.07397249285872447
5.045368,4.659659461226441,0.07359405908358328
5.049959999999999,4.670109782640929,0.07322389216462419
5.054556,4.679249974016703,0.07282156688463266
5.059159999999999,4.6904334037160655,0.07239372180119841
5.063744,4.7023940831489295,0.07198053257408302
5.068339999999999,4.719096304248325,0.07152733386826944
5.072915999999999,4.731056983681189,0.07111627706020884
5.077515999999999,4.7423625980946955,0.07069473055044037
5.082095999999998,4.750070474717612,0.0702903475318662
5.086683999999998,4.756878916892879,0.06989001806193133
5.091268,4.76111124043935,0.06949499679268771
5.095859999999998,4.7540616117574634,0.06918857632560164
5.100451999999999,4.746479102770367,0.06885807665659022
5.105044,4.741717081840359,0.0685079000797923
5.109632,4.738753929805647,0.06815005986436576
5.114227999999999,4.731826485837906,0.06783416912669632
5.118808,4.720035315489487,0.06756418513155928
5.123391999999999,4.71412949068354,0.06723663220770534
5.127975999999999,4.715130630581856,0.06683776297440278
5.132563999999999,4.713311282423083,0.06645666097654371
5.137148,4.71737727980678,0.06601621750252137
5.141736,4.722098342209833,0.06559091457526814
5.146331999999999,4.7292733385275385,0.06517246536192095
5.150907999999999,4.7338722162164455,0.06475826239919905
5.155495999999999,4.731686313915235,0.06440464277931403
5.160087999999998,4.728723161880524,0.06404843936272901
5.164672,4.7306237362264865,0.06364975762569626
5.16926,4.7306032569630085,0.06326652007656491
5.173851999999998,4.734058330775977,0.06288005122067265
5.178448,4.736736154855444,0.062485454241228255
5.183043999999999,4.737248555897176,0.06212143683395462
5.187619999999999,4.744301367500736,0.061716001778752486
5.192224,4.7500881905142105,0.0613415796186282
5.196803999999998,4.748312983804064,0.06101556107050699
5.2014,4.744616723484478,0.06070418449676689
5.205988,4.748482492888511,0.060346341806543406
5.210588,4.755413119777925,0.05995158747209298
5.215171999999999,4.752738478620133,0.05962811738345093
5.219764,4.746099545529311,0.05934249762436534
5.2243559999999984,4.745223773266814,0.0590163481712728
5.228952,4.741405328233082,0.058715487928776636
5.233543999999998,4.738730687075289,0.058395052760996775
5.238135999999999,4.740020337850524,0.05804271345263441
5.242723999999999,4.742209423073407,0.05768996418216939
5.247319999999998,4.744520693010436,0.05732424143415969
5.251895999999999,4.742867671014437,0.05699303746119154
5.256492,4.738394160961349,0.05667646142734905
5.261075999999999,4.735841704517702,0.056347912142559936
5.265659999999999,4.73365580221649,0.05599404252361568
5.270243999999998,4.736089256867666,0.05562560540436186
5.274831999999998,4.744530241775456,0.05520610411819891
5.279423999999999,4.75117235778795,0.05479003223629021
5.284007999999998,4.76075714657168,0.05435468264875914
5.288583999999998,4.774961292307794,0.053900826522971644
5.293175999999999,4.788510373024551,0.05342909108207719
5.297771999999998,4.790655316798807,0.053013661316685994
5.302347999999999,4.791778641411269,0.052608021459404915
5.306951999999999,4.798542942137908,0.05217609585558832
5.311544,4.804163438988609,0.051761083237242156
5.316144,4.804920209458634,0.051378869319511834
5.320732,4.8040002957475085,0.05098651105992318
5.325332,4.799360459531646,0.05060472894564088
5.329908,4.788180212753957,0.05024545427300845
5.334503999999999,4.771236805147944,0.04991308851149735
5.339099999999998,4.755192831989579,0.04957663575516376
5.343679999999999,4.737227805221773,0.04924616642438878
5.348272,4.71439905207329,0.04894111838744123
5.352863999999999,4.684663334220544,0.048682874177092716
5.357451999999999,4.6480206516635345,0.04847072122824496
5.362051999999999,4.6020170704876096,0.04828658450466891
5.366627999999999,4.5479627207314826,0.04816890608046702
5.371212,4.492886751813562,0.04805702797441558
5.375799999999998,4.426406645953138,0.04799455258500757
5.380395999999999,4.355184998426184,0.047953008688142715
5.384983999999999,4.281797927861497,0.04793726694407713
5.389563999999998,4.212252964515693,0.04789963767270715
5.394151999999998,4.138621524522716,0.04790537386230211
5.398727999999998,4.05844967396791,0.047930358379456986
5.403319999999999,3.9766011392319562,0.047942836829175314
5.407907999999999,3.890910497277119,0.047979236454511374
5.412495999999999,3.801011193960962,0.048079401404172585
5.417079999999999,3.7089464676070723,0.048215950447670894
