Time,Force,Position
4.07264,0.2570228985808136,0.0
4.077232000000002,0.2650736671610161,0.0
4.081811999999999,0.26736127491289446,0.0
4.086412000000003,0.2722250012935707,0.0
4.091000000000001,0.27811034683604047,0.0
4.095600000000005,0.27925415071197973,0.0
4.100183999999999,0.2746347937595948,0.0
4.104779999999998,0.27091487125485775,0.0
4.109360000000002,0.2642522759788858,0.0
4.113956000000002,0.24941672740856557,0.0
4.118552000000001,0.23253794051465837,0.0
4.1231480000000005,0.21488190388724898,0.0
4.127735999999999,0.193500910084903,0.0
4.13232,0.17481821962550056,0.0
4.136907999999998,0.15961611691274338,0.0
4.141508000000002,0.14699013282878412,0.0
4.146092000000003,0.1392278751255011,0.0
4.150683999999998,0.13170998685050941,0.0
4.155276000000001,0.12455865271795477,0.0
4.159863999999999,0.1167522535660436,0.0
4.164456000000001,0.10984528886178029,0.0
4.169044,0.09819678249098637,0.0
4.173639999999999,0.08756486061178645,0.0
4.178235999999998,0.07615568899908433,0.0
4.182824000000004,0.06474651738638221,0.0
4.187432000000001,0.054236780221327933,0.0
4.192019999999999,0.04756915027515641,0.0
4.196607999999998,0.04090152032898489,0.0
4.201204000000004,0.036154943992254746,0.0
4.205795999999999,0.03549484430269869,0.0
4.2104,0.034956929327288305,0.0
4.214992000000002,0.03429682963773225,0.0
4.219596000000003,0.03429682963773225,0.0
4.224172000000003,0.03429682963773225,0.0
4.228771999999999,0.033636729948176194,0.0
4.233359999999998,0.031177761363324438,0.0
4.237960000000001,0.025776120007237783,0.0
4.242552000000003,0.020252293937005453,0.0
4.247152,0.013584663990833933,0.0
4.251736000000001,0.007694283778164591,0.0
4.256328000000003,0.0019260882796409212,0.0
4.260924000000003,0.0,0.0
4.265520000000002,0.0,0.0
4.270124000000003,0.0,0.0
4.274715999999998,0.0,0.0
4.279308,0.0,0.0
4.283900000000003,0.0,0.0
4.28848,0.0,0.0
4.293064000000001,0.0,0.0
4.297643999999998,0.0,0.0
4.302228,0.0,0.0
4.306823999999999,0.0,0.0
4.311404000000003,0.0,0.0
4.315995999999998,0.0,0.0
4.320584000000004,0.0,0.0
4.325160000000004,0.0,0.0
4.329764000000004,0.0,0.0
4.334352000000003,0.00012721938434521812,0.0
4.338956000000003,0.0013982426446296303,0.0
4.3435520000000025,0.0017698314572661914,0.0
4.348148000000002,0.006882961936433353,0.0
4.352744000000001,0.013917146025041887,0.0
4.357336000000004,0.021850764561298273,0.0
4.361940000000004,0.02864057922161547,0.0
4.366528000000002,0.035308209167786986,0.0
4.371124000000002,0.039277535771014956,0.0
4.375700000000002,0.042103058498303716,0.0
4.380299999999998,0.0496701228921231,0.0
4.384884,0.05993549062888603,0.0
4.389484000000003,0.06917923920385542,0.0
4.394075999999998,0.08430833332129463,0.0
4.398671999999998,0.09943742743873382,0.0
4.403260000000003,0.1198850849765426,0.0
4.407851999999998,0.14328565491732506,0.0
4.412452000000002,0.17058271315735812,0.0
4.417051999999998,0.2079501161160302,0.0
4.421640000000004,0.25767547154521964,0.006626744499939658
4.426236000000003,0.3129689647846092,0.013838670076861057
4.430824000000001,0.3773111835808442,0.021164200870947333
4.435416000000004,0.448903259038629,0.02889841054493053
4.440004000000002,0.5223485844720764,0.036904075607278215
4.444596000000004,0.6013670823859236,0.04507815078042836
4.449192000000004,0.6859587527801704,0.053481599511689654
4.453780000000002,0.7841743642350195,0.061629841453498216
4.458372000000004,0.8902507559221466,0.06984755786754905
4.462952000000001,1.0072969267755607,0.07815181992521437
4.467544000000004,1.1371897889560747,0.08628230538068299
4.472135999999999,1.2662375977693079,0.09466296060606302
4.476724000000004,1.4022467523671711,0.10299200297858982
4.481320000000004,1.548037740806754,0.1113099675503132
4.485908000000002,1.694660360060206,0.11971856011571937
4.4905120000000025,1.8488993901176447,0.12817819710055783
4.495103999999998,2.0040819960713594,0.136600493490033
4.499692000000003,2.162896241632555,0.14486256317915008
4.5042880000000025,2.320390117523298,0.15305422414282002
4.508879999999998,2.4683023875519843,0.16118542065153052
4.513472,2.6032016400907967,0.16268753845614142
4.518059999999998,2.736003273225655,0.16349495385048793
4.522660000000002,2.8604112458230255,0.1641355585651682
4.527239999999999,2.98051203453008,0.1642864659584202
4.5318400000000025,3.0958169004902376,0.16411501243198068
4.536431999999998,3.205304224541704,0.16373924765402018
4.541028000000004,3.3103621799887093,0.16305708934594615
4.545608000000001,3.4029399982510515,0.16263013782732486
4.550204000000001,3.4926429473759377,0.16197483200083063
4.554791999999999,3.577916527896364,0.16111652227992965
4.559387999999998,3.6502212323755443,0.16049377801192954
4.563976000000004,3.7232488055078603,0.15949831337084175
4.568572000000003,3.7844513064748684,0.15863676430560902
4.5731600000000014,3.839469711390749,0.1577340968634584
4.577752000000004,3.8884262049696487,0.15674507232044693
4.582343999999999,3.9306657221922077,0.15568366373706813
4.586939999999999,3.9672981651174792,0.1546638880400098
4.591532000000001,3.9960800674422106,0.1538641179689003
4.596124000000003,4.024329089461731,0.15306654732524705
4.600720000000003,4.050168319015228,0.15238480652634642
4.6053,4.076540428873935,0.15171824383980334
4.609892000000002,4.102379658427431,0.15105937683778867
4.614471999999999,4.12924050714272,0.15037954329484937
4.619060000000005,4.157000790305658,0.14969626334292638
4.623656000000004,4.180263901230356,0.14912357477615173
4.628239999999998,4.2004180132210465,0.14858996672043662
4.632828000000004,4.221349374945239,0.1480609969561973
4.637424000000003,4.242402921383577,0.14751977580237663
4.642012000000001,4.254750634222356,0.14724244205915246
4.6466080000000005,4.2615795556611005,0.14711018631652806
4.651195999999999,4.26889721595643,0.14692427472481284
4.655791999999998,4.271839888727664,0.14683556456296587
4.660372000000002,4.281034461183806,0.14653354698718637
4.664971999999999,4.285076796382351,0.14633130220382612
4.669556,4.286909567094536,0.14614030110711934
4.6741600000000005,4.28628840389207,0.14598638282647403
4.678752000000003,4.284479295365035,0.1458106060234908
4.683340000000001,4.28520216401817,0.14551652653774416
4.687932000000004,4.281960740738277,0.14534430196627768
4.692528000000003,4.282805794105558,0.14503782002291463
4.697116000000001,4.2822185327199795,0.14473364818025042
4.701712000000001,4.275868110506079,0.14459312551039785
4.706299999999999,4.262322212710995,0.14462020850782692
4.710884,4.244034773249379,0.1447756204169258
4.715471999999998,4.230366690740149,0.14481424433699225
4.720072000000002,4.222750279936162,0.14473082533130258
4.72466,4.212557750503376,0.14469408496062958
4.7292520000000025,4.203386840232385,0.14462363900579905
4.733836000000004,4.199201841056216,0.14440272767935391
4.738424000000002,4.198492394956492,0.14411368816021097
4.743016000000004,4.202402305809155,0.14371497625699986
4.747604000000003,4.2052905975000225,0.14334821940160938
4.752192000000001,4.200372490038979,0.1432019424793849
4.756799999999998,4.200728804549677,0.14294995670266314
4.761392000000001,4.2036612376891735,0.14265111334403002
4.765999999999998,4.209047604743321,0.14231769335545313
4.770588000000004,4.215988471264475,0.14197100936323676
4.775196000000001,4.222684968357336,0.14165230730379144
4.779783999999999,4.232446322935577,0.1412377099123604
4.784371999999998,4.243762176980824,0.14081918836855062
4.788968000000004,4.258309214674226,0.14036257774385244
4.793559999999999,4.27273406765348,0.1399081944329664
4.798164,4.2896128545473875,0.13940797302392474
4.802751999999998,4.308412695050736,0.13885194096436854
4.8073440000000005,4.323614797763493,0.13837719512792943
4.811931999999999,4.331499240180922,0.13807661715769148
4.816532000000002,4.336318825112969,0.137870867130527
4.821111999999999,4.33909517172143,0.13773035925227783
4.825712000000003,4.3416271489016,0.13761602399550096
4.830296000000004,4.340561388291179,0.13757993167999127
4.834892000000004,4.333077401833076,0.13769198673365787
4.839483999999999,4.329313337879711,0.13771322388993038
4.844079999999998,4.3323340539164645,0.13755079489308344
4.848668000000004,4.331101967143269,0.13745936581579654
4.853264000000003,4.3281931961889235,0.13739336457692575
4.857852000000001,4.3245071755010756,0.1373337914214199
4.862444000000004,4.318000666756138,0.1373430262249474
4.867035999999999,4.3109612777059905,0.13733281476186246
4.871624000000004,4.3029002694940495,0.13735239208990596
4.876212000000002,4.287765970415071,0.13750601005268118
4.880808000000002,4.272220975745027,0.13762550218693667
4.885400000000004,4.259740838560364,0.1376558238819407
4.889988000000002,4.252368797184668,0.13753338008153315
4.894579999999998,4.24703999413256,0.13735045730193407
4.899168000000003,4.244653863851687,0.1370896208231714
4.903759999999998,4.244555341322692,0.1367426225797674
4.908355999999998,4.2487876648691625,0.1362496295548423
4.912948,4.2542859770057175,0.135701684046148
4.9175400000000025,4.259373593551207,0.13512565368618154
4.922131999999998,4.268669871458017,0.13442004805884147
4.926728000000004,4.283729310193151,0.13357512880634564
4.931324000000004,4.292248338366458,0.1328763561756667
4.935920000000003,4.297169628749175,0.13225254074837126
4.940519999999999,4.3041341574554774,0.13156932597888668
4.945112000000002,4.313019739771222,0.13084202149723512
4.949708000000001,4.3240707451247,0.13005149192024462
4.954292000000002,4.339330411839496,0.12913769197952868
4.958891999999999,4.3580656316307405,0.12818498038093934
4.963480000000004,4.37434691750733,0.1272528658850752
4.9680800000000005,4.393082137298573,0.12628338498995767
4.972664000000002,4.407198000137431,0.12540488879668216
4.977263999999998,4.425278154909317,0.12444007644565999
4.981847999999999,4.440415636909969,0.1235583945731466
4.986440000000002,4.4499121427964425,0.12279260572304865
4.991028,4.460552452558854,0.12199775406609961
4.995623999999999,4.47274726178827,0.12119850022679589
5.000211999999998,4.480733409656368,0.12051605203871406
5.004804,4.488597372810318,0.11984706100911342
5.009396000000002,4.496216966535979,0.11920327791880156
5.013980000000004,4.5026927563856995,0.11860412203734094
5.018560000000001,4.504182635140597,0.11812389647730445
5.023152000000003,4.508737371380876,0.11756165266822982
5.0277480000000025,4.51316992290701,0.11700958466204255
5.032339999999998,4.516336485843058,0.11650609830584718
5.036936000000004,4.517581995169666,0.11604348004943181
5.041512000000004,4.517928070048626,0.11559884561697621
5.046108000000004,4.514187668280411,0.115254346532799
5.050691999999998,4.505705724845666,0.11500063813679784
5.055280000000003,4.502620388096807,0.11466673997439411
5.059891999999998,4.501822659099828,0.11426254044422603
5.064467999999998,4.508464775112323,0.11373291210976774
5.0690680000000015,4.5101209800299955,0.11331580746216595
5.073660000000004,4.511899369661814,0.1128886044184161
5.078251999999999,4.521239789017252,0.11233000893561922
5.082856,4.528170415906665,0.11185420587093094
5.087448000000002,4.534323793062575,0.11138232353154143
5.092044000000001,4.545585266027456,0.1107971174026988
5.096632,4.55672455427819,0.1102238408937715
5.101232000000003,4.570684330586013,0.1096110161383585
5.105812,4.582600868570249,0.1090444875058526
5.110408,4.594761775982775,0.10845190093722241
5.114995999999998,4.6094988020241,0.10783873253763411
5.119596000000001,4.625912512246575,0.10721454837129381
5.124180000000003,4.645268895240285,0.10653873281794576
5.128776000000002,4.666424147129291,0.10584265493177342
5.133364,4.684392356818771,0.10522338769155765
5.13796,4.7051810545653385,0.10455984758287173
5.142547999999998,4.726336306454345,0.10386427908477863
5.147144000000004,4.744671070286262,0.10322098816626961
5.151732000000003,4.764804703013473,0.10256753940509492
5.156320000000001,4.777254121302921,0.10204195415410576
5.160907999999999,4.793667831525394,0.10144896070403311
5.165503999999999,4.808282672852576,0.1008766069074087
5.170092000000004,4.8181559725132255,0.10038148177827415
5.174696000000004,4.827496391868663,0.09986579602673017
5.179288,4.838513495405251,0.09934455671843216
5.183875999999998,4.849941294532903,0.0988616345259257
5.188468,4.8627572669647865,0.09833309677473656
5.193055999999999,4.873652185787229,0.09783930148162112
5.197651999999998,4.88401422430446,0.09732354022359885
5.202244,4.897441120307072,0.09675264609643211
5.206836000000003,4.908414082395033,0.09619251725445646
5.211444,4.916033676120693,0.09564705787776534
5.2160319999999984,4.918012293732174,0.09517262821617495
5.220620000000004,4.918314227162505,0.09470653772725392
5.225216000000003,4.919759964468775,0.09420977591805306
5.2298040000000015,4.919651202308041,0.09371155469521349
5.234408000000002,4.918276451557223,0.093249179478691
5.239000000000004,4.916246635787048,0.09277538024055193
5.243603999999998,4.908331474474402,0.09239133430446932
5.248184000000002,4.90732327786602,0.09189929533084162
5.252783999999998,4.901695724305252,0.09145933880076355
5.257364000000003,4.8986442893732836,0.09100414082544898
5.261963999999999,4.894693419993669,0.0905548575751329
5.266556000000001,4.891886354489991,0.09007764362305606
5.271152000000001,4.882783247852779,0.08965385053622421
5.275748,4.869671707833911,0.08923028662869263
5.2803400000000025,4.852595875882013,0.08886449620698116
5.284924000000004,4.831267241120168,0.08851473232745086
5.289512000000002,4.810593671377679,0.08817391940761914
5.294108000000001,4.789553547492752,0.08786059874631588
5.298704000000001,4.768269054179536,0.08756415793523285
5.303291999999999,4.751603917818702,0.0872189612587242
5.307884000000001,4.742745180609782,0.08676661690294338
5.312463999999999,4.736584746743804,0.08629365243156605
5.317064000000002,4.7337335397915,0.08575323139326896
5.321652,4.731659582572697,0.08521527458046577
5.3262360000000015,4.732650482839274,0.08462829774981863
5.330832000000001,4.734663002267644,0.08402571543962545
5.335419999999999,4.738185879714391,0.0833637912315027
5.340020000000003,4.736967215494606,0.08275575928910203
5.344596000000003,4.735626366560678,0.08215347422562035
5.349176,4.73170939899795,0.081559805049423
5.3537880000000015,4.730735104206458,0.08092794371854152
5.358376,4.7284948208248805,0.08033062334140091
5.362971999999999,4.734838186328717,0.07964168116752716
5.3675600000000045,4.7399155632424685,0.07898271163560873
5.372148000000003,4.750756100984544,0.07826220183937112
5.376752000000003,4.764050572641271,0.07753852892024299
5.381340000000002,4.778488848173938,0.07679104587470599
5.385936000000001,4.789573755344304,0.0760465089047983
5.390523999999999,4.802579716124113,0.07528337448109838
5.395124000000003,4.811865754399184,0.07455461710917466
5.399715999999998,4.816410251007723,0.07387850460637495
5.4043160000000015,4.816579760092171,0.07321824628480082
5.408895999999999,4.812418423101152,0.07263504530158116
5.413496000000002,4.811199758881369,0.0720231402968231
5.418080000000003,4.809981094661584,0.07141453838153655
5.422668000000002,4.8065970074040685,0.0708409844608632
5.427260000000004,4.805789038775351,0.07026388241752142
5.431856000000003,4.807557188775429,0.06968332226537909
5.436452000000003,4.8102247732231564,0.06909611119849617
5.441051999999999,4.815590661013827,0.06849702819490328
5.4456440000000015,4.819157679909203,0.06790766840606204
5.450236000000004,4.825423002147521,0.06730903563747646
5.454824000000002,4.824903544395723,0.0667753562038957
5.459412,4.828881258882163,0.06622356280598711
5.4639919999999975,4.829671931169077,0.0657225219054942
5.468584,4.831728592046075,0.06519116707224654
5.473179999999999,4.833540883494782,0.0646788494854192
5.4777679999999975,4.836907674410495,0.06417554028059386
5.482368000000001,4.842317703649793,0.06365375287901014
5.486947999999998,4.849648786498532,0.06311695053285088
5.491528000000002,4.85649113049069,0.06261502704950449
5.496124000000002,4.866686842845148,0.062119757445353425
5.500712,4.879947412684986,0.0615901825197403
5.505312000000004,4.885279398658768,0.06113471531302532
5.509903999999999,4.885747658251874,0.06071728127117305
5.514492000000004,4.893777947568599,0.060258121957253566
5.519088000000004,4.899764998561737,0.05982283956492939
5.523684000000003,4.903175930926077,0.059385484645216285
5.528288000000003,4.906831232718707,0.058929743768028106
5.532879999999999,4.909831469491982,0.05846058253265234
5.537472000000001,4.912587336836967,0.0580083785966221
5.542051999999998,4.909946597496063,0.05756592651287566
5.546652000000002,4.910903595945751,0.05711514100109812
5.551228000000002,4.90928447576664,0.05666197185187645
5.555827999999998,4.9061108561205256,0.056192959681897484
5.560412,4.900527444008386,0.05576983243109216
5.565004000000002,4.895188401324537,0.055329073887319294
5.569596000000004,4.8907487930883375,0.05488622043984511
5.574192000000004,4.8786249704143705,0.05448724122467127
5.578780000000002,4.867034028045616,0.05411361831965778
5.583372000000004,4.855809639819298,0.05371185330486419
5.5879600000000025,4.841886948250037,0.053312078099913396
5.592544000000004,4.8266982680906905,0.052939547880532
5.597135999999999,4.815596064578519,0.05252338110143806
5.601724000000004,4.808213783571084,0.05209127088144613
5.606316,4.789305180907,0.051722535268410655
5.610903999999998,4.767453905471682,0.05137031030094082
5.615496,4.750099802274603,0.05101329094049923
5.620083999999999,4.735321817706322,0.05066242101439095
5.624679999999998,4.720055094281458,0.0503458948089157
5.629268000000003,4.704666186142448,0.05003647278207311
5.6338560000000015,4.690953962184588,0.049731106551227124
5.638448000000004,4.6762201190649355,0.049435063595181065
5.643036000000002,4.657399799298108,0.04917269643534583
5.6476280000000045,4.637313490941199,0.04893456155937054
5.65222,4.6173493672984325,0.04868508086227754
5.656812000000002,4.597795939246732,0.04847115360162125
5.6614040000000045,4.576199272871445,0.0482744052218646
5.666000000000004,4.55820034428675,0.04807406560741644
5.670604000000004,4.532517201264288,0.04791095428700366
5.675184000000002,4.50454645048995,0.047783743416373356
5.679780000000001,4.4763313302873176,0.04767349041343908
5.684359999999998,4.442597418684654,0.047571507218065
5.688968000000003,4.406575899330112,0.04750637306042074
5.693556000000001,4.3694105760996305,0.0474590825053148
5.698156000000004,4.336864609821534,0.047401824396813425
5.702748,4.307916381334028,0.04734391654912646
5.707343999999999,4.270262319246965,0.04733555058013909
5.711924000000003,4.226600726903285,0.04737708122668069
5.716515999999999,4.1762765392836325,0.047451910270329446
5.721119999999999,4.12403129805454,0.047536713197681456
5.725715999999999,4.0737071104348885,0.04760730739888457
5.730304000000004,4.013899839482175,0.047725944880541216
5.734892000000002,3.9608773485195803,0.04779859467017592
5.7394840000000045,3.9077326728428394,0.04788474952910754
5.744072000000003,3.8526669435566574,0.047981725930715355
5.748663999999998,3.7892619348133536,0.04810728859895411
5.753252000000003,3.72585692607005,0.04823413141940625
5.7578359999999975,3.6577103756602156,0.048387518920361194
5.762416000000002,3.5954491707928504,0.04849950571040084
5.767008000000004,3.5344539545155707,0.048574249819923726
5.771596000000002,3.4717820540571407,0.048635825251810975
5.776184000000001,3.412830076103447,0.04868376651223999
5.780776000000003,3.356165705901632,0.048677173255702366
5.785364000000001,3.297946836232813,0.04864010868253553
5.789968000000002,3.2379290976686983,0.04860205814057588
5.794564000000001,3.1743136213139924,0.04856252477450726
5.799151999999999,3.112863567997019,0.04848379572768558
5.803747999999999,3.049736830498895,0.04839618480290931
5.808343999999998,2.9924954385432416,0.04824997854168118
5.812947999999999,2.935254046587588,0.04810086491198072
5.817543999999998,2.873026743537113,0.04800764730393196
5.8221400000000045,2.818483654924403,0.04785619971348738
5.826715999999998,2.7571557863215754,0.04775805268086233
5.831316000000001,2.695050667985245,0.047644599980923144
5.835895999999998,2.634744418544211,0.047528983827439794
