Time,Force,Position
3.774356000000001,0.048619474764364776,0.0
3.778964,0.048619474764364776,0.0
3.783556000000001,0.048619474764364776,0.0
3.788144000000001,0.048619474764364776,0.0
3.79274,0.048619474764364776,0.0
3.797328,0.04727305654331267,0.0
3.801924,0.041062911941584304,0.0
3.806504,0.03407551760635376,0.0
3.811104,0.031052415204151626,0.0
3.815692,0.029950366411390872,0.0
3.820292,0.02909268704692146,0.0
3.824876,0.027335573234804195,0.0
3.829464,0.023535221099099887,0.0
3.834044000000001,0.019612684249249904,0.0
3.838628,0.016589581847047775,0.0
3.843224000000001,0.01074599138775642,0.0
3.8478119999999993,0.005801835376112917,0.0
3.8524,0.0009798640786150838,0.0
3.8569840000000006,0.0,0.0
3.861568,0.0032674718304934727,0.0
3.866164,0.009355431718076169,0.0
3.870752,0.012622903548569642,0.0
3.875328,0.022552970655035087,0.0
3.879912000000001,0.03158360331385268,0.0
3.884492,0.03893755179152024,0.0
3.889068,0.053076280259305456,0.0
3.893672000000001,0.06721500872709066,0.0
3.898260000000001,0.08315260609017157,0.0
3.902868,0.09819076900560463,0.0
3.90746,0.11196294333095282,0.0
3.912048,0.12855560571339025,0.0
3.916640000000001,0.1442488336481798,0.0
3.921240000000001,0.1572437582400258,0.0
3.925840000000001,0.1702386828318718,0.0
3.930436,0.1811903691001308,0.0
3.935036,0.19214205536838977,0.0
3.939624,0.20399317608429657,0.0
3.944224,0.21674373124785123,0.0
3.948812,0.22577436390666883,0.0
3.953408,0.22859485196375806,0.0
3.957996,0.22295387584957962,0.0
3.962592000000001,0.2201333877924904,0.0
3.967184,0.21020332068602496,0.0
3.971776,0.2016196718006116,0.0
3.976368000000001,0.19548995682985046,0.0
3.98096,0.18135122836206527,0.0
3.985564,0.16721249989428005,0.0
3.99016,0.15127490253119916,0.0
3.994752,0.1362367396157661,0.0
3.9993320000000008,0.1224645652904179,0.0
4.003920000000001,0.10587190290798047,0.0
4.008508000000001,0.0901786749731909,0.0
4.013088,0.07718375038134488,0.0
4.017672000000001,0.06418882578949889,0.0
4.022264,0.05323713952123993,0.0
4.0268440000000005,0.042285453252980956,0.0
4.031435999999999,0.03043433253707414,0.0
4.036020000000001,0.01768377737351946,0.0
4.040608000000001,0.008653144714701865,0.0
4.045216,0.0025651848271191673,0.0
4.0498080000000005,0.00211820105371492,0.0
4.054404,0.0016712172803106736,0.0
4.059000000000001,0.0016712172803106736,0.0
4.063588000000001,0.001224233506906427,0.0
4.0681840000000005,0.0,0.0
4.0727720000000005,0.0,0.0
4.077363999999999,0.0,0.0
4.081944,0.0,0.0
4.086544,0.0,0.0
4.091124000000001,0.0,0.0
4.095712000000001,0.0,0.0
4.100304,0.0,0.0
4.104900000000001,0.0,0.0
4.10948,0.0,0.0
4.114072,0.0,0.0
4.118676000000001,0.0,0.0
4.123268,0.0,0.0
4.127852000000001,0.0041637233564683135,0.0
4.132436,0.01774272641221908,0.0
4.137024,0.040081944147895794,0.0
4.141616000000001,0.07375749519229635,0.0
4.146208,0.11799212981191858,0.010710520783424765
4.150792000000001,0.173807467168556,0.020559001623613106
4.155384,0.24288019144335857,0.029704897975081725
4.159968000000001,0.32443305290282415,0.03840857874783021
4.1645520000000005,0.4166671826516572,0.04690405209673426
4.169144000000001,0.5184387768139183,0.0553423295414956
4.1737280000000005,0.6288484009419597,0.06378202420652584
4.178319999999999,0.744831197550401,0.07243672289629777
4.182904000000001,0.8723946968958572,0.08090087189258702
4.187492000000001,1.0112945295500373,0.08924671634478047
4.192084,1.16128632608465,0.09752954237263575
4.19666,1.3208155870326908,0.10578859343867834
4.201264,1.4879612587847184,0.11410618186891161
4.205844000000001,1.665377503235048,0.12230528668756703
4.21044,1.844925268906221,0.1305754162899284
4.215028,2.0325679446062246,0.13859226736182795
4.219624,2.216535635806343,0.14655002464504888
4.224208000000001,2.3923540358972635,0.15443747431020124
4.2288,2.561211090203553,0.16227328640241798
4.233392,2.7190983653435565,0.17006591846791175
4.237984000000001,2.8673259913559863,0.16712282390707942
4.242568,3.0002529921266636,0.1651586634841779
4.247160000000001,3.1171021179220864,0.16399155777924052
4.251748000000001,3.220816041513489,0.1632638026641541
4.256332,3.3139708815296713,0.16272928995607544
4.260916,3.3978326265607164,0.16222210221872194
4.2655080000000005,3.4752217646637136,0.16161627603185075
4.270099999999999,3.548303718876396,0.1607258440652158
4.274704,3.6108265895138576,0.15998611596667367
4.279296,3.660214257947299,0.1594155701603972
4.283875999999999,3.6980992669092423,0.15887523532917533
4.288468,3.7248923119907533,0.15838079034438904
4.293056,3.747133803753659,0.1577078237019439
4.297644,3.759226907532407,0.15713891463452073
4.302236000000001,3.7723755322898382,0.15636901652932034
4.306824000000001,3.7729320747801998,0.15597429380427025
4.311424000000001,3.7713231942328282,0.15567439520354254
4.316015999999999,3.7648505873047804,0.15554823369092569
4.320600000000001,3.7559240464620807,0.15547001596430574
4.325203999999999,3.746508766762798,0.15545006313576926
4.329784,3.733495749272924,0.15553611716929655
4.334376000000001,3.7271453270590222,0.15539432645701784
4.338964000000001,3.7220608934352053,0.15518085148668775
4.343564000000001,3.719552578440186,0.1549023824115361
4.348140000000001,3.7160226442833735,0.15466508309681282
4.352736,3.7114710909647672,0.15446895133834818
4.35732,3.704754114608428,0.15437004080913225
4.361912,3.697015519090296,0.15431045613261563
4.366504000000001,3.6886218585528066,0.15424545612754686
4.371096,3.6850919243959943,0.15400833242067366
4.375696,3.68413810886798,0.1537108911824321
4.380288,3.687026400558848,0.15328608181665226
4.384868000000001,3.6832520969737437,0.1530770233371227
4.38946,3.6787005436551374,0.15287759717077937
4.394048,3.6727608170323007,0.15275966896195514
4.398644000000001,3.671440447361849,0.15250538631503283
4.403232000000001,3.6707751427107533,0.15225394679564955
4.407816,3.6708870877931608,0.15198767294238363
4.412408000000001,3.67484114009445,0.1515929249370874
4.416988,3.6782623120905287,0.15117805742506538
4.421564,3.6866693951814296,0.1505774392095116
4.426159999999999,3.692255990215241,0.15007348266854334
4.430748,3.699397084716057,0.14954674015638206
4.4353560000000005,3.699220518921545,0.14923089940782572
4.439944000000001,3.7031304297742063,0.14875830783453772
4.444535999999999,3.707939775074515,0.1482599714895091
4.449128,3.7122162400696137,0.14774166854662313
4.453708000000001,3.716126150922275,0.1472681180485713
4.458311999999999,3.7177484540230585,0.14690188378460903
4.462899999999999,3.712708161847869,0.14675487058727696
4.467492,3.703581393025506,0.14676669273440904
4.47208,3.691922647022973,0.14691430487884954
4.476675999999999,3.686027061848765,0.1468699033123027
4.481264,3.679887107246264,0.14685540525268664
4.485860000000001,3.6683505459578774,0.14699239047925983
4.490448000000001,3.6559145502218433,0.14715464923708726
4.495044,3.6467877813994805,0.14716454769342954
4.499632,3.6435463581195875,0.14696540276865544
4.504224000000001,3.6342974045830787,0.14698829370735994
4.508812000000001,3.62672513522772,0.1469758396253769
4.513404,3.617764692568131,0.14704346668750445
4.517992,3.6098258690703355,0.1470708666388694
4.522576000000001,3.6049519030579207,0.14698251170257717
4.52716,3.6084172165026276,0.14665346676903648
4.531756,3.60779605330016,0.14647757438227643
4.536348,3.6081965092594865,0.1462649498794134
4.540936,3.6091298455240244,0.1460722919744077
4.545528000000001,3.610551920645144,0.14582243710895798
4.550116000000001,3.614017234089851,0.1454963242855193
4.554708,3.6249223925440317,0.14495820613205396
4.559292000000001,3.6360719204265037,0.14438282493642382
4.563880000000001,3.64488969910847,0.14382763606395674
4.568472,3.6506426203050557,0.1433906778376835
4.57306,3.660237648720523,0.1428352499287644
4.57766,3.6763730876978173,0.14208631651525805
4.582252,3.6925085266751116,0.14133341293140955
4.586848,3.707377977062322,0.14066002820061138
4.591444000000001,3.721103623573592,0.14005315558426704
4.596036,3.7396929964655388,0.13929018991823747
4.600636,3.7564835004621897,0.1385737128719195
4.605216,3.7715973202776905,0.13788826227748677
4.609816,3.785933890359689,0.13721703705295005
4.614404,3.7936078651657157,0.13674068998886024
4.619008000000001,3.7996051557905925,0.1363011153267716
4.623596000000001,3.8035592080918823,0.13592664432093238
4.628196000000001,3.80252734929835,0.13571516042193812
4.632776,3.7998188063236675,0.1355325846602038
4.637376,3.798909132244281,0.13530713812005135
4.641968,3.799021077326688,0.1350468331340532
4.646552,3.7946358501708555,0.13489323413429036
4.651136000000001,3.79397054551976,0.13464228734228556
4.655728,3.799845651430491,0.13422069298379197
4.660304,3.807763995664809,0.13373115210320655
4.664888,3.81196241739439,0.133340511068189
4.669476,3.811541482171586,0.13306514764805893
4.674072000000001,3.8130416005582233,0.13273675505482732
4.678656,3.814786088373152,0.1323836384711929
4.683244,3.8139544575592828,0.1320763015272248
4.687828,3.8132450114595597,0.1317587078427728
4.692416,3.8163776725787186,0.131342793284088
4.697004,3.8186108992502303,0.13094264156573396
4.701616,3.817779268436361,0.13063625780180207
4.706204,3.8234880481843185,0.13017119926728693
4.710816,3.8271535896086886,0.12977145179663474
4.715404,3.8369488460038204,0.1291807861953104
4.720003999999999,3.8545505015508623,0.12837484274837677
4.724600000000001,3.8776709484979373,0.12745268563398426
4.729184,3.8949060499025427,0.1266909428374257
4.733779999999999,3.9094428479642045,0.1259852246268742
4.738372,3.9238574613117208,0.12529035273786995
4.742964000000001,3.936351021049796,0.12465176275428615
4.747552000000001,3.944225223835485,0.12412393523280613
4.752152000000001,3.9491567538499406,0.12367457721368438
4.756740000000001,3.9558871527596913,0.12319064681074206
4.761340000000001,3.9665818436024707,0.12259970752193117
4.765931999999999,3.977154349731104,0.12202695414026438
4.770531999999999,3.9847841830885034,0.1215317866553596
4.775116000000001,3.9911480278558167,0.12108902601134028
4.779707999999999,3.995590819013689,0.12069740366421898
4.784295999999999,3.997335306828618,0.12036009419226032
4.788892000000001,4.001000848252988,0.11997567515811952
4.7934920000000005,4.011451169667476,0.1194276000857236
4.798083999999999,4.017404318843725,0.11896405611941806
4.80266,4.022335848858179,0.11852607681838587
4.807244000000001,4.021504218044311,0.11822465107628394
4.811832000000001,4.016952664725705,0.11800138708509408
4.816424,4.006882320007065,0.11788364217596015
4.821016,4.00257513611675,0.11763501345192628
4.825608000000001,4.001865690017027,0.11732450211903063
4.8302,4.001156243917303,0.11701279621135198
4.83478,4.002734405569458,0.11662276783395133
4.839372000000001,4.006111436116909,0.11620332301479325
4.843964,4.012675508863887,0.11568907129872688
4.848552,4.019483951039154,0.11515434479684622
4.853160000000001,4.023105351014896,0.11471521450203288
4.857744,4.025050066809488,0.11429343858672043
4.862332,4.030836889822964,0.11379070360369489
4.866924000000001,4.039932939750109,0.11318353849402177
4.871504,4.046985751353669,0.11262728276335875
4.876100000000001,4.053794193528938,0.11209703880716518
4.8806840000000005,4.062401504599501,0.11154303772019336
4.885284,4.064101850965802,0.11114911958350464
4.889863999999999,4.070299369570341,0.1106885893304336
4.8944600000000005,4.079439560946115,0.11016237098891787
4.899051999999999,4.097163401207304,0.10947496865350176
4.903652000000001,4.1121889381255485,0.10882456668040252
4.908232,4.130157147815028,0.1081105653844912
4.912827999999999,4.145304869447418,0.10745260921292031
4.917428000000001,4.158775906898658,0.1068156573532511
4.92202,4.17416799795934,0.10614283875574079
4.926608,4.187272481268143,0.10554976086108159
4.9312000000000005,4.19551323819627,0.10505099062128202
4.9357880000000005,4.202610191248458,0.10459170149487942
4.940384,4.205620667653472,0.10422756242478669
4.944972,4.208875513486777,0.10383841735390646
4.9495640000000005,4.213929228215377,0.10342534562106488
4.9541520000000006,4.2169397046203905,0.10306312283286043
4.958736,4.21868419243532,0.10274957702706063
4.963328000000001,4.222471918573835,0.10238749995239747
4.967916000000001,4.2235613413694075,0.10205944863097115
4.972508,4.221053026374388,0.10177978153940805
4.977084,4.222631188026544,0.10140392901275422
4.981672,4.21971217744046,0.10108879253052531
4.986272,4.2175704165878765,0.10077548132269934
4.990856000000001,4.208643875745176,0.10058942218661117
4.995444000000001,4.203437257407215,0.10034607757469978
5.00004,4.195287966298017,0.10015820755144467
5.00464,4.189304098226552,0.09991337171644571
5.009244000000001,4.183975295174443,0.09968047760937138
5.013836,4.1797902959982745,0.09941523797102983
5.018428,4.175605296822105,0.09914992986561759
5.023008000000001,4.179104512083701,0.09875653312782606
5.027608000000001,4.182481542631152,0.09837494813815723
5.032196000000001,4.189045615378129,0.09791477254882108
5.0368,4.19716418759211,0.09745697501715747
5.041384000000001,4.204505510072589,0.09700106300770761
5.045984000000001,4.210947398105421,0.09655484639943919
5.050576,4.219432524461839,0.09606972008585232
5.055168,4.22893926998005,0.09556667297369886
5.059760000000001,4.242165938002999,0.09501168508590285
5.064352,4.257069290207099,0.0944466435546967
5.068944,4.273527141878202,0.09389265086452471
5.073536000000001,4.290762243282806,0.09333722053130024
5.078124000000001,4.304643976325112,0.092800337540562
5.08272,4.318770078795709,0.09224045076217775
5.087296,4.332529627123869,0.09171814766434402
5.091896,4.349109663509118,0.09115689388589007
5.096484,4.363524276856635,0.09064998674118643
5.10108,4.375118402147061,0.0901808559963316
5.105676000000001,4.383647669952108,0.08977499095170341
5.110256,4.391399688023652,0.08936711498538345
5.114848,4.394654533856958,0.0890075784689928
5.119432,4.399708248585558,0.0886328841575792
5.12402,4.405417028333515,0.088272982462626
5.128616000000001,4.411614546938054,0.08787312137741264
5.1332,4.419488749723744,0.08747080045955546
5.1377880000000005,4.4273629525094345,0.08706714806935525
5.142384,4.432538851952181,0.0866900666717267
5.146980000000001,4.434649893909547,0.08636812363500615
5.151576,4.434717697543326,0.0860831959957062
5.156164,4.4367065547865465,0.0857738026077866
5.160756000000001,4.433420990058024,0.08550005934917239
5.165343999999999,4.433977532548386,0.08517666768962294
5.16994,4.438909062562841,0.08482812280053566
5.174519999999999,4.4424524192730654,0.08452661728030962
5.179124,4.443664026782783,0.08421573065604905
5.183716,4.445897253454294,0.08388990147035767
5.188312,4.4529942065064825,0.08350145639241936
5.192904,4.461112778720463,0.08309331648453978
5.197496000000001,4.469353535648589,0.08267386871314897
5.202096000000001,4.4784937270243645,0.08224771557660521
5.206692,4.490332221743083,0.08180411576529682
5.211288,4.498817348099501,0.08136844272111766
5.21588,4.507791213312501,0.08089599658371707
5.220468,4.514721840201916,0.08045852202663152
5.225064,4.519853598196035,0.08003652387862854
5.229652,4.530093451999121,0.0795389167184315
5.234236000000001,4.540088936373916,0.07906045999489145
5.238824000000001,4.552249843786442,0.07853890565194006
5.243416,4.568497227846144,0.07795803284132156
5.248012000000001,4.581024689401109,0.07741187978085103
5.252599999999999,4.599437496498542,0.07679553712012695
5.257192,4.613230946643591,0.07622094280843288
5.26178,4.623548843712194,0.07566281211721769
5.266384,4.634355479637381,0.07506120529808459
5.270972,4.650680906962599,0.07442370861959471
5.2755600000000005,4.663286411783081,0.07381908368322906
5.280151999999999,4.668207702165797,0.07329520293666446
5.284739999999999,4.6773376539098335,0.0727075975289042
5.289344,4.6872448553873705,0.0721246272191622
5.293936,4.696374807131407,0.07153730958964086
5.298536,4.703705889980147,0.07096360952739234
5.303140000000001,4.709893168952949,0.07040905602958303
5.307728000000001,4.713915024888017,0.0698940794194569
5.31232,4.718059065537231,0.06936850451391621
5.316912,4.7186053683958535,0.06885689191302216
5.321512,4.7140435754455075,0.06841780801268774
5.3261,4.713446074428191,0.06793592965912777
5.3307,4.7137480078585225,0.06745178358979849
5.335288,4.7112294532317645,0.06699178113961926
5.339892000000001,4.712797375252181,0.06648048507634327
5.344484,4.706436713406539,0.06605222742451898
5.349080000000001,4.70596139710337,0.06556841488050737
5.353672,4.70716276498135,0.0650879728140488
5.358268000000001,4.714005108973507,0.06457370004979585
5.362864,4.713285423242044,0.06411207765102205
5.36746,4.716285660015319,0.063630302589684
5.372056000000001,4.726192861492857,0.063083033859457
5.376647999999999,4.732013586323221,0.06258747623940938
5.381236,4.736279811686581,0.062078003550893684
5.385832000000001,4.745165394002326,0.061551585855667286
5.390420000000001,4.753029357156275,0.06103702099816736
5.395012,4.766656481138552,0.06048300876301491
5.3996,4.781305224282621,0.059918636036267806
5.404192,4.796853401874337,0.05935346465586498
5.408776,4.816898751704294,0.05877596686815495
5.413356,4.836166851800748,0.05818959613154824
5.417948000000001,4.850693410230669,0.05763541561905485
5.422536000000001,4.864320534212945,0.05708665624431146
5.427124000000001,4.875249354852277,0.056542342735897595
5.43172,4.882091698844434,0.056042429387918674
5.436304,4.894575018950771,0.05551129470802546
5.440908,4.899907004924552,0.05505656854731115
5.445488000000001,4.898698580336507,0.05462654697727909
5.450075999999999,4.891482625491847,0.05425178150829402
5.454668,4.889008212313717,0.05385008176408596
5.459244,4.881015007735554,0.053463746351802545
5.463844,4.86521540400548,0.05313018322838276
5.468432,4.845573693056524,0.05281540893301558
5.4730240000000006,4.826709231841069,0.052505519686846164
5.477608,4.801059990635498,0.052238475389673696
5.482200000000001,4.772468076658691,0.05198957206676861
5.48678,4.738235186567706,0.05176119990072597
5.491376000000001,4.701836873438988,0.051559502314513915
5.495964000000001,4.663273137272537,0.051384420166676985
5.50056,4.622011097763142,0.05120823257617991
5.505136,4.5816484927013965,0.05102739416163649
5.50972,4.5393648340302075,0.05085295335220868
5.5143,4.492994698711846,0.05071584772105934
5.518892000000001,4.447157443698696,0.05060297522178597
5.5234760000000005,4.399643504504395,0.0504774083640067
5.528055999999999,4.350208511700652,0.05035933321419946
5.532636,4.299219019429906,0.050220853089856625
5.537224,4.25489212243513,0.05004541036761381
5.541804000000001,4.207989106811557,0.04985760826308144
5.546416000000001,4.1559779953790175,0.049720015967098824
5.551004000000001,4.102700895356392,0.04961028430078395
5.555607999999999,4.0522442833908565,0.04948630993978861
5.5602,4.007550832253644,0.04932427372141232
5.564784,3.9588930891834044,0.049192135589727334
5.569380000000001,3.905738173874925,0.049058256902046155
5.573964,3.8516838241187976,0.04892211160596171
5.578568000000001,3.794442432163144,0.048830441225552274
5.583148,3.7355243560263407,0.04872469725452802
5.587736,3.676728464603683,0.04860431215379224
5.592324,3.615767150143292,0.04851705515107759
5.596928,3.5509637284640183,0.04844984744086937
5.601516,3.4868153718041013,0.048406569248511756
5.606116,3.4220119501248267,0.0483371249417484
5.6107,3.353610790654962,0.04826738156949699
5.615292,3.2877857498138954,0.04820161239347996
5.619888,3.217219167306298,0.04816281475783317
5.624484000000001,3.14832926897985,0.04813406810915515
5.629072000000001,3.069834102606196,0.04817578235578514
5.633664,2.9912167515183956,0.048230468450055616
