Time,Force,Position
12.35002,4.321488752033619,0.04773462424201819
12.354616,4.266002087524633,0.047570074118339335
12.359203999999998,4.2096159885679985,0.04740035684911766
12.363792,4.146445109621247,0.04726824287982351
12.368379999999998,4.082252611512702,0.04713967327632935
12.372971999999995,4.015894690366425,0.04703968213795767
12.377568,3.9404643814781513,0.04702538089338908
12.38216,3.8669551261993185,0.04699731584448602
12.386751999999998,3.7987202928922277,0.046978690159048764
12.391344,3.7304854595851364,0.04695953534529075
12.395936,3.657142530469078,0.0469917605834229
12.400516,3.585065589943104,0.046990626604727116
12.405096,3.5147875183124255,0.04698961226342697
12.409692,3.4428327625005974,0.04697294557644711
12.414284,3.3671580841840325,0.046964739294287024
12.418879999999998,3.292382840315115,0.04694476115573654
12.423475999999996,3.2194064653414936,0.04691863462910197
12.428064,3.1445090367584303,0.04690658947061103
12.432659999999998,3.069978162317804,0.04684766100143109
12.437255999999998,2.998512145362559,0.046747137832959466
12.441848,2.9251250747978723,0.04665356599893828
12.446427999999996,2.8543141228619833,0.046576823515131864
12.451027999999996,2.7812155631742157,0.04656554280704095
12.45562,2.7092608073623876,0.04652050501398573
12.46022,2.6379611165699166,0.04650730213750827
12.464811999999998,2.5678052296533838,0.046458900425824595
12.469396,2.50749898021235,0.046297582817621676
12.473988,2.44539386187602,0.04611906010849451
12.478583999999998,2.3768705176920095,0.04594928432906367
12.483172,2.3110454768509423,0.045778117393749616
12.487768,2.250206347104698,0.04552115729116056
12.492359999999998,2.1883455981966593,0.04526701570184805
12.496955999999996,2.1227649267838835,0.04501997003646444
12.50154,2.0571842553711077,0.044746863281343266
12.506124,1.9934024528536274,0.044463041131664556
12.5107,1.9254119889748278,0.04427560728614735
12.51528,1.8563999059342347,0.04408984003329067
12.519868,1.7885316267695806,0.04383640231108204
12.524455999999995,1.7240167159672268,0.043615386467706324
12.529044,1.658235816574788,0.04346592907438515
12.533628,1.591555482734701,0.04329240555877242
12.538215999999998,1.524220083875258,0.04302874553711989
12.542807999999996,1.4594608036446126,0.04071437303470405
12.547392,1.3951563604536603,0.03842362080363759
12.55198,1.3331497646463257,0.036114674757678274
12.55658,1.2783930255005407,0.03892851896839665
12.561172,1.2279095684281813,0.043421099068747665
12.565763999999998,1.1991213002601038,0.048643453279640925
12.570344,1.194438013462333,0.05415589780980832
12.574939999999998,1.2074414821871877,0.05991306510694078
12.579528,1.2358440986827897,0.06598418474296334
12.584124,1.2807455253764504,0.07228617125645694
12.58872,1.3495856072776433,0.07851031310637785
12.593311999999996,1.4376669441684666,0.08490925488579351
12.5979,1.5460111552107134,0.0913673988817501
12.602484,1.6820580854138578,0.09770358744680048
12.607072,1.8422099969873085,0.10399484666918636
12.611672,2.025567455483418,0.11030055147145772
12.616263999999996,2.2285327231115946,0.11660923071283213
12.620863999999996,2.459567264043106,0.12276078126783943
12.625452,2.718060154707224,0.12887774970292332
12.630036,3.0011909070468588,0.1350469489902663
12.634615999999998,3.3085046840223176,0.14316089574214047
12.639208,3.6406904524698462,0.1511746272371761
12.6438,3.988909954444001,0.15915236813129208
12.64838,4.347511974198866,0.16194711013490598
12.65296,4.714765446472924,0.16298346728256513
12.657547999999998,5.066086890671024,0.16328299582587422
12.662136,5.402786436831879,0.16322972932758423
12.666743999999998,5.7220435968983985,0.16293207554905983
12.671332,6.025901609194171,0.16237330824553017
12.675915999999996,6.320334102158922,0.16155747947472934
12.680508,6.59814560021147,0.1607907057645992
12.685095999999998,6.863500623264504,0.15982640226006134
12.689688,7.1139452374033745,0.1587494817351564
12.694267999999996,7.342528336475189,0.15770144913183115
12.69886,7.550437865804514,0.15668717133223628
12.70344,7.738328890410708,0.15569195609724865
12.708036,7.90644577972206,0.15468226479113928
12.712623999999998,8.047593058157387,0.15378782102114943
12.717216,8.16405833346857,0.15293724049488366
12.721795999999998,8.255719420941462,0.15211748583536946
12.726388,8.32772855783366,0.15128039697454546
12.730975999999998,8.374244540051318,0.15055101812519747
12.73556,8.403650788500192,0.14983098692387878
12.740136,8.415624890486468,0.14917265785277953
12.744723999999998,8.409111325031464,0.1486620273652063
12.749308,8.398589326194806,0.14817942613833024
12.753892,8.381849329490128,0.1477313745444542
12.758475999999998,8.366208995212762,0.1472224855651492
12.763051999999998,8.34823691173489,0.14672516763836738
12.767643999999995,8.324046830389,0.14626193292773623
12.772227999999998,8.297480858393977,0.1457749191843133
12.776803999999998,8.265762649141356,0.14533740547016152
12.781399999999998,8.229669452364641,0.14494352546823033
12.785984,8.197296178092666,0.14449741714930173
12.790564,8.164922903820688,0.14404888136680719
12.795156,8.129973510919914,0.1436225920468725
12.799751999999998,8.09502411801914,0.1431936254301459
12.804356,8.065226962375961,0.14271268636292642
12.808932,8.033386568409197,0.1422622687137399
12.813532,8.006820596414173,0.14175301100805973
12.818108,7.9773560930965415,0.1413215230826132
12.822708,7.950101154265272,0.14088277148733103
12.827303999999998,7.927631898549159,0.1404130663056735
12.831903999999998,7.907538533482181,0.13996617030785116
12.836496,7.891864297387928,0.13950778742904835
12.841088,7.879176875513536,0.13903931836137054
12.845675999999996,7.870419843755283,0.13858695305381127
12.850272,7.8621176490367235,0.13818723785357998
12.854872,7.858845506861613,0.13774615370784188
12.859464,7.860891928106872,0.13728672215091048
12.864051999999996,7.865969305020624,0.13685746559564804
12.86864,7.874688561173594,0.13642442504183472
12.873224,7.884884273528051,0.13602646886551945
12.877824,7.892059269845757,0.13571663779128185
12.882412,7.8991562228979415,0.13544959273595478
12.887,7.913492792979941,0.13514061087620996
12.891583999999998,7.929550188691719,0.13485478499922635
12.896172,7.949738202499298,0.13454500750620627
12.900768,7.980885755841425,0.13415287733246445
12.905355999999998,8.01489793868927,0.13376824354930106
12.90994,8.054184543508855,0.13333659724610888
12.914531999999998,8.098623385586036,0.13286536410486247
12.919107999999998,8.138975751016044,0.13246000901776592
12.923688,8.180349735607845,0.13204041392055815
12.928292,8.224299838828443,0.13160293881971788
12.932883999999998,8.273524364020785,0.1311256491676391
12.937476,8.324914312250858,0.1306164931917976
12.942055999999996,8.376426445195078,0.13010375979334043
12.946652,8.422053232596827,0.12966965922322873
12.95124,8.470211997178746,0.12919053344279438
12.955844,8.516161197274304,0.1287156909565974
12.960431999999996,8.56080026733115,0.12823703489576568
12.965016,8.607971314568164,0.12770772234155406
12.969596,8.653832231766469,0.127169828965122
12.97418,8.703491114735025,0.12655733969354513
12.978768,8.746687630407273,0.12597937351945307
12.983359999999998,8.792782677402126,0.12533705484255322
12.987939999999998,8.828206695739352,0.12478895509262625
12.992532,8.852548989827882,0.12432027241599368
12.99712,8.869651666886604,0.12388431271369135
13.001711999999998,8.879148172773077,0.12349660559624326
13.006291999999998,8.883981180258536,0.12312258855829852
13.01088,8.88852567686708,0.12272611021960876
13.015463999999998,8.892126597579342,0.12230486049828133
13.020044,8.892330008480679,0.1218706651360289
13.024628,8.88006352182909,0.12153766650679117
13.029232,8.8610902984529,0.12124174806419079
13.03382,8.839496814999286,0.12092830383720526
13.038424,8.820924047582427,0.12053953837699402
13.043011999999996,8.793723489831523,0.12020757299157005
13.0476,8.76251449869896,0.11988820451222741
13.052204,8.727052704756453,0.11959284202371286
13.056787999999996,8.687704662146434,0.11930284558509167
13.061384,8.649744792840645,0.11897966991713314
13.065963999999996,8.606143947420676,0.11870988141357675
13.07056,8.566507393933737,0.11839009439631255
13.075148,8.519430995437322,0.11813734138556153
13.079748,8.477340508035729,0.11782264792253877
13.084339999999996,8.436149455081784,0.1174983892018621
13.088939999999996,8.394836217413694,0.11717704515620522
13.093532,8.358264521412137,0.11680401725672826
13.098128,8.31964958708699,0.11645478525809597
13.102712,8.28115683747599,0.11609687811620091
13.107304,8.23845542650367,0.1157959157183583
13.111895999999998,8.196042526408268,0.11551459734818027
13.116488,8.16311270964593,0.11513336484396607
13.121076,8.135701684283623,0.11469939131468061
13.125667999999996,8.109356419531737,0.11428485834869281
13.130256,8.081256427333185,0.1139180815553114
13.134843999999998,8.054999445478556,0.11356995555356725
13.139432,8.03401688559567,0.11318228401450903
13.144023999999998,8.020229801293965,0.11273544188593587
13.148616,8.008940792355542,0.112314139755085
13.153204,7.998062479008183,0.11190966124436202
13.157799999999998,7.9857959923565955,0.11153439225962015
13.162388,7.972796397420134,0.11119618508203714
13.166964,7.969690581407796,0.11078131501518894
13.171568,7.969693764329469,0.1103646074811901
13.176151999999998,7.977547487851683,0.10989996810470343
13.180756,7.993906816993791,0.10939461253704769
13.185336,8.012353525908114,0.10890322513250744
13.189932,8.036729721813535,0.10838461034920517
13.194536,8.068057023871848,0.10783185336366428
13.199132,8.108256485692493,0.10722226561874446
13.203727999999998,8.148988827818352,0.10662500977948511
13.208316,8.190131865535273,0.10605358396001403
13.21292,8.237981639976795,0.10546953189733299
13.217496,8.29020640194241,0.10486610799714773
13.222096,8.348072140022204,0.10422001667484168
13.226675999999998,8.414643711701554,0.10350112267133219
13.231275999999998,8.480848729238472,0.10280559081532775
13.23586,8.546442823204659,0.10214905351481646
13.240451999999998,8.616123393818022,0.1014563629521703
13.24504,8.689401702221973,0.10074941941698855
13.249631999999998,8.77126365951134,0.09997519201489785
13.254227999999998,8.850549498171908,0.09921373564453032
13.258824,8.923172741556506,0.09851708652204581
13.263403999999998,8.993097681598158,0.09784303777959638
13.267996,9.058769818829862,0.09719362189437897
13.272572,9.121210772413415,0.09655981196630073
13.277168,9.183118845691753,0.09592302223381857
13.281751999999996,9.243472419503087,0.09529191615633296
13.286331999999998,9.298429386628538,0.09469839067320995
13.290916,9.34937792037233,0.09411471119347044
13.295503999999998,9.40375786574394,0.09349165311926125
13.300079999999998,9.454007193019745,0.09288004215001563
13.304688,9.491908807456774,0.09232621990636736
13.309276,9.525557619083854,0.09178774630246932
13.313883999999998,9.555853062348636,0.09126136859200824
13.318459999999998,9.576132541975142,0.09079013869013614
13.323059999999998,9.59612351072473,0.09030007722770438
13.327652,9.613127665254456,0.08980356958245622
13.332244,9.621626214164289,0.089328738657092
13.33684,9.621496972740076,0.08887828133063014
13.341424,9.61699274379177,0.08844479407841929
13.346024,9.61567555704299,0.08798026607610308
13.350604,9.611904436379561,0.08751539189457506
13.355204,9.607600435410918,0.08703944513320344
13.359792,9.603174249728129,0.08656875611752766
13.364392,9.595394695683042,0.08610328330229117
13.368976,9.582096350237922,0.08566366765191731
13.373572,9.570308362811181,0.08519718279819405
13.378159999999998,9.556188626183928,0.08472535592550276
13.382744,9.543090508718471,0.08424552962122463
13.387331999999995,9.52422923042469,0.08380022384839238
13.391928,9.507944070759706,0.08334906301526918
13.396515999999998,9.493457779990019,0.08288809433735349
13.401111999999998,9.478438608915122,0.08241453420015124
13.4057,9.459699515335485,0.08195699649921875
13.410291999999998,9.444558159546443,0.08148477338271803
13.414887999999998,9.430194053490899,0.08101443263777837
13.419483999999995,9.413664524397625,0.08056315452072835
13.424063999999998,9.401143428686005,0.08011367478562094
13.428643999999998,9.394918374107924,0.07964075567127539
13.433235999999996,9.384973397025105,0.07918341347033202
13.437828,9.371963562456903,0.07874927570456143
13.442415999999998,9.361896400659939,0.07829452896423826
13.447011999999996,9.351707054148829,0.07784392040024314
13.451596,9.340984827332505,0.0773812388213645
13.456195999999998,9.32695337360251,0.07694869531772663
13.460787999999996,9.317663461539047,0.0764909838650179
13.465387999999995,9.302121649790674,0.07608340939247464
13.46998,9.288789402528664,0.07568585724267879
13.474567999999998,9.274191166676568,0.07530574438095175
13.479171999999998,9.267154960548096,0.07489055788670088
13.483752,9.257176081648385,0.07449255142911279
13.488352,9.253493243882211,0.07407723138606388
13.492936,9.254063208925983,0.07366000802044403
13.497539999999995,9.259907595941499,0.07323269610314774
13.502132,9.265751982957013,0.07280624058152116
13.506728,9.27237361970603,0.07238442995954816
13.511319999999998,9.283736798121577,0.07194194628508134
13.515912,9.294078357375332,0.07150683256726847
13.520504,9.303031743324855,0.07109420379862678
13.525095999999998,9.314561247903175,0.07067855497819626
13.529684,9.33071010943388,0.07024884744052716
13.534275999999998,9.35352156624056,0.06979484593774726
13.538864,9.378131891942534,0.06933851169701533
13.543447999999998,9.403152913235573,0.06890023653154383
13.548036,9.43663539869988,0.0684311126713179
13.552632,9.470117884164186,0.06796570110671324
13.557232,9.511284584066258,0.06746854722619898
13.561827999999998,9.554616707006065,0.06695730987064183
13.566412,9.596149961050573,0.06645074060114942
13.570999999999998,9.630243370085608,0.06597148351586556
13.575592,9.668301071053671,0.06547372190582909
13.580175999999998,9.69981836145991,0.06499911848838458
13.584756,9.727737914075554,0.0645339460617676
13.589347999999998,9.755002401671844,0.0640645682730888
13.593936,9.782389073982278,0.06359272039350439
13.598523999999998,9.807077442949767,0.06312752074767279
13.60312,9.8303334971644,0.06265479270790328
13.607716,9.858697647188002,0.06215640253098774
13.612312,9.888449970515833,0.06164097244580267
13.616903999999998,9.925886508281431,0.06110347918661645
13.621499999999996,9.957804254646994,0.06057964455944356
13.626079999999998,9.97872855966112,0.060110182894986944
13.630679999999998,9.99785399577995,0.059644413256962375
13.635268,10.018245420488865,0.059166238738074424
13.639868,10.035405661549628,0.05868279924818405
13.64446,10.052443717896242,0.058206021244575454
13.649055999999998,10.064740232576325,0.05774493799447534
13.65364,10.071273586428086,0.05730200071655028
13.658231999999998,10.077806940279846,0.056858108004404904
13.662831999999998,10.086016978312756,0.0564160129669676
13.667424,10.091284343574433,0.05598605972516538
13.672012,10.097573327997901,0.055549645708414704
13.6766,10.100919639650135,0.0551226387199575
13.681188,10.101323278531135,0.054706530698342186
13.685779999999998,10.100460928822049,0.0543040231568037
13.690368,10.095634287179937,0.05391503631676679
13.694964,10.08647679946236,0.0535530891910516
13.699555999999998,10.067469674269281,0.053226116775462996
13.704144,10.048462549076202,0.05289921293005739
13.708731999999998,10.01613023333118,0.05260383934961017
13.713311999999998,9.989316708986193,0.052300800433574934
13.717903999999995,9.967611280450173,0.05197265218840573
13.722496,9.94206374469527,0.05165240661394412
13.727087999999998,9.910508678683748,0.051354113540710615
13.731683999999998,9.870658474663735,0.05109453022068991
13.736272,9.82300187149181,0.0508570257883314
13.740872,9.769459922777418,0.05063638732491697
13.745463999999998,9.716817408510671,0.05041284208310868
13.750052,9.66315327508213,0.05019147495901743
13.754648,9.605524849720565,0.04998203049133086
13.759239999999998,9.543154882692463,0.04977973498507506
13.763835999999998,9.476820623731335,0.049588841436820234
13.768415999999998,9.41126361450371,0.04939963393132232
13.773015999999998,9.344440616686,0.0492218545403303
13.777604,9.269811219716381,0.04906617948364973
13.782204,9.197880126089702,0.048907723296826355
13.786796,9.124683043872942,0.04876168961199959
13.791391999999998,9.053529199979765,0.0486032333625598
13.795983999999995,8.969583045839858,0.048486032477343205
13.80058,8.885270337557513,0.048381321496093685
13.805176,8.790575111494457,0.048293541554078445
13.809772,8.687174051831844,0.04822731791723468
13.814359999999995,8.582384818865,0.04817912284580743
13.818952,8.477839955326445,0.048117979600087284
13.823539999999998,8.375216145397333,0.04805143310983293
13.828132,8.27157071630643,0.04798968807879597
13.832719999999998,8.169846340824966,0.047921205323529815
13.837319999999998,8.063258238962828,0.047865907954941694
13.841908,7.955526333224747,0.04781804678803727
13.8465,7.846650623610729,0.04778041693118498
13.851084,7.735487306244833,0.04776425488259694
13.85566,7.622402935269496,0.04775261101258215
13.860256,7.503555403465834,0.04775701340948608
13.864836,7.379966329995641,0.04777305616595171
13.869424,7.258420494849035,0.0477795335860694
13.874032,7.130334249140603,0.047796086293359706
13.878619999999998,7.003636176736401,0.04778619047584601
13.883228,6.8719521932373775,0.04779845808077747
13.887819999999998,6.748074608890266,0.04778061226337265
13.892423999999998,6.622398155647859,0.04776458572219109
13.897015999999995,6.4925130410441305,0.04778547972629104
13.901604,6.364304610621553,0.04781514915492762
13.906199999999998,6.235318930465473,0.04783993164002003
13.910791999999995,6.104822892291018,0.047899541906346745
13.915395999999998,5.976247907726003,0.04795121683554534
13.919975999999998,5.852658834255809,0.04797107485806007
13.924575999999998,5.7254720229950244,0.04798802955990812
13.929156,5.600861330363039,0.04801473533205124
13.933743999999995,5.470487476902729,0.048067652598281045
13.938327999999998,5.338436939261269,0.04811575076939278
13.942923999999998,5.210595062981128,0.04812116198147316
13.947499999999998,5.08635092449158,0.048126703422611015
13.952095999999996,4.963128405163824,0.04812572639732806
13.956699999999998,4.8410496897120066,0.0481066587382125
13.961292,4.721913647031426,0.04806431316725219
13.965871999999996,4.605475907693788,0.04802069390468809
13.970456,4.486872745318418,0.04799743159185966
