Time,Force,Position
5.536408,1.2531143226209815,0.04244409056546082
5.541011999999999,1.162393628122694,0.039859287317591086
5.545599999999999,1.0747377911097873,0.03722401837927962
5.550196,0.9947661685346461,0.03452701256284149
5.554791999999999,0.9194139029118896,0.031785429355095415
5.559379999999999,0.8459826908985748,0.029033241003169168
5.563984,0.7757826625334141,0.026287672422069783
5.568575999999998,0.7104905019975581,0.023490260699603156
5.573179999999999,0.6532152082250151,0.020627212016897496
5.577755999999999,0.6017913581780525,0.01775875828308868
5.582355999999999,0.5614933738284118,0.014820385684414995
5.586939999999999,0.5304884844639081,0.011885814958459601
5.591539999999998,0.5182258716007128,0.008854070126993298
5.596124,0.5207853847544258,0.014388415283422523
5.600724,0.5408653272679909,0.020122396125920705
5.605315999999998,0.5833735669707122,0.025711749553961175
5.609907999999999,0.6523965805097637,0.03406501726174853
5.6145,0.7392285342855869,0.042499699739400765
5.619091999999998,0.8488994808416316,0.05086417459139899
5.623691999999998,0.9774451282448693,0.05938062569465746
5.628283999999999,1.1375356020278873,0.06768217000223521
5.632867999999998,1.3262282294194514,0.075832481863286
5.637455999999999,1.5407025223624715,0.0838850378086868
5.642031999999999,1.7724970166856806,0.09200132150072135
5.646623999999999,2.0253316348938153,0.10014453006148002
5.651207999999999,2.2990841922727303,0.10829300287455378
5.655787999999999,2.595509416269093,0.11639310822004631
5.660379999999998,2.91329717684419,0.12445813845182185
5.664967999999998,3.2468845411493605,0.1325346217497453
5.669552,3.599580736098277,0.14056317430399237
5.67414,3.9596489724228894,0.14861190253532935
5.678723999999999,4.3282228143673995,0.1566147291010164
5.683319999999998,4.694576852193809,0.16453270275356274
5.687911999999999,5.0550692066629,0.16395120192230456
5.692511999999999,5.408878486592541,0.16307025881651624
5.697104,5.748110009933564,0.1622859371879012
5.701695999999998,6.070476168934093,0.16167478108194044
5.706299999999999,6.381740124422451,0.16092837143573224
5.71088,6.677238377997624,0.16019163442710582
5.715475999999999,6.961668329877515,0.15921292695049835
5.720056,7.221338235367743,0.15844113208873206
5.724659999999998,7.453549791125365,0.15785019032232284
5.729247999999998,7.664066157978705,0.15731560572549602
5.733847999999998,7.859672115917879,0.15665365308252427
5.738432,8.03893535019003,0.15588978751268098
5.743023999999998,8.201078611061657,0.1550406485024601
5.747608,8.341893237171437,0.15419581982913308
5.752203999999999,8.461379228519373,0.1533457153123554
5.756791999999999,8.564033757343703,0.15242225370282886
5.761387999999998,8.648468650340195,0.15147562251961577
5.765975999999998,8.715627483405127,0.15050228178691735
5.77056,8.766209463006481,0.14954682959322035
5.775148,8.80353405568967,0.14864793239604734
5.779739999999999,8.83222061840708,0.14773884024874506
5.784336,8.851536042873835,0.1468542659046153
5.788924,8.861157916396126,0.14603750232833282
5.793512,8.86427328117348,0.1452326263655543
5.798087999999998,8.857939464434665,0.14448314304638946
5.802683999999999,8.841012662303736,0.14380888703848238
5.807275999999998,8.81647968900056,0.14320049321967068
5.811855999999999,8.791658204820465,0.14256894439654946
5.816451999999998,8.771411936144126,0.14184474719307502
5.821039999999998,8.74883391826728,0.14113064450242824
5.825627999999998,8.721514358723905,0.14047713158504133
5.830223999999999,8.688431638352204,0.13989873198010655
5.834823999999999,8.647175964686157,0.1394456292531727
5.839415999999998,8.604532117715879,0.13902385763161032
5.844003999999998,8.56127734717487,0.1386296364671071
5.848607999999999,8.516800729492406,0.13829413819445258
5.853195999999999,8.469181211059047,0.13804290858376536
5.857795999999999,8.426103006312552,0.1377753500050439
5.862375999999999,8.381680769710455,0.137575340095607
5.866975999999999,8.338612804595698,0.1374136230290537
5.871571999999999,8.296532556825847,0.13730842385480824
5.876171999999999,8.25736108001034,0.13723472028861317
5.880763999999999,8.22416323163456,0.13714719612619544
5.885359999999999,8.194240708355562,0.1370736215009218
5.889956,8.173356671001672,0.13693609623660935
5.894547999999999,8.160245130982805,0.1367644764706548
5.899135999999999,8.149387296898924,0.1366234305734582
5.903727999999999,8.144991830111353,0.13644356114048556
5.908311999999999,8.141706265382831,0.13631760248738248
5.912908,8.139897156855795,0.13622621801312707
5.917495999999998,8.140952677834479,0.1361348663957023
5.922083999999998,8.148348381395325,0.13601276972700874
5.926667999999999,8.166659483042089,0.1357728613180129
5.931244,8.187713029480427,0.13554018108851218
5.935835999999998,8.211631205424483,0.13530878223065518
5.94042,8.240168738320923,0.13502780595404157
5.945027999999999,8.268584086503216,0.13475088733783758
5.949615999999999,8.300841541904393,0.13443027957922832
5.954191999999999,8.34233771121034,0.13400858796703838
5.958799999999998,8.386776553287522,0.13354899013783883
5.963391999999999,8.434768991706669,0.1330241651205139
5.967991999999999,8.483372353696542,0.13247198681158695
5.972587999999998,8.53577368145667,0.13184605059262489
5.977175999999998,8.59316092031162,0.13116017707591507
5.981779999999999,8.645151552480682,0.13053296826260272
5.986375999999998,8.696609304344532,0.12990110214399925
5.990979999999999,8.75047684867441,0.12922609227862475
5.995559999999999,8.797271102137248,0.12861897276732828
6.000151999999998,8.84373270327454,0.12796419278009244
6.004739999999998,8.89219340128679,0.12725378488260755
6.009339999999998,8.941631577012206,0.12650147241296228
6.013927999999998,8.988327307946049,0.1257473461005646
6.018527999999998,9.028971367174648,0.125045527312057
6.023111999999999,9.068916219935264,0.12431150911791604
6.027695999999999,9.109838550409046,0.12353834463453939
6.032291999999998,9.146630262787026,0.12279246530309826
6.036876,9.185953952345173,0.12199744585645438
6.041479999999998,9.219103785483934,0.12125521085300445
6.046071999999999,9.24644631634574,0.12054899191668624
6.050659999999999,9.271457098007039,0.11985044640216422
6.055255999999998,9.29172633800181,0.11920189510612778
6.059843999999998,9.31031889381543,0.11856380763265754
6.064428,9.324169907962519,0.11797598256253136
6.069011999999999,9.331724880976072,0.11743927964626057
6.073599999999999,9.339768592846209,0.11688053955953252
6.078192,9.347279424411134,0.11631392809334173
6.082771999999999,9.355156810118498,0.11573484092076075
6.087363999999999,9.362379130806504,0.11514945348293591
6.091951999999999,9.364248986257254,0.11463440993089713
6.096539999999999,9.36101074589903,0.11417934606409261
6.101132,9.357650320826664,0.11373102449334617
6.10572,9.353146091878362,0.11329981679949261
6.110323999999999,9.350562916539495,0.11285093400411585
6.114915999999999,9.345814318162898,0.11243032454791257
6.119508,9.33992191591036,0.1120279737281256
6.124099999999999,9.334806763391324,0.11162466169329409
6.128696,9.33328934866288,0.11119899498923742
6.133287999999999,9.333570802829732,0.1107610436584601
6.137879999999999,9.336672745053674,0.11030134713203714
6.142472,9.338997437544112,0.1098417458519509
6.14706,9.3422215644822,0.1093755102284447
6.151655999999999,9.344424072258494,0.10891967011066798
6.156248,9.345604960872995,0.1084741950966667
6.160843999999999,9.346375153896428,0.10801203685323268
6.165436,9.348044781367511,0.1075444643786143
6.170027999999999,9.348937159105093,0.1070777781140678
6.174615999999999,9.342023137690763,0.10668147697024652
6.179212,9.337030169885873,0.1062674026633502
6.1838,9.335346428994654,0.10580835396274299
6.188395999999999,9.336194665283605,0.1053050468427515
6.192983999999999,9.333445163781965,0.10482394529219899
6.197579999999999,9.329018978099176,0.10434731125628613
6.202167999999999,9.321894489073447,0.10388722382207156
6.206767999999999,9.317957042247242,0.10338951440962996
6.211355999999999,9.309522423182797,0.10291796859483615
6.215952,9.299411119937202,0.1024512357506334
6.220531999999999,9.281082721948632,0.10203729843522384
6.225123999999999,9.262099258940705,0.10161721114572406
6.229711999999999,9.235675950923305,0.10124762837247007
6.234299999999999,9.208108839029963,0.10089173734546596
6.238875999999999,9.180008846831413,0.1005233786406433
6.243475999999999,9.153174843222947,0.10013216116694681
6.248055999999998,9.127606828204565,0.09971813386605098
6.25264,9.100284085739517,0.09934373748420859
6.25724,9.070018670503233,0.0989935424587574
6.261835999999999,9.039508885838657,0.09865205454757253
6.266431999999998,9.01692768504014,0.09823634586983346
6.271023999999999,8.99692260287042,0.09781050780624294
6.275615999999999,8.977450401005909,0.0973946653508126
6.280195999999998,8.95916614446597,0.09699487907951329
6.284787999999999,8.944113071574181,0.09659060358328254
6.289375999999999,8.934456605368279,0.09615748086304605
6.293975999999999,8.925988084486946,0.09574044895269664
6.298559999999998,8.91678645532074,0.0953556306242606
6.303151999999999,8.914780301735714,0.0949339857692817
6.307739999999999,8.917026950960638,0.09450089742445003
6.312332,8.92622470633845,0.09404176222570494
6.316932,8.937509841488481,0.09359668493631837
6.321523999999998,8.956401147810759,0.09313151081737152
6.326099999999999,8.981588495266571,0.09263733737460898
6.330687999999999,9.009762656942247,0.09215341287479176
6.335275999999999,9.04026856781843,0.09167509384480627
6.339867999999999,9.07196242401918,0.09121607624480646
6.34446,9.110318875495905,0.09071255086628709
6.349051999999999,9.153050314496719,0.09019436994412187
6.353639999999999,9.197091883536249,0.08969019104987942
6.358227999999999,9.23847929068146,0.08923420532864049
6.362819999999999,9.275902405893644,0.08881183169941081
6.367407999999999,9.313980586125185,0.08839774119517801
6.371987999999998,9.353080385518519,0.08797815914117288
6.376583999999999,9.394101238521294,0.08754988890222927
6.381175999999998,9.431402169019336,0.08714562040922783
6.385763999999998,9.467392969478661,0.0867293950189388
6.390355999999999,9.501951455185129,0.08630746743646969
6.394943999999999,9.528947911167974,0.0859320530663891
6.399539999999998,9.55120282548429,0.08558663775850664
6.404115999999998,9.571903240333603,0.08524153826337613
6.408715999999998,9.586551983477673,0.08491145414142179
6.413303999999998,9.601156585173113,0.08455347069666957
6.417903999999998,9.61138619934446,0.08421013525429437
6.422491999999998,9.621327302638887,0.08384787839907953
6.427091999999998,9.630491156199813,0.08348611164710946
6.431676,9.641287552493258,0.0830943340923499
6.436267999999998,9.652328318214996,0.08269647074706257
6.440867999999998,9.662836203631525,0.08228967023537105
6.445463999999999,9.673299947599425,0.08185424670460884
6.450052,9.684374615138053,0.08139602058954372
6.454635999999999,9.69941357460971,0.08091247614935843
6.459223999999999,9.712242969595005,0.08041962366378878
6.463807999999998,9.720819561770352,0.07993275071589921
6.468395999999999,9.726942220031047,0.07944755914615649
6.472987999999999,9.732165443844096,0.07896452778860587
6.47758,9.74110859016188,0.0784666422043864
6.482171999999999,9.751972790089107,0.07795979106533397
6.486763999999999,9.764102978606417,0.07743352249915908
6.491351999999999,9.778642959589751,0.0768785813967645
6.495947999999999,9.788807953048993,0.07633222392895257
6.500535999999999,9.804613922622414,0.0757596650758216
6.505123999999999,9.816455600262804,0.07521336060506337
6.509732,9.829318897064988,0.07466070677814447
6.514311999999999,9.838995151667648,0.07413488109599715
6.51892,9.842908245441983,0.07363662671570197
6.523511999999998,9.842612677854998,0.07317215030380972
6.528115999999999,9.837819938029773,0.07272058826883476
6.532708,9.832127763756901,0.07227213713928102
6.537308,9.8250474161798,0.07184424871393866
6.541903999999999,9.820787556659784,0.07140665291190873
6.546503999999999,9.81407376322512,0.07096714142177142
6.551095999999999,9.810835522866899,0.0705241255128298
6.555675999999998,9.810173401137476,0.07007877086514591
6.560271999999999,9.80848966024626,0.06964010546770642
6.564863999999998,9.808849157678631,0.0691881487966311
6.569463999999998,9.807531970929853,0.0687370581100109
6.574048,9.803272111409838,0.06830060322059288
6.578647999999999,9.806452096899298,0.06784201978600739
6.583239999999998,9.810287147408115,0.06739186712478037
6.587824,9.820418239050467,0.06693025994638303
6.592412,9.830427145978675,0.06647506426363138
6.597003999999998,9.84493322514512,0.06601325011428036
6.601603999999998,9.857396065987977,0.0655637289910634
6.606195999999999,9.87112489542092,0.0650991458264496
6.610783999999999,9.891882874272273,0.06459732381724302
6.615379999999998,9.912885222551918,0.06408594319044202
6.619955999999998,9.93556425501271,0.06357680022998864
6.624555999999998,9.957343853025856,0.06307053658684547
6.629143999999998,9.981166689362588,0.06255432061493013
6.63374,9.998326930423351,0.06206190585744541
6.638331999999998,10.014221182894026,0.06158404257499573
6.642919999999998,10.02766150145005,0.06110310941434569
6.647516,10.04314505832966,0.06061343231272467
6.652092,10.058872984637562,0.06011566896389923
6.65668,10.076399779840761,0.05961822250759778
6.661283999999998,10.09086171755858,0.059136986156568004
6.665871999999999,10.105690209418835,0.058642296728830784
6.670468,10.114877725164911,0.05816520172630143
6.675051999999999,10.12430961033928,0.057681577991492525
6.679647999999999,10.128100519399466,0.05721258083406288
6.684239999999999,10.130336928992651,0.05673754021098992
6.688839999999999,10.126155112738154,0.0562722677291383
6.693432,10.126714838150187,0.05579570697197145
6.69802,10.127152378848079,0.05532319162352187
6.702623999999998,10.123503442898793,0.05487081670893861
6.707211999999998,10.121531191130655,0.054421011339928445
6.711808,10.120580558524313,0.05396734334293205
6.716396,10.117464502880239,0.05352621706225343
6.720999999999998,10.1074414825319,0.05310806384368752
6.725587999999998,10.101915634421802,0.05268649353306876
6.730187999999998,10.095368167149912,0.052267933937463235
6.734772,10.085511472964347,0.05187022507106419
6.739363999999998,10.066704575750933,0.051504166691937796
6.74396,10.043566832462057,0.05116298684897108
6.748551999999998,10.012744874735409,0.05083993177430762
6.753139999999998,9.981678547580472,0.050523203468323404
6.757739999999998,9.950778546588309,0.050230416410039974
6.762327999999998,9.916813688110766,0.04994935401864809
6.766912,9.87479806105302,0.04969817045517731
6.771491999999999,9.831394260691045,0.0494624601537438
6.776083999999999,9.78149419121587,0.04926494577825763
6.780676,9.728407079541169,0.04908297055854403
6.785255999999999,9.665714699819262,0.04892259448788535
6.789852,9.600734712345474,0.04877811935427851
6.794427999999998,9.531668248224513,0.048649905332582816
6.799023999999999,9.456716438561083,0.048538448933792985
6.803607999999999,9.372692241155658,0.04846213653647645
6.808195999999999,9.28560318626485,0.04839804054631102
6.812799999999999,9.19749251221225,0.04833752786346041
6.817391999999998,9.101697623721886,0.04829417580354166
6.821979999999998,9.003859496907934,0.048258088751854514
6.826575999999999,8.904755381503897,0.048235560996249864
6.831167999999998,8.807694504423445,0.048202010102917726
6.835771999999999,8.709489823467054,0.048177930486149025
6.840359999999999,8.61194020753002,0.04816234722724721
6.844955999999998,8.507605811602872,0.048166917018032475
6.849543999999998,8.395831570666246,0.048182090357824676
6.854144,8.281114656958385,0.04820652429754657
6.858723999999999,8.166642112678817,0.04821947380685002
6.863319999999998,8.049715634484595,0.048220555297850416
6.867903999999999,7.936098383204048,0.04819408273588505
6.872499999999999,7.824402185532941,0.0481610544547261
6.877091999999999,7.710662749538247,0.048138418433926314
6.881683999999998,7.595124444648257,0.048113850096938617
6.886287999999999,7.48060775892006,0.04808242306150735
6.890884,7.3653138234583615,0.04804374720850354
6.895471999999998,7.250142072710809,0.04800107366015142
6.900067999999999,7.133826518087317,0.04797151503536522
6.904655999999999,7.020575820949205,0.04792045970128288
6.909251999999999,6.906547874077591,0.04786107181243836
6.913839999999999,6.789577254434742,0.047812986390892626
6.918431999999999,6.671174320039034,0.04774353092730878
6.923027999999999,6.5526492009291815,0.04767605910844743
6.927603999999999,6.433469016799971,0.047593771342291605
6.932195999999999,6.312489963775466,0.04750960635367996
6.936787999999998,6.19739625629343,0.04739666876705444
6.941379999999999,6.0821803640972485,0.04729126454292832
6.945967999999999,5.964266168558123,0.047182440410545506
6.950555999999999,5.843942180552974,0.0471092702465321
6.955151999999998,5.724273257567182,0.04704657826782214
6.959736,5.60039567322007,0.04701940695294132
6.964315999999998,5.473697600815869,0.046997210951219705
6.968912,5.349820016468757,0.04696805101453915
6.973503999999998,5.220301456007467,0.046953992327472285
6.978107999999999,5.0859191691655,0.046967475886252524
6.982688,4.948472024838153,0.047011054218657075
6.987288,4.814089737996186,0.04702463280677288
6.991876,4.682117243620242,0.04698730291586164
6.996476,4.547079891758919,0.046969193869999336
7.001064,4.412575420202807,0.046983747015572015
7.005664,4.280114186970281,0.046977091736574
7.010259999999999,4.147286399595319,0.04699889195991826
7.014855999999998,4.0086954513920325,0.04705798164799255
7.019443999999998,3.869082884026952,0.047126143242277964
7.024035999999999,3.730491935823666,0.047178633601783586
7.028643999999998,3.588058880401496,0.04724700141094764
7.033235999999999,3.4535544088453833,0.047228009206180185
7.037835999999999,3.320848806184567,0.047205396255865825
7.042427999999999,3.191208061009131,0.047153036963742595
7.047015999999999,3.0577252086148117,0.04713653575273123
7.051607999999998,2.9226878567534884,0.04709472099010543
7.056187999999999,2.7866288857303707,0.04707316195989155
7.060768,2.6486488610978123,0.04707676348117588
7.065367999999999,2.5134893245223435,0.04706711180963461
7.069967999999999,2.3851145679369923,0.04696249869566147
7.074551999999999,2.264424025789406,0.046757379979095556
7.079139999999999,2.1397691917087918,0.04658618158806273
7.083739999999999,2.007963023495623,0.04424044073330112
7.08832,1.8778335394636039,0.04189676752794018
