Time,Force,Position
6.628008,0.5512701455958546,0.012178474066315647
6.632599999999999,0.4928951893960015,0.009858379335206202
6.637187999999999,0.43668565623388017,0.007505355364089476
6.641775999999999,0.38995920640482007,0.005075029456497418
6.646372,0.34413219102340786,0.002642929016145774
6.650968,0.3063559442221981,0.0
6.655572,0.27368779322995596,0.0
6.660172,0.2402329903180699,0.0
6.664763999999999,0.21565974935465843,0.0
6.669344,0.19042204118574874,0.0
6.673939999999999,0.16224166024560419,0.0
6.67852,0.1368817673625488,0.0
6.683124,0.11127750505120208,0.0
6.687712,0.08657267718750324,0.0
6.692312,0.06558777182854146,0.0
6.696903999999999,0.051387646459697345,0.0
6.701496,0.04192906275738288,0.0
6.706079999999999,0.034269347950364126,0.0
6.710672,0.026731817857491052,0.0
6.715255999999999,0.01984935278397541,0.0
6.719848,0.013866322158107616,0.0
6.724436,0.012624833198769496,0.0
6.729019999999999,0.012038409258788813,0.0
6.7336,0.008509312547573233,0.0
6.738176,0.006779084731653357,0.0
6.742764,0.009786378214994902,0.0
6.74734,0.027449471552470985,0.0
6.751931999999999,0.06456345004538205,0.0
6.756524,0.11751177153085327,0.009623747704367355
6.761112,0.19240905353503984,0.018750377094970697
6.765712,0.29243293607132625,0.02727506709483099
6.7703,0.41157588888309715,0.03581806320319332
6.774888,0.5479168583609111,0.04447640863062115
6.77948,0.7046428867042944,0.05304174244583918
6.784068,0.8835528428085426,0.061474195844260913
6.788664,1.0830922272066514,0.06982830492062914
6.7932440000000005,1.3068587776892122,0.0780240287502863
6.79784,1.5510103870373424,0.08619867234999061
6.802428,1.816690859126981,0.09431494102753843
6.807032,2.1028785747963346,0.10240913129083161
6.811616,2.4131712718359943,0.11041838425098627
6.816216,2.7458922660648106,0.11837656013877526
6.820808,3.1021853613587225,0.12626065860879013
6.825404,3.480618242964871,0.13408379615903107
6.82998,3.8795922699676244,0.14182701560630118
6.834575999999999,4.283410381533173,0.14957688155484972
6.839175999999999,4.683454189513617,0.15725626873296428
6.843772,5.0706852079838525,0.1649265763798339
6.84836,5.446569653513626,0.1629150872529912
6.852944,5.801824670749537,0.1614070628304827
6.857524000000001,6.130276403272198,0.16051651801831862
6.86212,6.439975619661812,0.159588551052862
6.86672,6.732965558241965,0.15851979748474215
6.871300000000001,7.0038937537754,0.1575595118460208
6.875892,7.250961337366819,0.15674768461606814
6.880468,7.478665481254463,0.15598403325555213
6.88506,7.678011840961853,0.1554146084077571
6.889644,7.857339695946111,0.15484691246182108
6.894232,8.016771230921382,0.15428805212677488
6.898844,8.159371303373048,0.1536680017043338
6.903432,8.276678449129836,0.15312251493474677
6.908040000000001,8.370247167658757,0.1526240321306395
6.912628000000001,8.43611316702678,0.15223426952186433
6.917216000000001,8.47979523863394,0.15187129309619063
6.921812,8.503791457843514,0.15154336326360565
6.926412,8.51575213727638,0.15119810444716206
6.931004000000001,8.518874558763802,0.15088712069106114
6.935592000000001,8.520232013172814,0.15052616129760432
6.940184,8.515249284999665,0.15020830800210078
6.944768000000001,8.512143468987329,0.1498296866175516
6.949368000000001,8.510181456850935,0.1494268519438986
6.953956000000001,8.506420575819241,0.1490446447853229
6.958556000000001,8.50151589091161,0.14868547297286414
6.963144000000001,8.499187324632777,0.14830062796452195
6.967736,8.501722484734621,0.14784481108908595
6.972328,8.504013275408171,0.14740295504139775
6.976916,8.51337735694876,0.14688326183680053
6.981520000000001,8.524295937956353,0.14635728354864
6.986111999999999,8.53309323737484,0.1459054119090707
6.9907,8.53874763604243,0.1455454884673944
6.995296000000001,8.547266664215739,0.14518260995944357
6.999884000000001,8.559916310484848,0.14478882383311387
7.004468,8.577351639869116,0.14436296271759383
7.009060000000001,8.596263425454872,0.14397034835495923
7.01364,8.615874417508614,0.14361566599535247
7.018223999999999,8.638105669639778,0.143270769756182
7.022804,8.660991986790302,0.14293134409758346
7.02738,8.681101957332364,0.14266290080550761
7.031975999999999,8.703421492360784,0.14239074570850777
7.036552,8.723864115228393,0.14217895172717282
7.04114,8.744717433687068,0.14198177347687346
7.045736000000001,8.773665662174572,0.14170123776143845
7.050324000000001,8.806333813166814,0.14137883776256022
7.054916,8.841411756625082,0.14101151626931346
7.059512000000001,8.87252540815032,0.1407025667210543
7.064104,8.904127798532143,0.14037253416678377
7.068684,8.93327625499931,0.1400616830092316
7.073284,8.960992396713621,0.13975370202705437
7.077868,8.990174754997678,0.13937576539751784
7.082468,9.018657906813752,0.13896357758436478
7.087064000000001,9.045420233000044,0.1385334779857774
7.091664000000001,9.068174125804681,0.1381266844579672
7.096256,9.090473181569628,0.13767469546762512
7.100848,9.111540150561376,0.1371810437285603
7.105436,9.130231228903991,0.13666546711537889
7.110032,9.146790786025763,0.136116183097794
7.114616000000001,9.159341909765876,0.13558786791454233
7.119212,9.170416577304504,0.13502642694636843
7.123796,9.180914223089292,0.13442707114614538
7.128392000000001,9.192511531301394,0.13377673704644516
7.132976,9.204431252207302,0.13307771327878531
7.137572,9.205147064150372,0.13246762583862234
7.142152,9.200955008264138,0.13188550239196242
7.146731999999999,9.191610715120309,0.13134208187044263
7.151328,9.182100095813704,0.13077133218403342
7.1559040000000005,9.169113923430654,0.1302268929462957
7.1604920000000005,9.156249935761748,0.1296766737728635
7.165088,9.140932014178189,0.12913803330624823
7.169676,9.12447028871869,0.12861809299211233
7.174264,9.106864759383255,0.12811612965403085
7.178859999999999,9.088770491191235,0.12763584418503915
7.1834560000000005,9.073252341628015,0.1271366737233956
7.188052,9.055857279903977,0.12668960878663313
7.1926440000000005,9.03772910989507,0.12627551747570992
7.197235999999999,9.019645081334788,0.12589216357522828
7.201823999999999,9.005447301442016,0.12549779396098387
7.206423999999999,8.993459086035609,0.1251017825101883
7.211011999999999,8.984457684849064,0.12470247663551107
7.215608,8.971780502606409,0.12437062265546697
7.220196,8.95837021207888,0.1240723909941914
7.224796,8.946025682161771,0.123792432510467
7.22938,8.941287323416914,0.12346653041637039
7.233972,8.940679582767856,0.12312012577051314
7.23856,8.945101894662248,0.12274672390893696
7.243156,8.95377700936659,0.12234935163165668
7.247748,8.964783873271436,0.12194649979264767
7.252339999999999,8.975546367747995,0.12155580889887041
7.256927999999999,8.991583284196295,0.12112898673876782
7.26152,9.010074134559247,0.1206940896890608
7.266112000000001,9.035349764912315,0.12019195978533259
7.270700000000001,9.065611306360205,0.11963762909349449
7.275288000000001,9.097138836398182,0.11906520345751946
7.279884,9.13311939722577,0.11843002852222559
7.284476000000001,9.172164815538737,0.11776203711161366
7.289055999999999,9.215907634069607,0.11702429141657494
7.293652000000001,9.253598780895235,0.11632412399828765
7.298240000000001,9.289080363234499,0.11562161256820543
7.302827999999999,9.324928499716203,0.1149074992721427
7.307436,9.364618743416786,0.11415675663352551
7.312024,9.4049199106881,0.11338210748961432
7.316619999999999,9.444810382368349,0.11259673322060271
7.321212,9.483390724009885,0.11180991662306211
7.325816,9.520294381470272,0.1110349785558105
7.330407999999999,9.554988474444293,0.11026372039052121
7.334995999999999,9.586207014341875,0.10951609518073326
7.339604,9.617914293096037,0.10875030715391348
7.344204,9.650232495420926,0.10796153141680795
7.3488,9.67739846048822,0.10720020660946435
7.353376,9.70607478357389,0.10641513853401405
7.357968,9.7252680233265,0.10570899070980674
7.362556,9.739064656393223,0.10503964106515998
7.367159999999999,9.749141366955207,0.1043988118872772
7.371747999999999,9.759218077517193,0.10376270381432315
7.376335999999999,9.765941419716878,0.10313903184895802
7.380928,9.766657231659948,0.1025723505309101
7.38552,9.773791269450696,0.10196610046992174
7.39012,9.788731706393357,0.10129895271800639
7.394711999999999,9.801995459154867,0.10063862913929726
7.399311999999999,9.813049647430018,0.09997412606708013
7.403911999999999,9.824103835705168,0.09931155207323832
7.408504,9.83233753592323,0.09866771657319201
7.413096,9.838894551960141,0.0980300102482953
7.417684,9.843119818796545,0.09739094397923109
7.42228,9.846323466471159,0.09676212994518835
7.426868,9.85067091802171,0.09611990986001688
7.431463999999999,9.857961042343492,0.09545849815482171
7.436056,9.86435173221763,0.0948025814962734
7.440648,9.875361779044152,0.09412196857659863
7.445236,9.878565426718763,0.09349887802259188
7.449824,9.891618711868873,0.09280307751006792
7.454415999999999,9.90557143146663,0.09210327065945806
7.459003999999999,9.919524151064387,0.09140253721711247
7.463584,9.92861314428147,0.09073712569998296
7.468179999999999,9.939256636965554,0.09007392880176293
7.472764000000001,9.949122879916137,0.08940677983862413
7.477367999999999,9.956535188952069,0.08874551303020528
7.48196,9.956018914121943,0.08814517230407794
7.486548,9.953581585682374,0.08755560737497162
7.491143999999999,9.953964745299896,0.0869511221452041
7.49574,9.952426851307976,0.08635828408083679
7.500336,9.956652118144381,0.0857316251303834
7.504919999999999,9.959733581104848,0.08511735096644107
7.509519999999999,9.964247358818172,0.08450926146671854
7.514107999999999,9.969538386264997,0.08390319927923404
7.5187,9.971886740940588,0.08331600666701015
7.523280000000001,9.965407077302475,0.08278532281579162
7.527876,9.958560859521922,0.0822681579730756
7.532456000000001,9.950815207293726,0.08175592832038281
7.537052,9.947033846998554,0.08121510878992466
7.541647999999999,9.936101152570831,0.08072968199733432
7.546247999999999,9.925823523162464,0.08025022869103654
7.55084,9.91734476264939,0.0797643135881903
7.555432000000001,9.908866002136318,0.0792761050649379
7.560023999999999,9.89858837272795,0.07879298262028127
7.564616,9.892807915557821,0.07829477374113365
7.569204,9.88179717786458,0.07783636775593472
7.573799999999999,9.87156368990484,0.07737794590875058
7.578396000000001,9.86582737418334,0.07690571402458579
7.582992,9.858825069871756,0.07645081377367406
7.587587999999999,9.855542688064906,0.07598133112778635
7.592175999999999,9.848173829610884,0.07554154943894685
7.596768,9.84056060172857,0.07510958436196172
7.601348000000001,9.836667296350992,0.07466433977503543
7.605939999999999,9.82880969904039,0.07424110363387235
7.610536000000001,9.825327089253879,0.07381046381603863
7.615124000000001,9.83042812835278,0.07333990530234658
7.619724000000001,9.837205851632831,0.07287004012091806
7.624315999999999,9.841573782446858,0.07242828307712455
7.628908,9.848273462461393,0.07199472023929893
7.633500000000001,9.854973142475929,0.07156019587664271
7.6381,9.860773388042816,0.07112823530706694
7.642691999999999,9.869271936952643,0.07069222793436782
7.647288,9.885088146157802,0.07023743042764025
7.651879999999999,9.904379908439408,0.06978057266814344
7.65646,9.923671670721012,0.06932630426614335
7.66106,9.948360039688502,0.06885963208441205
7.665648,9.974725092837144,0.06839386057026699
7.670236,10.000312896252282,0.06792914591738652
7.674819999999999,10.02565633023913,0.06747494697365712
7.679412,10.047934906740599,0.06704141448240336
7.684007999999999,10.07009129852792,0.06661277458699329
7.6886,10.097111416695917,0.06616477273857507
7.6932,10.122454850682765,0.06571958471220563
7.697792000000001,10.15458306465973,0.06524730695480556
7.702380000000001,10.1849124097414,0.06478092861947668
7.706964,10.210378028442394,0.06433728587584531
7.711552,10.235432951552323,0.06388023478967417
7.716131999999999,10.258811190481099,0.06342104085976816
7.720728,10.279735495495228,0.0629592930558613
7.725316,10.300781985223498,0.06249280362021911
7.729907999999999,10.31990742134233,0.06203274936720067
7.734495999999999,10.333636250775273,0.06158179622328239
7.739088,10.341968473522329,0.06114093915950086
7.743676,10.345803524031146,0.06070627858593137
7.748252,10.348494770664024,0.0602822509918183
7.752847999999999,10.350653136991692,0.0598475514395115
7.757435999999999,10.350601938832998,0.059398508797114516
7.762023999999999,10.34760806790307,0.058961093822759054
7.766611999999999,10.342937512791991,0.05852096657949254
7.771204,10.33659027349976,0.05807723505349873
7.775799999999999,10.329343599759884,0.05763345872903045
7.780387999999999,10.315189961315744,0.05721661389440248
7.784987999999999,10.297072030938578,0.05681487660132278
7.789575999999999,10.271147701409495,0.05643954939287874
7.794172,10.242525068537471,0.05606490434161127
7.798756,10.212225751484299,0.05568493268313523
7.803356,10.179516641965101,0.055325925495313476
7.807951999999999,10.14885077076949,0.054955042642582844
7.812544,10.117163280412088,0.05458714305077651
7.817139999999999,10.086253039788186,0.05422117759040477
7.821732,10.055098429735995,0.053861332819460477
7.826324,10.023455080827219,0.05351599791134581
7.830908,9.986948005537768,0.05318311741693599
7.835496,9.950196560820023,0.05285619206637552
7.840079999999999,9.906782520826308,0.05254289282864519
7.844667999999999,9.859404188899562,0.05224185166662161
7.849256,9.814235421459179,0.05195448869771498
7.853848,9.767922850142856,0.051673622375390436
7.858439999999999,9.718545421341155,0.051403955945455895
7.863036,9.666880384787575,0.051149483064057186
7.867624,9.615215348233994,0.05089249194966547
7.872215999999999,9.564694115556353,0.0506235653292422
7.876803999999999,9.513151263716914,0.05035622829607435
7.881379999999999,9.462507846325126,0.050085649438817714
7.885976,9.409454636467315,0.0498350103882533
7.890564,9.354768883876979,0.04960886045760267
7.895155999999999,9.295219404905971,0.04939478086612456
7.899752,9.229418026250054,0.04921107875338086
7.90434,9.155688063728078,0.04905333799460814
7.908936,9.077094374825426,0.04890753640484512
7.913512,8.996701817027482,0.048759287307518544
7.918107999999999,8.913488771172446,0.048613619682701385
7.922695999999999,8.833751278393857,0.048469158326935685
7.927288,8.753769416186975,0.04833184488448822
7.931871999999999,8.675830792303682,0.048181262258473745
7.936471999999999,8.593805691773213,0.04804792014586199
7.941059999999999,8.50409637680498,0.047932752106439755
7.945652,8.408257346865986,0.047846790968942066
7.95024,8.30743240583217,0.047780350283026726
7.954835999999999,8.205708030350705,0.04771188900639637
7.95944,8.097976124612627,0.04766729880362879
7.964032,7.986279926941519,0.047634661554367075
7.96862,7.869475633461445,0.047627968415924926
7.973216,7.7508724710860735,0.04761776730996458
7.977804,7.629571005367758,0.047607207866615354
7.982392,7.506592855468293,0.04759154949159108
7.98698,7.386557378340066,0.04756228244211562
7.991572000000001,7.267665705087775,0.0475207200186409
7.996163999999999,7.154292823235516,0.047473636806428514
8.000744000000001,7.037977268612025,0.047437519732535176
8.005336,6.919618475664945,0.04741090994434482
8.009923999999998,6.802159117165513,0.04738169548678353
8.014503999999999,6.677137728942462,0.04736913686519168
8.019112,6.544676495709937,0.047368441860945416
8.023699999999998,6.410949273887327,0.047383393918445996
8.028296000000001,6.2773442367788626,0.047392864057098104
8.032884,6.144760818832191,0.04739675361282103
8.037472000000001,6.015364443085046,0.047375037053874955
8.042076000000002,5.892630662613873,0.047332994682437284
8.046672000000001,5.769774697428555,0.04729576375790564
8.051268,5.648839785852678,0.04725156881813952
8.055864,5.525739451239068,0.04723073177897366
8.060455999999999,5.403660735787251,0.04720633247640568
8.065036,5.282114900640645,0.0472042538175574
8.069636,5.163267368836983,0.04720213197616895
8.074224000000001,5.047362509804556,0.047178939657141546
8.078828000000001,4.929292227734396,0.0471790129175252
8.08342,4.810078141788297,0.04719655555433827
8.088016,4.689065186946903,0.04721385526461298
8.092596,4.57189433932439,0.04721275222179172
8.097183999999999,4.4575439797589675,0.047199610721359676
8.101772,4.340006577994018,0.04723001566109561
8.106364,4.226966348467308,0.04726686612700816
8.110955999999998,4.118301106464692,0.04732413479178116
8.11554,4.009635864462076,0.047382955019475634
8.120128000000001,3.905467794697699,0.04744320693154092
8.124707999999998,3.8042423977045567,0.04747586201460474
8.129304000000001,3.7046936848925647,0.04751794723431027
8.133896,3.602324484023484,0.047569201150015394
8.138487999999999,3.4999552831544025,0.04762157678355219
8.143076,3.3965644631235272,0.047692087028534356
8.147668,3.2961163158638875,0.04774620274675756
8.152256000000001,3.1995102758231306,0.047773892004045755
8.156844,3.098284878829989,0.047831619376741706
8.161452,2.9952606129415513,0.047892081949843776
8.166039999999999,2.8881498704059396,0.04802293286451584
8.170635999999998,2.778340824527384,0.048177927982454065
8.175228,2.6704528322582703,0.04832976618442546
8.179832000000001,2.562687024703301,0.048462906141275304
8.184428,2.4537774132723937,0.048648153224322525
8.189024,2.3438461826796932,0.04885669064270695
8.19362,2.2362025598388704,0.049007866491129
8.198211999999998,2.129580556159841,0.04915545265859134
8.202804,2.0232029219091032,0.04929211577313347
8.207384000000001,1.9177247221060132,0.049444127813340205
8.211984000000001,1.8086487845123316,0.04702019378308456
8.216563999999998,1.6992062927762133,0.04462476493510989
8.221163999999998,1.589885985754241,0.04222942893096576
8.225760000000001,1.4823645476275635,0.03983424147630351
8.230360000000001,1.3804840856150649,0.03743921494934805
8.234952,1.2795030580502142,0.03502739757716092
8.239548,1.1840408218853966,0.03261499487956413
8.244136000000001,1.0893558354540809,0.030220506883413847
8.248728,1.0049311820893283,0.027786554334795197
8.253319999999999,0.9250037009628153,0.025350375427524205
8.257912000000001,0.8527604342740676,0.022865303599440532
8.262492000000002,0.7869353934330006,0.020346518003360275
8.267076,0.7229092214872292,0.01782087715022279
8.271656,0.661092614027819,0.015314687137984437
8.276240000000001,0.6047947979684414,0.012768880805193622
8.280823999999999,0.5532385235755943,0.010212641244651531
8.285404,0.5069566711544887,0.007678198354755316
8.289984,0.46157425318103096,0.005134798993671686
8.294568000000002,0.4265743529882823,0.002575498351586103
8.299156,0.3940283867101858,0.0
8.303740000000001,0.36867789601327217,0.0
8.308336,0.34230578615456503,0.0
8.312920000000002,0.3183876102105101,0.0
8.317524000000002,0.2971677376093987,0.0
8.322116000000001,0.2699403347516718,0.0
8.326708,0.250152776903419,0.0
8.331296000000002,0.2279018829543724,0.0
8.335900000000002,0.2083492923482693,0.0
8.34048,0.18777508258037268,0.0
8.34508,0.1689997417077718,0.0
8.349668000000001,0.14998003140687954,0.0
8.354268000000001,0.13275919000128303,0.0
8.35886,0.11823665193863005,0.0
8.363452000000002,0.10677897136135762,0.0
8.368032,0.0953212907840852,0.0
8.372624000000002,0.08361924077852144,0.0
8.377220000000001,0.07191719077295769,0.0
