Time,Force,Position
7.612640000000001,0.23785779159419332,0.0
7.617244000000001,0.23491511882295846,0.0
7.621836,0.23197244605172354,0.0
7.626427999999999,0.22146774355686885,0.0
7.631020000000001,0.2080203682907792,0.0
7.635616000000001,0.19727129636763313,0.0
7.640196000000001,0.18766602832042628,0.0
7.644796000000001,0.17613970666377804,0.0
7.649388,0.16113783193068407,0.0
7.653976000000002,0.15022243384476416,0.0
7.658552000000002,0.14020647020649213,0.0
7.663148000000001,0.13211156017766146,0.0
7.667752000000002,0.1229950309870373,0.0
7.672344000000001,0.11567737069170883,0.0
7.676935999999999,0.10884844925296303,0.0
7.681528000000002,0.10573945031895429,0.0
7.686116,0.09956559389956504,0.0
7.690711999999999,0.09057124942308652,0.0
7.695292,0.08133253551831665,0.0
7.6998760000000015,0.07503649438478169,0.0
7.704468,0.06771883408945317,0.0
7.709048000000001,0.05950700452780547,0.0
7.713648000000001,0.05141735968030344,0.0
7.718232000000002,0.04806925649933202,0.0
7.722824000000001,0.046642206927801966,0.0
7.727416,0.043416288460976206,0.0
7.732004000000002,0.039046566118211265,0.0
7.736608000000002,0.03659789738488769,0.0
7.741196,0.03659789738488769,0.0
7.745800000000001,0.0337826745091271,0.0
7.750387999999999,0.029945832471572984,0.0
7.754976000000001,0.026636605557901073,0.0
7.759572,0.026270051415464058,0.0
7.764163999999999,0.024593367234314024,0.0
7.7687560000000015,0.020634340482614234,0.0
7.773332000000002,0.016675313730914455,0.0
7.777928000000001,0.013860090855153863,0.0
7.782515999999999,0.01104486797939327,0.0
7.787112000000002,0.00936818379824324,0.0
7.791704000000001,0.011289237407684612,0.0
7.796296,0.014886975198276017,0.0
7.800896,0.021544305292919355,0.0
7.805488000000002,0.031144308158797592,0.0
7.810072,0.039600507148736634,0.0
7.814667999999999,0.049977759748117044,0.0
7.819243999999999,0.06215388124279317,0.0
7.823828000000001,0.07588450220447365,0.0
7.828412000000002,0.08606152682419088,0.0
7.833004000000001,0.09551070834036365,0.0
7.837591999999999,0.10745270003848814,0.0
7.842172,0.12213713652818432,0.0
7.846756000000001,0.1404687174384287,0.0
7.851343999999999,0.16183125401716428,0.0
7.855932000000001,0.19011099493190195,0.0
7.860519999999999,0.22681303301968933,0.0
7.8651,0.2695328409958309,0.006791935745493573
7.869684000000001,0.31868111445139197,0.01390356181858821
7.874276,0.37515728783402025,0.021181956558636167
7.878867999999999,0.4350906172892724,0.02937275941408425
7.883471999999999,0.5043611831782894,0.03758347166111757
7.888047999999999,0.5818251816251321,0.046102937838532476
7.892640000000002,0.668304003811931,0.05480904239703441
7.897216000000002,0.7652299644915447,0.06360650528562846
7.901819999999999,0.8819639622828885,0.07221907968710822
7.9064,1.013764455519432,0.08075168203533786
7.910995999999999,1.1629631934016822,0.08919014062286837
7.915576,1.3328694028433101,0.09742072209500177
7.920168000000002,1.5274032343287165,0.10547015391585582
7.924752,1.741290265886159,0.11340408446391773
7.929347999999999,1.9703998794198363,0.12127890728057916
7.933923999999999,2.211545032730222,0.12917284304562132
7.938516000000002,2.460595107721514,0.13713931857549658
7.943104,2.7198377121455906,0.1450888914259132
7.947695999999999,2.986041662354298,0.1530568728051989
7.952288000000001,3.261494566099513,0.16096503112026217
7.956864000000001,3.5463966513609,0.1620000418158457
7.961456,3.8376389192044504,0.16268391425743356
7.966040000000001,4.134321935182516,0.16317184413685543
7.970628,4.438967436843528,0.16265638996874027
7.975223999999999,4.7413150911209225,0.1620733569051637
7.979812000000001,5.044918494356664,0.16110802756614406
7.984408,5.3451141481497375,0.15990740245942495
7.988996000000002,5.638382357975071,0.15856428775688539
7.993584,5.918260756536355,0.15734540308505807
7.99818,6.184016235548718,0.15620220017665268
8.002772000000002,6.4308189704483665,0.15513989833971756
8.007375999999999,6.656625722911719,0.15425474953024232
8.011951999999999,6.864956187463848,0.1535076656080237
8.016556,7.051968256885869,0.1529040855630536
8.021132,7.226534090940118,0.15230625430535735
8.025732,7.389142428483175,0.1516514284566991
8.030320000000001,7.541836507838629,0.1508842162810746
8.034920000000001,7.678608798749865,0.1501378084586065
8.039503999999999,7.805222462045204,0.14931700642902473
8.044096000000001,7.913382359716154,0.14858650912191979
8.04868,8.006974740430229,0.14792701974363998
8.053272000000002,8.088042842511008,0.1472862815937905
8.057864,8.155687231510852,0.14667217320515755
8.062456,8.21354978666897,0.14608465119861688
8.067044000000001,8.260731073537727,0.14552059509551893
8.071636,8.298419037441683,0.14499233206234668
8.076212,8.33074429647664,0.14446194754378364
8.080803999999999,8.357218111786016,0.14395158636227115
8.085388,8.379150613408523,0.14346467162140705
8.089968,8.397152724914893,0.14296384373858842
8.094548000000001,8.413722521668404,0.1424641774953107
8.099131999999999,8.424651342307738,0.14203685511833258
8.103720000000001,8.430672295117764,0.14164676824642117
8.10832,8.440901909289112,0.14118430658022452
8.112908,8.448144709240598,0.14073449478822583
8.117488,8.451911956115636,0.1403195206986613
8.122088,8.455923572418964,0.13989463458845786
8.126688,8.463899480655321,0.13941368222261613
8.131292,8.466356597491645,0.1389976508500195
8.135883999999999,8.472778006260997,0.13852357229843945
8.140476000000001,8.481487022782229,0.13800831530018345
8.145052000000002,8.493793777094051,0.13745843232531507
8.149652000000001,8.509698269196464,0.13687316825463197
8.15424,8.5240924032805,0.13633184585341626
8.158844,8.541106797441966,0.13580366740521743
8.163435999999999,8.556244279442616,0.13533357904991733
8.168032000000002,8.56819471924374,0.1349168697995053
8.172611999999999,8.583254157978871,0.13449146731107275
8.177204000000001,8.597580488429132,0.13410327683839393
8.181788,8.616936871422839,0.13368251441418155
8.186380000000002,8.640301687798203,0.1332435530642117
8.190968,8.672905218078338,0.13270574841478386
8.195552000000001,8.71053880090192,0.13213678173484797
8.20014,8.746784210421277,0.1316044345661028
8.204736000000002,8.779353838884521,0.13114529980332834
8.20932,8.81654282430015,0.130641291359845
8.213904000000001,8.847602094745021,0.13022364449912338
8.218492,8.874697073256863,0.1298603235138981
8.223068,8.90898752734989,0.1294325200432653
8.227660000000002,8.946098469500004,0.1289798368717241
8.232248,8.97936730443124,0.12857494650494777
8.236824,9.009160586286024,0.12820079101888274
8.241436000000002,9.03752155338795,0.12782961563502349
8.246028,9.06306203243279,0.12748810919807738
8.25062,9.088436185314851,0.12712278835012014
8.255212000000002,9.118385553700671,0.12668268318828574
8.259812000000002,9.145758803457696,0.1262577792835158
8.264415999999999,9.165525882042473,0.12588145615567492
8.268991999999999,9.183205580855036,0.12549935708974388
8.273584000000001,9.195610857695856,0.12516044053682157
8.278164000000002,9.207849808373902,0.12479847469909007
8.282760000000001,9.215835956242,0.12446615794709397
8.287344,9.219158605709085,0.1241464892692734
8.291943999999999,9.222559298441688,0.12379056754459679
8.296536000000001,9.230002326372835,0.1233514505201502
8.301128,9.233436920922324,0.1229289333416544
8.305719999999999,9.246310457356246,0.12238244163590872
8.310312000000001,9.26196034039863,0.12177926535933277
8.314912000000001,9.270903486716415,0.12121357749082483
8.319504,9.274694395776601,0.12068109029322938
8.324084000000001,9.275254121188635,0.12015744369357581
8.328676,9.273482097400164,0.11963733962701763
8.333264000000002,9.268112335821101,0.1191444534608388
8.337856,9.265396736136353,0.11859899055393766
8.342440000000002,9.25920558337516,0.11807499425676068
8.347016000000002,9.249416692823376,0.11757923342694736
8.351612000000001,9.247678570851791,0.11699234846509604
8.356188000000001,9.24671769861371,0.1163997568248956
8.36078,9.250376183328012,0.11576855715000955
8.365376,9.256977340813547,0.11510698184808553
8.36996,9.259858575794349,0.11447868625395213
8.374556,9.258120453822764,0.11388634187348298
8.379147999999999,9.255116343261095,0.1133148202996512
8.383752,9.248803005785756,0.11278915219317356
8.388344000000002,9.240446429986829,0.11228766538414227
8.392940000000001,9.23556540726435,0.11176738299498666
8.397540000000001,9.225576288732901,0.11130768341051017
8.402140000000001,9.211256324125987,0.11090382949801575
8.406732,9.198368674271933,0.11050232833836984
8.411320000000002,9.188179327760821,0.11008213832015351
8.415916000000001,9.186207075992684,0.10960231310301789
8.420504,9.186933127567492,0.10910387309081604
8.425100000000002,9.190235297771098,0.1085921093019173
8.429684,9.195091967441709,0.10808154070142002
8.434284,9.20444580935056,0.10754267519386732
8.438876000000002,9.217519573764145,0.10697854719964028
8.443468000000001,9.225240872940473,0.10648254921675565
8.448056,9.242445255449864,0.10591299425154443
8.452648000000002,9.256829149902163,0.10536744794144229
8.457244000000001,9.26712656770729,0.1048642904871086
8.46184,9.278856300265273,0.10436598332717259
8.466427999999999,9.295205389775642,0.10383401935894097
8.471024000000002,9.312209544305368,0.10330504446361669
8.475600000000002,9.33689791327286,0.10271547687530955
8.480200000000002,9.360075924221977,0.10215669182068694
8.484788,9.374670286285676,0.10166608859915803
8.489376000000002,9.388243029187585,0.10118670622349718
8.493968,9.407334563489526,0.10067181285987976
8.498548000000001,9.426303913077318,0.10016213718817395
8.503131999999999,9.443885089360883,0.09968033436003625
8.507716,9.456602539263773,0.09924239794783644
8.512296000000001,9.469975054186019,0.09881150875041014
8.516904000000002,9.485390807431852,0.09836281448225054
8.521492,9.494799030421069,0.09796902249770956
8.526088,9.503063449534347,0.09759249283563956
8.530680000000002,9.503154915353276,0.09729470425862635
8.53526,9.50373512002879,0.09697630948665026
8.539864,9.499329413609477,0.09670384856560016
8.544444,9.499543064142554,0.09640450214128508
8.549036,9.50474262577045,0.09606262886623548
8.553624000000001,9.509164937664845,0.09572039596508512
8.558224000000001,9.515386118454536,0.0953706806727519
8.562804000000002,9.528636448662635,0.09496271874736761
8.567404000000002,9.534080379718823,0.09461557871352184
8.571988,9.542833537688683,0.0942312430465704
8.576584000000002,9.557472041201011,0.09379992484031544
8.581168,9.568390622208605,0.09338876037707396
8.585759999999999,9.574934215692105,0.09299514818131872
8.590356000000002,9.582621613051542,0.09258774601980642
8.594948,9.590020499534061,0.09216022087517624
8.599528000000001,9.596764320997224,0.09172638019737069
8.60412,9.602730892726886,0.09129293317244125
8.608704000000001,9.605999161113601,0.09087294493210456
8.613296,9.612576656413992,0.09041480005862589
8.617887999999999,9.611836491419051,0.0899915583886547
8.622480000000001,9.618614214699104,0.08949011879792852
8.627072,9.627068622160303,0.08898683167700902
8.631652,9.629104803773824,0.08851425412538332
8.636244,9.62153571734014,0.08810509905801082
8.640836000000002,9.610368893115862,0.08771146616316172
8.645424,9.59932425360573,0.08731217499355629
8.650015999999999,9.584804061019154,0.08692289656799894
8.654604,9.562599653994813,0.08658289854766581
8.6592,9.542805039436494,0.0862094869351452
8.663791999999999,9.523132609592322,0.08583105319071901
8.668376,9.50423742948165,0.08545368161526593
8.67298,9.493925898256391,0.08502491784362175
8.677572,9.483492182316988,0.08459956803902544
8.682167999999999,9.473957900825233,0.08417119931306274
8.686756,9.464834314924545,0.0837585155649914
8.691348,9.456487978757359,0.08334633161225413
8.695936000000001,9.448019457876025,0.08293907043900779
8.700540000000002,9.4400838172999,0.08254276037714878
8.705132,9.435623729800225,0.082139336329374
8.709728,9.440402356205317,0.08169337046797079
8.714308,9.43778527904956,0.08131215292913593
8.718904,9.43210334440843,0.08095459500151425
8.7235,9.434638504510273,0.08056351860163788
8.728095999999999,9.443059010154586,0.08013254678291808
8.732684,9.45368908028526,0.07971203331396169
8.73728,9.46407478098764,0.07930118979390006
8.741868000000002,9.4754040575863,0.07891782575207247
8.746452,9.49110832170905,0.0785246033590693
8.751036000000001,9.507878346442222,0.07815544114585636
8.755628,9.523915262890526,0.07781697915196858
8.760224,9.538564006034592,0.07750168904475707
8.764812000000001,9.550802956712639,0.07721882885835382
8.769404,9.569460133238362,0.0769137744598469
8.773992000000002,9.58979399394524,0.07661055624865114
8.778584,9.611149473813908,0.07630129659142634
8.783172000000002,9.637779375654318,0.07598345566236003
8.78776,9.66686321140938,0.07566930100384643
8.792368000000002,9.69570267773615,0.07536512982119706
8.796956,9.723398340186984,0.07507580175219179
8.801548000000002,9.750727448495379,0.07480332385645716
8.806140000000001,9.788439074584481,0.07448708764475306
8.810740000000001,9.832813295949556,0.07414323862977686
8.815336,9.877065332600488,0.07380808597995234
8.819932,9.922505314575984,0.07349285395911906
8.824527999999999,9.96716804681798,0.07317698983613209
8.829112,10.014406897688774,0.072860467530199
8.833716,10.064954975473238,0.07251688340427508
8.838303999999999,10.116524672419498,0.07217061057210268
8.842900000000002,10.171281411565282,0.0718039791727802
8.847488,10.227304139301152,0.07142477302934312
8.852092,10.285492290074755,0.07103059405173535
8.856679999999999,10.341104322219559,0.0706401324060526
8.861279999999999,10.39017594380254,0.0702759889893184
8.865872000000001,10.432707154823692,0.06993543838593133
8.870464,10.47421674668305,0.06960306927591531
8.875072000000001,10.512495154894253,0.06926942517200237
8.879668,10.545743510562009,0.06893540033168047
8.884255999999999,10.58242327785758,0.06857278384233818
8.888848000000001,10.617426360972003,0.06821156386448439
8.893436,10.64727720682883,0.06785346963533578
8.898028000000002,10.671975815428059,0.06750085060750988
8.902607999999999,10.691400002055548,0.06715674434937123
8.907207999999999,10.706693570587232,0.0668094746978899
8.911796,10.723086801546232,0.06642703908739388
8.916388,10.737026098590578,0.06604071340061841
8.920980000000002,10.750799069472148,0.0656331132824815
8.925568,10.764283529476801,0.06520953516122437
8.930168,10.768773645004973,0.06479929730833885
8.934748,10.764269416056669,0.06440265988345785
8.939335999999999,10.75653400346021,0.06399934542419802
8.943932000000002,10.74544522250145,0.06359316964348047
8.94852,10.732801942075687,0.06318005872871717
8.953111999999999,10.719503596630567,0.06275831226528991
8.9577,10.714011650337358,0.062306373935513595
8.962292,10.709008442900734,0.061838413672581125
8.966884000000002,10.697587009616424,0.06138101373463158
8.971476000000001,10.690129868265146,0.06090630320643641
8.976072,10.674089078028453,0.06045667147274922
8.980648,10.654817104143605,0.05999734483677956
8.985248,10.635667314972906,0.059531485278278125
8.989824,10.614840841621053,0.05906244257051569
8.994428000000001,10.591971129945614,0.05860168971126321
8.999016,10.567957614394238,0.05814783859680497
9.003616,10.536137699690949,0.057719472293506886
9.0082,10.506238838597103,0.0572831291564851
9.012792,10.47123188169429,0.05686955794795183
9.017392,10.428418525639565,0.056480098812715755
9.021984000000002,10.391246145699018,0.056074313239011665
9.026584,10.359714741872649,0.05565291408667038
9.031176,10.32703953417034,0.05523781651650187
9.035756,10.293342707306238,0.054824867362535855
9.04034,10.263365802946874,0.05440380167542464
9.04492,10.235065582768659,0.05398374711358839
9.049512000000002,10.199203332866826,0.05357949996040354
9.054104,10.157211367994229,0.05320034353986022
9.058692,10.117551152322141,0.052828662177091305
9.063292,10.071516852251003,0.052491030780429486
9.06788,10.030101909132245,0.05214406846602028
9.072472,9.989630541909765,0.051823328977371366
9.077056,9.951857478030227,0.05149937276525299
9.081644,9.914372925027607,0.051194398162879344
9.086252,9.877665621758496,0.05089119969003607
9.090840000000002,9.840836133775232,0.050589840417925705
9.095428,9.808259448601918,0.050293183334219164
9.100024,9.772373536514932,0.05001670688965613
9.104612,9.738164308609097,0.04974202252127361
9.109204,9.704365776294326,0.049481392942289
9.1138,9.669834135694682,0.04924578519033273
9.118404,9.629705660429487,0.04904876323721826
9.122988,9.58626795825062,0.04887186516771068
9.127588,9.541319898053377,0.04871528389289534
9.13218,9.492163176494815,0.04857971454633524
9.136776,9.441862651060314,0.04845147113509007
9.14136,9.387353464264493,0.04834390028714655
9.14596,9.334643146363963,0.048234697611919765
9.150544000000002,9.28385388207288,0.048119220706172874
9.15514,9.234208421657733,0.04799304572202563
9.159736,9.180598669309559,0.04787882802667434
9.164328,9.12351336388494,0.047758792943096214
9.168928,9.06119777793721,0.04766499611350966
9.173528,8.989399108656416,0.047588833793441414
9.178116,8.913513962728448,0.04753030436519092
9.182712,8.837262262658045,0.04748460289719052
9.1873,8.756391205635255,0.04744187767945362
9.191884,8.677441202221909,0.047392774337707874
9.196472000000002,8.591828603532587,0.047356849684455526
9.201064,8.503151147357887,0.04733669036792429
9.20566,8.408177650049652,0.047315876967141256
9.210248000000002,8.31254908772206,0.04728559598585734
9.214844,8.217819959842117,0.04725493322383804
9.219432,8.121169778352732,0.04722964678732991
9.224024000000002,8.018756436035021,0.047220385363909774
9.228608,7.908658879279547,0.04723238370758598
9.233196,7.799460756971719,0.047246129330560965
9.237792,7.690384819378038,0.047251989132148606
9.24238,7.573380297918299,0.04729156880518882
9.24698,7.454332538134975,0.047341173157548024
9.251572,7.331442671132766,0.04740310119676692
9.256172,7.208552804130558,0.047463832971632786
9.260776000000002,7.083986252947201,0.04752028026893128
9.265364,6.966082297039814,0.0475606030836377
9.26996,6.846501656951278,0.04759625238635573
9.274536,6.7194811718532685,0.0476474034774223
9.279136,6.590417448431672,0.04771260168612452
9.28372,6.4525257066963695,0.047822276880932386
9.288324,6.320274941075246,0.04791996275391507
9.292912,6.193254455977235,0.04797738098865535
9.297504000000002,6.069054458936314,0.04802736902196698
9.302084,5.946653330790689,0.04807809734316695
9.306680000000002,5.822331149035622,0.04813854139130689
9.311268,5.700174390318288,0.04817600144148829
9.315864,5.580060869924543,0.04820230176586742
9.320452,5.466854314235059,0.048188766965014646
9.325048,5.357734235192749,0.04814050418868437
9.329636,5.2474703522745,0.04810400522615964
9.33422,5.137328654070397,0.048066209621461096
9.3388,5.026043151990355,0.04804795479184973
9.343396,4.918355387700904,0.048032992924093666
9.347988,4.807602765926074,0.048046763599078605
9.352576,4.697871763313035,0.04804958860171013
9.357168,4.58442083819526,0.04805987500686966
9.361756000000002,4.471869347525132,0.04807051341600355
9.366348,4.368023690454565,0.04802884303254415
9.37094,4.266998521441086,0.04797815162775245
9.375528,4.173002501846016,0.047867227253823495
9.38012,4.071688821955616,0.047760350695519725
9.3847,3.967432469293984,0.04766162648468488
9.389288,3.859211824699323,0.04759677887664646
9.393892,3.7464940078664215,0.047528556301129045
9.398484000000002,3.6385177327000515,0.047434009865699775
9.403088000000002,3.5275987847624464,0.04735345063604952
9.407668,3.4165576521106953,0.0472867324883057
9.412264000000002,3.302451661973564,0.04724501091829626
9.416844,3.1840148257609675,0.04728859708045476
9.421444,3.0607142631676942,0.04739946959507506
9.426032,2.945464469154624,0.04738065191059375
9.430632,2.831480663731638,0.04731538299183244
9.435216,2.7176190430227973,0.04723560064365681
9.439808,2.609520583142281,0.047105437688246356
9.444396,2.49847945049053,0.04700221838284925
9.448992,2.3882155675722814,0.04692091414262497
9.453576,2.2825710416064178,0.04680516093790835
9.458168,2.1701417356504367,0.04674780731907396
9.462752,2.060532917751544,0.046650547412233616
9.467348,1.9478592423672716,0.04660618423146986
