Time,Force,Position
9.99076,0.14969013500139028,0.0
9.995352,0.16297118410470607,0.0
9.999948000000002,0.17600786377973052,0.0
10.004536,0.1922704619215807,0.0
10.009132,0.20853306006343095,0.0
10.013728000000002,0.22377403904348764,0.0
10.01832,0.23991445247119217,0.0
10.022908,0.25144077412784044,0.0
10.027504000000002,0.25720393495616456,0.0
10.032092,0.2581033694038124,0.0
10.036684,0.2563045005085167,0.0
10.041272,0.2469436018896012,0.0
10.045868,0.2356616496612443,0.0
10.05046,0.22965411940462882,0.0
10.05504,0.22286933941451118,0.0
10.059632,0.21788342831968924,0.0
10.064212,0.2157180052819565,0.0
10.068804000000002,0.21343039753007811,0.0
10.0734,0.21179785479755622,0.0
10.077988,0.19990497899847096,0.0
10.082584,0.18454181530426858,0.0
10.087180000000002,0.1681570324482727,0.0
10.091768,0.15553104836431345,0.0
10.09636,0.14212781454685197,0.0
10.100952,0.13166725350062541,0.0
10.105544,0.12312774606384023,0.0
10.110124,0.11266718501761366,0.0
10.114724,0.10604873119026983,0.0
10.119312,0.10045189652471953,0.0
10.123912,0.09689830018275628,0.0
10.1285,0.09183434582241681,0.0
10.1331,0.08934651009087526,0.0
10.137692,0.08877972796877504,0.0
10.142284000000002,0.08678063109381615,0.0
10.146872,0.08604752280894212,0.0
10.151468,0.0864582184000073,0.0
10.156056,0.08801271786701163,0.0
10.160648,0.09353150926704441,0.0
10.16524,0.09557474759063145,0.0
10.169824,0.10313677731425128,0.0
10.174412000000002,0.11494634466649037,0.0
10.179,0.12687809673287512,0.0
10.183592,0.13198619254184274,0.0
10.188184,0.13709428835081036,0.0
10.192768,0.1363170386173082,0.0
10.197356,0.13578415831209736,0.0
10.201948,0.13627289716868005,0.0
10.206536000000002,0.13316389823467134,0.0
10.211116,0.13491862568133892,0.0
10.215712000000002,0.13168744203318453,0.0
10.2203,0.13458597335579128,0.0
10.224888000000002,0.13670725494489583,0.0
10.22948,0.1417712093052353,0.0
10.234076,0.14262650230425497,0.0
10.238672,0.1428708717325463,0.0
10.24326,0.14466974062784202,0.0
10.247864000000002,0.14430318648540505,0.0
10.252444,0.14369226291467666,0.0
10.257036,0.1468012618486854,0.0
10.26162,0.1484779460298354,0.0
10.266216000000002,0.14631252299210268,0.0
10.270808,0.14018280802134156,0.0
10.275404,0.14096005775484372,0.0
10.279992000000002,0.14083787304069806,0.0
10.284588,0.14275892665013942,0.0
10.289176,0.14251455722184808,0.0
10.293772,0.14419124140299813,0.0
10.298352,0.14946566337473957,0.0
10.302936,0.1535962814705418,0.0
10.307524,0.16283499537531165,0.0
10.312124,0.1681094173470531,0.0
10.316712,0.17350602403294021,0.0
10.321296000000002,0.1737945349098597,0.0
10.325888,0.17919114159574678,0.0
10.330476,0.18213381436698173,0.0
10.335072000000002,0.18094586904241433,0.0
10.33966,0.1779590548225513,0.0
10.344248000000002,0.1712523180979512,0.0
10.348848000000002,0.16238015833561834,0.0
10.353432,0.1530192597167028,0.0
10.358020000000002,0.1436583610977873,0.0
10.362616,0.14280306809876758,0.0
10.367204,0.1416695038545681,0.0
10.371800000000002,0.14847476310816424,0.0
10.376392,0.16571692122283638,0.0
10.380988,0.19560554268494534,0.0
10.385568,0.23393196613317138,0.008186035657956234
10.390168,0.28519336380575383,0.016223760390931007
10.394756,0.3448925634644533,0.02445280309439044
10.399356,0.41560568373806783,0.032659850520556255
10.40394,0.49847652850253654,0.04093619158790374
10.408532,0.5954261513673007,0.04904005754981686
10.413112,0.7080870950648823,0.05700720585895677
10.417708,0.8289414713202897,0.06508202720935374
10.422308,0.9638746256759926,0.07313790646755054
10.426904000000002,1.1143188728848499,0.08113113833097314
10.431496,1.2816623862510919,0.08902701426742368
10.436088,1.4621852432699811,0.09696192514974383
10.440676000000002,1.6580528669792514,0.10482754329817247
10.445264,1.8692652573789015,0.11263313468611275
10.449852000000002,2.094678610592993,0.12040755980614355
10.454456,2.326109733695439,0.12814273335952225
10.459048,2.5615492901795407,0.13589501770610365
10.46364,2.797233216091933,0.14360859182199998
10.468236,3.0271437415442635,0.15129286010822807
10.472824,3.246451041972744,0.15894776019066553
10.477424,3.4575649098433985,0.15834798508995807
10.482008,3.652634804555688,0.15790863383673387
10.486616,3.838856201690795,0.15721717903779178
10.491204000000002,4.014063678210987,0.1565086548886203
10.495792,4.1794010379922035,0.1556816444530242
10.500408000000002,4.3266953277400955,0.15511960580068918
10.504996,4.460321534978758,0.15470496038203524
10.509592,4.583833256050153,0.15417196634121635
10.51418,4.697763371259492,0.15360407213764687
10.518772,4.798758512244474,0.15307064429153658
10.523364,4.884775440681513,0.1526345723723983
10.527956,4.963131816865936,0.15209006470993242
10.532564,5.0243445574646834,0.15168760730308498
10.537160000000002,5.074054638591933,0.15129304297352295
10.541756,5.112139875533541,0.15090572149601458
10.546336000000002,5.139177290043343,0.15058842888843477
10.550936000000002,5.164039041883674,0.15016977950779825
10.555524,5.1841931538743635,0.14975058126435078
10.560124,5.203159320540485,0.1493221705052233
10.564716,5.223435617245321,0.1489048051394192
10.569308,5.242079371217634,0.1485694902950159
10.573904,5.262566135533872,0.14825130197457156
10.578488000000002,5.282319791565236,0.14799747763444865
10.583088000000002,5.301584708740018,0.14778627939434422
10.58768,5.325224613438892,0.14751185269035857
10.592276,5.356426547861386,0.14707554984695823
10.596872,5.388527916731528,0.1466231180926954
10.60146,5.424227023392262,0.1461140131446761
10.606044,5.455428957814755,0.14568759933729203
10.610632,5.485731457789601,0.14528015504857206
10.615232,5.514235088869152,0.14490185100825714
10.61982,5.54028478603405,0.14455986277757804
10.62442,5.5760619359603005,0.14400989059296448
10.629012,5.608363532810107,0.14351686065284439
10.633588,5.642830552697644,0.14297550520248425
10.63818,5.678807930603559,0.14237240298275972
10.642764,5.712575744023112,0.1417923123247138
10.647348,5.743767438813866,0.14125148076016378
10.65196,5.771605765242321,0.140753459918801
10.656548,5.798011776917918,0.1402607717916751
10.661152,5.824784342735951,0.1397417597684542
10.66574,5.856542819648807,0.1391215702959162
10.670336,5.887401862114013,0.13851482462183173
10.674928,5.921325762064602,0.13784658042659176
10.679528,5.948464882025073,0.13731986336572968
10.684120000000002,5.971884079480806,0.1368625257664556
10.688716,5.996447080812479,0.13637772553403496
10.693316,6.021132266858299,0.13589564500533324
10.6979,6.051458429018296,0.13532164207455138
10.7025,6.0825618409117945,0.1347453645908093
10.707084,6.119428413633618,0.1340707094504674
10.711684,6.157194420803089,0.13339119913992353
10.716276,6.18907508243009,0.13283599808071095
10.720876,6.2264745354571245,0.13220679943605648
10.725468,6.257211393208187,0.13168955943337604
10.73006,6.285905012635661,0.1312140613376993
10.734648000000002,6.312433209025403,0.13079195393788928
10.739244,6.338184155681644,0.13037278916095477
10.743844,6.368554459290268,0.12989105433347636
10.74844,6.398391882593683,0.12939909173767697
10.753028,6.4308834677914115,0.12883547729499709
10.757624000000002,6.461287673216925,0.1282783591054754
10.762212,6.493446606089108,0.12765688053138755
10.766800000000002,6.521352736151342,0.12708055391080914
10.77138,6.553834081717332,0.12640187316677165
10.775972,6.585782546978112,0.12571038160346748
10.780564,6.618219751095475,0.12499646511744794
10.785152000000002,6.642562045184007,0.12437869635909403
10.789752000000002,6.664572590072033,0.12377769732893394
10.794328000000002,6.686294624083139,0.12315134302783351
10.79892,6.705684908893739,0.12254127018178962
10.803512,6.72556393256092,0.12190798752472796
10.808104000000002,6.742456142008239,0.12127544633221062
10.812708,6.752519430016812,0.12070179418614936
10.817292,6.767157933529142,0.12002886310615252
10.821896,6.78355116448814,0.1192945444833187
10.826492,6.796591027084837,0.11858002589101181
10.831080000000002,6.811019062985765,0.11782620300919784
10.835672,6.821560850219183,0.11708820752800146
10.840252,6.832591376309181,0.11632284079266136
10.844856000000002,6.839535425752008,0.11562849735766172
10.849444,6.841737933528302,0.11499495494340589
10.854044,6.8421415724093,0.11438054759667982
10.858624,6.84368901516624,0.1137427073680867
10.863228,6.839717666523145,0.11316572381429682
10.86782,6.838811175365432,0.11254244529080562
10.872412,6.832385892807686,0.11197673281317803
10.877008000000002,6.8299249021829675,0.1113509883842163
10.8816,6.822478000463428,0.11079555528009097
10.886188,6.816829967639183,0.11022482560332296
10.890784000000002,6.811836999834295,0.10966285956279442
10.895372,6.800714317058645,0.10919250526914585
10.899968,6.7939666218070895,0.10868805582548312
10.904556,6.791593914079628,0.10815023210782078
10.909144,6.790531336390879,0.10762879171640985
10.913732,6.790778888740845,0.10712257193252311
10.918324,6.795523613329049,0.10657637042252904
10.92292,6.802722271831905,0.10602508445247433
10.927512000000002,6.811763940678684,0.10550276341669049
10.932104,6.81892869736465,0.10504465576506118
10.936684,6.82879175739356,0.10456607069108854
10.94128,6.845361554147071,0.10405937384938471
10.94586,6.867083588158176,0.10352900018074794
10.950448,6.890360121636286,0.1030026110252113
10.955052,6.918666707657847,0.10245728146079128
10.959640000000002,6.949305042879915,0.10192208303667573
10.964232,6.989837157026108,0.10131946926190452
10.968816000000002,7.035521508429898,0.10069933356264114
10.973408,7.088767889557307,0.10000940671054695
10.978012,7.138949413199335,0.09936458613004376
10.982588000000002,7.186965513803631,0.09875783672331923
10.987184,7.242910198273984,0.09806380015470231
10.991772,7.2996321324778375,0.09738119559888264
10.996376,7.356109697253401,0.09672065514134415
11.000964000000002,7.411687827581315,0.09607601215303663
11.005564,7.47008644596632,0.09542014165545176
11.010156,7.532327171570207,0.09474108881472917
11.014752,7.595056636030678,0.09405070844177026
11.019336,7.658397024061876,0.09333726242487217
11.023932,7.727867127063836,0.09256204849498638
11.028520000000002,7.794638926722852,0.0918082206769449
11.033116,7.85662504326671,0.09106340939782971
11.037692000000002,7.913336737838825,0.09035224011140766
11.042284,7.970414986553378,0.0896326091994407
11.046872,8.023118247743838,0.088935344438921
11.051468000000002,8.070547086962556,0.08826877979444954
11.056056,8.107060528095353,0.08766952265175876
11.060644000000002,8.140220600865852,0.08708485772549142
11.065236,8.171048924435842,0.08650376652666095
11.069812,8.202121617434125,0.08591128822534967
11.074404,8.232783614841344,0.085300983702641
11.078984,8.255883582524941,0.08474497175638014
11.083572000000002,8.273831312950945,0.08420458209197546
11.088168,8.286748990833495,0.08367188955345574
11.092756,8.295413865906099,0.08314889438749717
11.097344,8.293285527606926,0.08267434389871499
11.101936,8.284861148174222,0.08222948969045954
11.106532,8.266953685408454,0.08184476823963316
11.111128,8.245692854280389,0.08146304727686998
11.11572,8.215559863389988,0.08111191896822151
11.120316,8.18399455774673,0.08074862543709248
11.124904,8.148953699027027,0.08039083891186004
11.129500000000002,8.112480525554464,0.08001995396079223
11.13408,8.068689691786574,0.07968014973742736
11.138684,8.026287031322914,0.07931059290195529
11.143276000000002,7.981552621658746,0.07893026894776792
11.147872,7.944502426432344,0.07849629961247527
11.152456,7.903077243681849,0.07807020489086829
11.157048,7.857809953712471,0.07766539112541458
11.161656,7.813808652333178,0.0772368925072746
11.166248,7.768252851486881,0.07679894109552879
11.17084,7.7267835272877585,0.0763214806149591
11.175432,7.68825687585987,0.07581938745272328
11.18002,7.65255071248907,0.07529804635069122
11.184608,7.616189484098915,0.07476262224074624
11.189188,7.588289719880027,0.07417876636180981
11.193784,7.55871327147999,0.07359012827261
11.198376,7.535799418355922,0.07295838447045419
11.202968,7.5096985230323305,0.07235347231663869
11.20756,7.490915288004066,0.07171776197439408
11.21214,7.4758519754805395,0.07106338731428179
11.216724,7.467206888804693,0.07038231112212688
11.221316,7.4610157360435,0.06970342662960019
11.225892,7.463041678025282,0.06899420868542273
11.230488,7.464823250578774,0.06829660674051458
11.235076,7.469713822066273,0.06761081465729639
11.239664,7.470762286334891,0.06694942015468346
11.244268,7.475164118965808,0.06628868764538408
11.248852,7.4782999630066405,0.06564324572371087
11.253456000000002,7.478126580133802,0.06503270968851718
11.258052,7.479263327299675,0.0644395933611075
11.262644,7.479011901161318,0.06387249270682237
11.267236,7.4792933553281715,0.06332271125709635
11.271832000000002,7.4831725472856165,0.0627678085462878
11.27642,7.493103410948306,0.06221264182115341
11.28102,7.5017682860209085,0.06168042099080801
11.285612,7.514563779189316,0.06115660337981519
11.290208000000002,7.530957010148311,0.06063124690726342
11.2948,7.555689520564431,0.060081606165734644
11.299396,7.575436119885729,0.05956556809711469
11.303984000000002,7.59175130757921,0.059089125002573906
11.30858,7.607577756416108,0.058639607224593646
11.313184,7.623037651110567,0.05820831838716543
11.317784,7.634411069157854,0.05780678653754399
11.322376,7.649260040281586,0.057408570852354686
11.326968,7.666152249728905,0.05699941007675472
11.331556,7.6798574169766995,0.056614324781559144
11.336144,7.695361453119788,0.05622945727912926
11.340732,7.7212480070435845,0.05581491027411682
11.345316,7.749177799290969,0.05538689720426676
11.349908,7.778007025986001,0.05495907009232933
11.354488000000002,7.809656740738122,0.05452563650058307
11.359088000000002,7.84028483632845,0.05410107609937377
11.363668,7.865927020823956,0.05370487650914714
11.36826,7.8846622406151985,0.053341629979898525
11.372856,7.899555353187559,0.05299219657951897
11.377444,7.9117501624169755,0.05264514291914388
11.382036,7.912296465275598,0.052342435026208
11.386616000000002,7.903237500087014,0.052072074933126655
11.391204,7.893279100450783,0.05180053865913328
11.395808,7.8826656357951945,0.051516750495193074
11.400396,7.86551176057778,0.05124612037686121
11.404988,7.844882332283919,0.05096996877415133
11.409568000000002,7.820655166199465,0.050693074233601636
11.414168000000002,7.785146047886655,0.050440698551373904
11.418756,7.73798842320305,0.05022938345489142
11.423356,7.690952983233592,0.05000944774821539
11.427936,7.6344344599310725,0.04981293138154892
11.432532,7.562914061895459,0.04964624001437792
11.437124,7.489228240822113,0.049494055435288606
11.441720000000002,7.4079803900251475,0.04935819131064719
11.446316,7.314428967838031,0.049251476542752956
11.450912,7.212416081479648,0.0491612611957668
11.455512,7.102063915664141,0.04908206042880038
11.460108,6.987336762324542,0.0489954213229301
11.464696000000002,6.866846448156618,0.04892701340248259
11.469288,6.739449169284432,0.04889084610871161
11.473876,6.615893997631128,0.048840385992866435
11.47846,6.493482629853763,0.048773221037066966
11.483048000000002,6.36710697014337,0.04872271033820791
11.48764,6.2386880721093885,0.04868045794515968
11.492232,6.107570870732465,0.04863506939605352
11.496812,5.971345573546574,0.0486245177346447
11.501408,5.83409865719889,0.04861650575917687
11.505988,5.6976289905847075,0.0486180191596953
11.510568,5.5633247470082585,0.04859802780296591
11.515176000000002,5.426077830660574,0.04859049949022352
11.519764,5.291651402369977,0.04857254052323038
11.524352,5.1589016582605325,0.048560620110640725
11.528948000000002,5.022431991646353,0.04855543835418434
11.533548,4.888782813089259,0.048538948380415975
11.53814,4.762817848969932,0.04848098207110909
11.542732,4.636608515422314,0.048444695609968225
11.547332,4.51555141913229,0.04843164195403873
11.551912,4.39886931036636,0.04842544804849743
11.556504000000002,4.287050927981107,0.048385827202265135
11.561084,4.179196837528883,0.04831627657250885
11.56568,4.067500639857775,0.048266831479112246
11.570272,3.955560072758377,0.048232607077628366
11.574868,3.8433751362306867,0.04822699030273864
11.57946,3.731068014988851,0.04823004142391621
11.584056,3.622236446823461,0.048241760553584936
11.588656000000002,3.521211277809982,0.04818797144876887
11.593252,3.420963358530006,0.048141841020168274
11.59784,3.324557546468912,0.04806810653924704
11.602436,3.2317494721984095,0.04798465511921969
11.607024,3.1389413979279066,0.04789727870429744
11.611608,3.0442122700479626,0.047816102001463044
11.616196,2.9530808799586103,0.04773275251820404
11.620784,2.8628489243169053,0.04764530602878254
11.625376,2.774415837570496,0.04754553134507091
11.629968,2.684594577519857,0.04749821840057887
11.63456,2.6004142935833956,0.04742621464595599
11.639148,2.513780075732283,0.0473234267961877
11.643744,2.426368608147667,0.04718964234974134
11.648324,2.3387127711347606,0.04707560236889047
11.652912,2.25285580301715,0.046942410966136786
11.657516,2.172639811013717,0.046763966589841485
11.662104,2.092423819010284,0.046573545917442276
11.6667,2.0151504997780862,0.046342874036112224
11.671296,1.9368555613840952,0.04612764180926296
11.675884000000002,1.8575390038283104,0.04593415986303767
11.680484000000002,1.7724592854442016,0.045765789359859026
11.685076,1.6862357631841536,0.04567191144360679
11.689672,1.6015667403911098,0.04331195442767025
11.694252,1.5206176401028035,0.04319742332619637
11.698852,1.4449429617862382,0.040858941870944784
11.703444,1.3746648901555603,0.03852396062076433
11.708048,1.3016885151819384,0.03619060644467195
11.712636000000002,1.2293672052276732,0.03386076760765556
11.717232,1.158722579454558,0.03155403922022001
11.721832,1.0908984417385321,0.029228808755471007
11.726428,1.0260169767937413,0.02690574669004147
11.731016000000002,0.9665321185348374,0.024589142751951072
11.735608,0.9123216822476751,0.02230309901032894
11.740196,0.8599101148558085,0.020022356630211045
11.744792000000002,0.8092974163592374,0.01777396556024981
11.749384,0.7558642298055771,0.015557954458119954
11.753968,0.706150965756654,0.013354059114610168
11.75856,0.660401993640759,0.011161075786342617
11.763144,0.6163297057060143,0.008951845814853861
11.767732,0.5743006560948566,0.006720180832044345
11.772328,0.5364022245795013,0.004510512970743363
11.77692,0.5023459002830286,0.0022270879238026186
11.781508,0.46841176070070156,0.0022270879238026186
11.786108,0.43219001336649615,0.0
11.790696,0.39813368907002356,0.0
11.795288,0.363177930325903,0.0
11.799872,0.3334965935535239,0.0
11.804464,0.31072222148540807,0.0
11.80906,0.2870484149696445,0.0
11.813648,0.260315016149829,0.0
11.81824,0.23333724790172206,0.0
11.822836,0.21313899446240417,0.0
11.827432,0.18922081851834918,0.0
11.832028,0.1671015114695899,0.0
11.836616,0.14383840054489141,0.0
11.841212,0.12789294991552141,0.0
11.845804,0.10978207624841868,0.0
11.850396000000002,0.09118772890606194,0.0
11.85498,0.07643548878258796,0.0
11.859568,0.0660529710018789,0.0
11.864148000000002,0.059756929868343946,0.0
11.86874,0.058080245687193915,0.0
11.873336,0.05934623427727878,0.0
11.877928,0.06469869951453773,0.0
11.882512,0.06698630726641613,0.0
11.887108,0.06813011114235532,0.0
11.891696,0.07131715334188155,0.0
11.896288,0.07311602223717724,0.0
11.900864,0.07671376002776867,0.0
11.905456,0.0851699590177077,0.0
11.91004,0.09284890827414458,0.0
11.914628,0.09272672355999889,0.0
11.919216,0.09644664606473596,0.0
11.923804,0.09812333024588599,0.0
11.928396,0.10147669860818608,0.0
11.932992,0.10266464393275342,0.0
11.93758,0.10961575008564486,0.0
11.942188,0.11950426382844262,0.0
11.946776000000002,0.13131383118068174,0.0
11.951368,0.14030817565716022,0.0
11.95596,0.14660421679069516,0.0
11.960548,0.1512235737430801,0.0
11.96514,0.15751961487661506,0.0
11.969716,0.1578081257535346,0.0
11.974324,0.16296036301113037,0.0
11.978908,0.17669624915413945,0.0
11.983508,0.18761164724005935,0.0
11.988096,0.19685036114482918,0.0
11.992692,0.20506745588780556,0.0
11.997288,0.21418398507842973,0.0
12.001888,0.2221567103931147,0.0
12.006480000000002,0.2318061198889497,0.0
12.011072,0.2431322135659348,0.0
12.015672,0.2594442183377418,0.0
12.020264,0.27714439641377936,0.0
