Time,Force,Position
22.787912,0.013107925050724698,0.0
22.792508,0.008940668863301028,0.0
22.797088,0.004651227961731688,0.0
22.801688,0.0012612215078101983,0.0
22.806276,0.0012612215078101983,0.0
22.810876,0.0006917031109779351,0.0
22.81546,0.0,0.0
22.820052,0.0,0.0
22.824644,0.0,0.0
22.829236,0.0,0.0
22.833824,0.0,0.0
22.83842,0.0,0.0
22.843008,0.0,0.0
22.8476,0.0,0.0
22.852188,0.0,0.0
22.856768,0.0,0.0
22.861364,0.0,0.0
22.865956,0.0,0.0
22.870552,0.0,0.0
22.87514,0.0,0.0
22.87974,0.0,0.0
22.884328,0.0,0.0
22.88892,0.0,0.0
22.893516,0.0,0.0
22.898104,0.0,0.0
22.9027,0.0,0.0
22.907288,0.0,0.0
22.91188,0.0,0.0
22.916464,0.0,0.0
22.921056,0.0,0.0
22.925652,0.0,0.0
22.930232,0.0,0.0
22.934832,0.0,0.0
22.939424,0.0,0.0
22.944024,0.0,0.0
22.948616,0.0,0.0
22.953216,0.0,0.0
22.9578,0.0,0.0
22.962396,0.0,0.0
22.966988,0.0,0.0
22.971584,0.0,0.0
22.976172,0.0,0.0
22.980764,0.0,0.0
22.985352,0.0,0.0
22.98994,0.0,0.0
22.994532,0.0,0.0
22.99912,0.0003251489685409198,0.0
23.003712,0.001671917098875363,0.0
23.008304,0.002363620209853298,0.0
23.0129,0.0040769424826247545,0.0
23.01748,0.007711318364837588,0.0
23.022076,0.012000759266406928,0.0
23.026656,0.01424696184438922,0.0
23.03124,0.01841421803181289,0.0
23.035836,0.022581474219236564,0.0
23.040424,0.022784438473631808,0.0
23.045036,0.022784438473631808,0.0
23.049624,0.022784438473631808,0.0
23.054228,0.022865218013881385,0.0
23.05882,0.022865218013881385,0.0
23.063412,0.022865218013881385,0.0
23.068004,0.022865218013881385,0.0
23.0726,0.022865218013881385,0.0
23.077196,0.024710964632537295,0.0
23.081784,0.034950371788682155,0.0
23.086384,0.05207308146393974,0.0
23.090972,0.07910731305206921,0.0
23.095572,0.12009813802634857,0.009829299317625221
23.100164,0.17611131699719945,0.019141645694022776
23.104756,0.24150587385044342,0.02862980752185081
23.109348,0.3183250469096675,0.03793056652784619
23.113944,0.4078348247649566,0.04709724972721871
23.118524,0.5124891413309629,0.056217654464501644
23.12312,0.6270577160845732,0.0654260452378671
23.127708,0.7536279287980026,0.07479376923194403
23.132304,0.9040146120048187,0.08395162876252085
23.136892,1.075233687759891,0.09293078453917347
23.141476,1.2649167687710912,0.10187628732820848
23.146068,1.4728608907840237,0.11080799745657476
23.150664,1.7015152206310669,0.11962629552437953
23.155252,1.9491222945908204,0.12838432705415592
23.15984,2.215926482091576,0.13706919621747737
23.164432,2.5004954683804748,0.14569997983743513
23.169012,2.799140496494937,0.154272206982184
23.173608,3.1008503820947797,0.16277870261303543
23.178192,3.4076242220549613,0.17118915393607342
23.18278,3.7122223993456727,0.17954820153719042
23.187388,4.005284015347996,0.17811663449235046
23.191976,4.289585416670395,0.17718317370978648
23.196564,4.5711341335694815,0.1760087179526754
23.20116,4.843267570769286,0.17502696406546858
23.205748,5.108028966593395,0.17413902999826913
23.210356,5.3666843096318955,0.17323638921224435
23.214944,5.623686630674397,0.17211592960370176
23.21954,5.874206105157112,0.17074829919109288
23.224128,6.107161008831348,0.1695352991080717
23.228728,6.319197973334801,0.16847787287833146
23.233308,6.515669463904735,0.16736386602749861
23.237908,6.6977192844170865,0.16615540230424344
23.242496,6.85962841549216,0.16503225302581132
23.247096,7.0038507910446075,0.16393623438675856
23.251688,7.1312858455220764,0.16285466414980265
23.25628,7.243121524249135,0.1617829110044101
23.260868,7.337480915064972,0.16077942765598874
23.265464,7.421892145876314,0.1597955743863561
23.27006,7.494067608931285,0.15888507639813262
23.27466,7.559692421792691,0.15798028370033443
23.279252,7.622119952822831,0.15702317924858117
23.28384,7.682249636469353,0.15601724261444144
23.288428,7.735339931065729,0.1550428738615932
23.293016,7.787031812726136,0.1540012034745291
23.297604,7.836181477574633,0.15292793156887338
23.3022,7.878824633678191,0.151889381066784
23.306792,7.9098531852278455,0.1509820594298575
23.31138,7.935607314805758,0.15014942009006513
23.315976,7.959440390774231,0.14935231154732773
23.320568,7.98417290119035,0.14854557268740382
23.325164,8.008294488035743,0.14778236722594723
23.329752,8.026164175196225,0.14713870861495373
23.334336,8.043256612623209,0.14650078975746123
23.338924,8.059816169744979,0.1458568955820671
23.343504,8.07613135743846,0.1452320590991222
23.348088,8.091669295398436,0.1446157366245676
23.352692,8.112193144453238,0.14392193346563478
23.35728,8.13091812461274,0.14325213181959248
23.361872,8.153240842562836,0.14254478109766533
23.366452,8.174297571922848,0.14187056540804127
23.371048,8.198541343482384,0.14114460711213433
23.375628,8.214201466156508,0.14053591897378623
23.380224,8.229739404116486,0.13993566732636095
23.38482,8.241313050143436,0.13939726791569731
23.389416,8.247001350627915,0.1389463620377878
23.394,8.253833454988333,0.1384743302013115
23.398596,8.264874220710073,0.137932199858625
23.403188,8.27844696361198,0.1373354294079211
23.40778,8.294429498979914,0.136691456088426
23.412372,8.311189284081347,0.13604711788077853
23.416964,8.32435133139219,0.1354423066249665
23.421552,8.341599855350207,0.13477496825824717
23.426136,8.359747813755874,0.13409965346158276
23.430724,8.37867302189504,0.1334248828219086
23.435312,8.395388665547845,0.13275588713517542
23.439904,8.410549809733647,0.13209476686704852
23.444492,8.421991031414713,0.13147952030517543
23.449084,8.435475491419364,0.13083638192413657
23.453672,8.444584963899922,0.1302336072269482
23.458264,8.453405925503562,0.12960951381564964
23.462852,8.458384779888318,0.12903479938930779
23.46744,8.471414402853277,0.12834737606082014
23.472048,8.486609448855969,0.12762868127028412
23.476636,8.507812025115276,0.12683391775181055
23.481224,8.534244881897695,0.12596307230437973
23.485816,8.558101620051316,0.12511372723592634
23.490416,8.580814554328999,0.1242917601585276
23.495008,8.597642143064212,0.12354273951999746
23.499588,8.609483820704604,0.12285876554555046
23.504184,8.621447683059142,0.12217212362346583
23.508764,8.635332599023121,0.12146399731044985
23.513364,8.64897314555881,0.12077170258138395
23.517952,8.662613692094492,0.12008131188269315
23.522552,8.676254238630179,0.11939447894782737
23.527148,8.688506611861637,0.11873785720103638
23.53174,8.703335103721887,0.11806769258319376
23.536324,8.721106268353376,0.11736729060976035
23.54092,8.737733629108924,0.11668903796674696
23.545508,8.755016054883829,0.11601473008696153
23.550092,8.771809741802151,0.11536390910198469
23.55468,8.790524482329916,0.11469507880747368
23.559272,8.80977210316289,0.11404342508529246
23.56386,8.825954866510482,0.11343232866417599
23.568452,8.834331230706168,0.11290519175350722
23.573044,8.838498933540528,0.11243409506903748
23.577636,8.845897820023044,0.11195468182422665
23.582228,8.850354033734327,0.11150655115352119
23.586808,8.862250092455085,0.11099669936078613
23.5914,8.877988258394723,0.11045031431294318
23.595984,8.892294109581503,0.10990210110621845
23.600572,8.904923276587134,0.10936135586444545
23.605164,8.913055271354525,0.10885141081983325
23.609752,8.921309450836064,0.10833724375947404
23.614356,8.928908565298245,0.1078201265691527
23.618948,8.939694721959956,0.10726346660130191
23.623548,8.945983706383423,0.10673744199110512
23.628152,8.944588476369129,0.10627987013912302
23.63274,8.943970496088333,0.10582287102120114
23.637336,8.944496319683479,0.10534919748730533
23.641924,8.948331370192296,0.10483217794936023
23.646528,8.95061192123411,0.10431671456930847
23.651104,8.950316353647125,0.103815033959483
23.655704,8.95026515548843,0.10330218637877528
23.660292,8.955077683710412,0.10274465229048992
23.664892,8.96307725413192,0.10214955915316032
23.669484,8.96940014037228,0.1015622867001277
23.674076,8.973557603574903,0.1009989070586795
23.678668,8.97015303705391,0.10049545080725458
23.68326,8.967647904980565,0.09998878053909088
23.68786,8.964409664622345,0.09951384715410097
23.692452,8.960804870121688,0.09905361532633564
23.69704,8.963373932040419,0.09856265990177919
23.701636,8.966598058978509,0.09807864873859128
23.706216,8.968434012612367,0.09762137064852557
23.710808,8.967982358494348,0.09719605251784269
23.715396,8.970884072738627,0.09676122731177798
23.719988,8.980081828116441,0.09628990032726592
23.724584,8.98748071459896,0.0958293480713709
23.729164,8.993613612491394,0.09539010600305806
23.733756,8.998113967651305,0.09498978749267928
23.738344,9.005723321745226,0.09459341097819834
23.742936,9.01308830641086,0.09420852474297284
23.747532,9.025605528334083,0.09380940598667968
23.75212,9.039555065010168,0.09341985303525038
23.756716,9.054037481991463,0.09304416257283832
23.761304,9.064555607039729,0.09270061032614717
23.765892,9.081980696792257,0.09230122520097458
23.770488,9.109788304325496,0.09183726749713807
23.775084,9.134408869659211,0.09140876182882816
23.779676,9.161194858030656,0.09095791768978953
23.784272,9.193377453087988,0.09048460955376124
23.788876,9.223761179250024,0.0900237351146257
23.793464,9.255288709288,0.08955278279428042
23.798056,9.285916804878328,0.0890854329569207
23.802632,9.318710323506389,0.08859717639583413
23.807232,9.351626026848596,0.08810680273495286
23.811816,9.385807718780887,0.0876016361123496
23.816412,9.421133214589117,0.08708459790968245
23.821,9.45862413343508,0.08654750106247978
23.825592,9.497503225585277,0.08599108524282381
23.83018,9.532007330211375,0.08545045455405113
23.834776,9.565734185103974,0.08491008350616587
23.839364,9.590466695520092,0.08440696412073594
23.843948,9.612090207002202,0.0839012133603163
23.84854,9.629216546246072,0.08341340480391758
23.85314,9.653127665480062,0.08288310401854933
23.857728,9.676261534980549,0.08235663829354362
23.86232,9.687091833090888,0.08189849123885361
23.866916,9.697389250896013,0.08142850385216448
23.871492,9.706909418967635,0.08095857334442934
23.876092,9.71139953449581,0.08049477637578198
23.880672,9.71343571610933,0.08003094781552217
23.885264,9.710608171342177,0.07959659742829038
23.88986,9.71174491850805,0.07913653194006051
23.894448,9.712637296245632,0.0786874208810198
23.89906,9.71197517451621,0.07823520070505444
23.903648,9.709514183891493,0.07779003169117038
23.908252,9.706153758819127,0.07734772089618178
23.912844,9.700750095423173,0.07692051526099808
23.917436,9.689827640627188,0.07651337208878832
23.922032,9.681970043316582,0.07608411169178042
23.926624,9.674112446005978,0.07565426166872259
23.93122,9.670874205647758,0.07520528560790787
23.935808,9.668168845594748,0.07476783282772174
23.940408,9.670982276941771,0.07431135445593606
23.945,9.671996839393499,0.07386221075750521
23.9496,9.669946544359846,0.07343494651880197
23.954176,9.676724267639898,0.07295862736853133
23.958772,9.684279240653451,0.072484095405918
23.963364,9.695431951457598,0.07200367423453892
23.967956,9.710304584766481,0.07151152562659821
23.972548,9.727753336704161,0.07101854136637424
23.97714,9.750310184450809,0.07049353458448673
23.98174,9.771967597749809,0.06997414188086219
23.986332,9.793991565191245,0.06944407338779043
23.990916,9.821900878175153,0.068889592439166
23.995508,9.85070962560671,0.06833614929815994
24.000096,9.883893360562357,0.06778205692295644
24.00468,9.918098714679799,0.06722317191640148
24.009268,9.955124556854328,0.06665431711216563
24.013852,9.995992506247745,0.06607727036536272
24.01844,10.042623616469482,0.06548319762255521
24.023024,10.091297965014807,0.06488183910075392
24.027616,10.14225992131201,0.0642647861251421
24.032208,10.192033932284646,0.06363586538919504
24.036792,10.239109639914338,0.06301381789461397
24.0414,10.287451336134115,0.06237999045569021
24.045988,10.332850359582658,0.06176414908284926
24.050596,10.381558609944873,0.061127486535261254
24.055184,10.42012871195467,0.060513090844072796
24.05976,10.457022129783317,0.05990129954304202
24.064352,10.48954056008787,0.05929134787182097
24.068932,10.518094698459393,0.058700663427173144
24.073528,10.54137441485918,0.05811179710353051
24.078108,10.561955827916018,0.0575274105151005
24.082704,10.570888734602063,0.05698339414351503
24.087292,10.575202284335722,0.05644724483624365
24.091892,10.56949987043111,0.05592305713005822
24.096476,10.561465707325993,0.055387658226958715
24.101068,10.552409925059083,0.054856063048759715
24.10566,10.526964094754845,0.05437019851317801
24.110252,10.489092508346316,0.05391563366721583
24.114832,10.443658892214165,0.05347550641500016
24.119408,10.387598388873013,0.05306252461535399
24.123984,10.323242747523365,0.052687438335061385
24.12858,10.256843867850131,0.052317649690629194
24.133172,10.182516404310844,0.051972558723835216
24.137748,10.100382541619641,0.05164798328096541
24.142332,10.0090541064723,0.0513614265823718
24.14692,9.91928017079196,0.05107791559942131
24.151504,9.820556032083772,0.05082269319328797
24.1561,9.721343154519003,0.05058017033267622
24.160688,9.616000561983471,0.05036248792830798
24.165292,9.512500979791863,0.05017094849615622
24.16988,9.400584074877615,0.05002323037401933
24.174464,9.29112110387802,0.049880590535488725
24.179064,9.18194664375534,0.04975741593733073
24.183648,9.071384010328433,0.04964966220068809
24.188252,8.956123976683626,0.04958059602904612
24.192828,8.836655281677496,0.04953282296517312
24.197428,8.725648050842633,0.049466572881061266
24.202012,8.613374831417687,0.04941390491598576
24.206612,8.49946906926022,0.04938969835780995
24.211196,8.388916675465051,0.04937351424678713
24.215796,8.278119912241591,0.04936773331762958
24.22038,8.163891737390314,0.04939263071637589
24.224972,8.049541377824891,0.0494229944464645
24.22956,7.9378893216024125,0.049452039400489665
24.234156,7.826237265379932,0.04948195581430975
24.238756,7.713441405281515,0.04952226633196813
24.243348,7.60027899104066,0.04958185397985738
24.247936,7.482252850419128,0.049660406689087215
24.25252,7.366269948121183,0.049728606355666706
