Time,Force,Position
17.6216,0.1791504737997101,0.0
17.626188,0.17081119434258812,0.0
17.630772,0.15785782311440982,0.0
17.635371999999997,0.143882832724438,0.0
17.639964,0.13003002704861188,0.0
17.644548,0.11629940608693143,0.0
17.649124,0.10603907302036805,0.0
17.6537,0.09194189791625051,0.0
17.658296,0.07976577642157442,0.0
17.66288,0.07003832366022186,0.0
17.667472000000004,0.06390860868946074,0.0
17.672064,0.05471403623331903,0.0
17.676651999999997,0.04756270210076437,0.0
17.681236,0.04016699853991836,0.0
17.68582,0.031094610797922327,0.0
17.690396,0.02586433027480904,0.0
17.695,0.023454537808784977,0.0
17.699588,0.023987418113995813,0.0
17.704172,0.02529754815270883,0.0
17.708776,0.026724597724238887,0.0
17.713375999999997,0.02929545117170814,0.0
17.717976,0.03109432006700384,0.0
17.722555999999997,0.03480897739041228,0.0
17.727159999999998,0.03762420026617287,0.0
17.731748000000003,0.04338209591316835,0.0
17.736348,0.046319503503074615,0.0
17.740924,0.04913999156016384,0.0
17.745511999999998,0.05669675610245503,0.0
17.750104,0.06233246703530485,0.0
17.754696000000003,0.06911724702542249,0.0
17.759287999999998,0.07218210451080308,0.0
17.76388,0.07614639644383149,0.0
17.768468,0.07884469978677505,0.0
17.773055999999997,0.07974413423442289,0.0
17.777639999999998,0.08681742510146004,0.0
17.782235999999997,0.09107022791140794,0.0
17.786811999999998,0.09364634654020582,0.0
17.791415999999998,0.094423596273708,0.0
17.796004000000003,0.09814351877844509,0.0
17.800584,0.10803729770257145,0.0
17.805168000000002,0.11756452248426082,0.0
17.809744000000002,0.1250485089423631,0.0
17.814324,0.1303670723627327,0.0
17.818924000000003,0.13724013525010664,0.0
17.823507999999997,0.14386882870918927,0.0
17.828108,0.15421744467300894,0.0
17.832700000000003,0.16366662618918076,0.0
17.837288,0.17107256938176557,0.0
17.841880000000003,0.18142118534558524,0.0
17.846476000000003,0.18804987880466786,0.0
17.851067999999998,0.19839849476848753,0.0
17.855656000000003,0.21079034905589425,0.0
17.860252000000003,0.22522544166688802,0.0
17.864832,0.23761729595429568,0.0
17.869436,0.24641141245111195,0.0
17.87402,0.25778164757672606,0.0
17.878604000000003,0.27364905494057945,0.0
17.883192,0.2922147656473764,0.0
17.88778,0.31065829164002773,0.0
17.892367999999998,0.3255040798420875,0.0
17.89696,0.3354861416634711,0.0
17.901548,0.35020974515138537,0.0
17.90614,0.3657105983728018,0.0
17.910719999999998,0.38223307075601165,0.0
17.915312,0.3947912512061931,0.0
17.919896,0.4072272469422289,0.0
17.924472,0.41978542739241037,0.0
17.929071999999998,0.42940093507135696,0.0
17.933660000000003,0.43864988860786647,0.0
17.938243999999997,0.45047496077317395,0.0
17.942839999999997,0.46140059849083354,0.0
17.947428000000002,0.47118243233255397,0.0
17.952028,0.47544547477424165,0.0
17.956608000000003,0.47995288664421976,0.0
17.961184000000003,0.485604102390137,0.0
17.965788000000003,0.48970081866904985,0.0
17.97038,0.48930036270972344,0.0
17.974980000000002,0.4860794186933078,0.0
17.97956,0.48003798661980296,0.0
17.984160000000003,0.47015444732741535,0.0
17.988748,0.46844386132937593,0.0
17.993352,0.46685546004548223,0.0
17.99794,0.46371255929458416,0.0
18.002527999999998,0.45799353991488817,0.0
18.007108000000002,0.45276325939177486,0.0
18.011692000000004,0.4457341099733658,0.0
18.016292,0.4396043950026048,0.0
18.020876,0.43384123417428067,0.0
18.025452,0.4271786388983087,0.0
18.030044,0.42027167419404543,0.0
18.034624,0.41443047010020373,0.0
18.039216000000003,0.41031009163614035,0.0
18.043796,0.41678269856418787,0.0
18.048376,0.43744602867493787,0.005846365023032892
18.05296,0.46155101004524424,0.012039585500788659
18.057540000000003,0.4884867191043787,0.0188570904857846
18.062116000000003,0.5214843395004954,0.026179885760896287
18.066704,0.5612430777015793,0.03421761049387106
18.071296,0.6132036818421454,0.042575182606765447
18.075876,0.6832956389132917,0.050975362143651504
18.080476,0.7655114186584031,0.05932494242185087
18.085068,0.8612391943817096,0.06761405643198842
18.08966,0.9763643116256814,0.07575711808203901
18.094248,1.1062674134379331,0.08394068637663915
18.098848,1.2516035648378219,0.0921431988064302
18.103424,1.41621487304423,0.10024734885246617
18.108028,1.5943381772288336,0.10840142268501726
18.11262,1.793168952972815,0.11644199800744853
18.117212,2.007022082713368,0.1244930721239589
18.1218,2.2358534250018645,0.13249720500058138
18.126392000000003,2.4765539809042956,0.1404769422575902
18.131,2.7252375017531505,0.14848785113092375
18.135592000000003,2.979572238347923,0.15647242514822873
18.140196000000003,3.2323627151074295,0.15863747815279217
18.144792,3.4896164622882857,0.16049749825611997
18.149384,3.757052499270188,0.16166390478646062
18.153976,4.031517685670499,0.16223249689824362
18.158564,4.311080728248039,0.16195401613345486
18.163152,4.5848601307337775,0.16127183369875997
18.16774,4.847292960279054,0.16047692459827506
18.172332,5.091350067465458,0.1597832504775677
18.176924,5.317153637007136,0.15918540928054029
18.1815,5.528834286999891,0.15868680653086864
18.186096,5.728313071053163,0.15812854178008645
18.190684,5.915956543309391,0.15750360449379752
18.195276,6.08624591236854,0.15696385699821216
18.199872,6.2439227198971405,0.15634804055482776
18.20446,6.380647686438073,0.1558664445684783
18.209052,6.507091840648963,0.15530968787069013
18.213644,6.618679967026058,0.15480978795037423
18.218248000000003,6.717621630055713,0.15434648597630896
18.22284,6.806370763652585,0.1538769191312966
18.227428000000003,6.883128498921376,0.15344347821705204
18.232024000000003,6.952636377528619,0.15295247939745096
18.236616,7.017837072245546,0.1523497991609703
18.241212,7.070679814491956,0.15181148472605321
18.245792,7.113907049059419,0.15133636978171885
18.250388,7.1487508627211325,0.15097169480855363
18.254968,7.17873095000217,0.15070052033604167
18.259552,7.207689418121413,0.1504565551173195
18.264132000000004,7.244454285392568,0.15007802817334803
18.268728000000003,7.28775956322555,0.149600665523117
18.273312,7.326323299392,0.14920211170926007
18.277912,7.3657864700061,0.1487960187969048
18.282508,7.406926324801347,0.14838261308891637
18.287104,7.449742863777746,0.14795669300685332
18.291692,7.494480456363585,0.1475076259530928
18.296284,7.543959590615958,0.14698945289394888
18.300864,7.587142683734793,0.14655671003701837
18.305448,7.6308145157102105,0.14609704164691953
18.31004,7.673542771789354,0.14561197758286673
18.314628,7.719946808924605,0.1450415014388186
18.319224,7.7678612040782316,0.14442818663324997
18.323804000000003,7.814221099764853,0.14382918534483247
18.328380000000003,7.8571054423750315,0.14327729976188625
18.332976,7.9012557735752935,0.14269802288350553
18.337560000000003,7.944751039756199,0.14212237634702057
18.342152,7.9868139911842455,0.14155251267561686
18.346744,8.031286735078318,0.14093197186144038
18.351332,8.070240687572356,0.14038273189381567
18.355936,8.099833741447478,0.13996223390761092
18.360512,8.121209700579625,0.13964437938597934
18.365108,8.146139256053736,0.1392492066760415
18.369684,8.16861487761319,0.13887432534168587
18.374284000000003,8.187614946096204,0.1385384150103512
18.378872,8.202362211769268,0.13824116343108342
18.383472,8.210691251594652,0.13802254928046065
18.388064,8.211580446410563,0.13789858768517485
18.39266,8.217088998178856,0.13771745742204744
18.397252,8.221575930785356,0.13755333715450402
18.401848,8.227861732287153,0.1373698361526026
18.406436,8.233248099341301,0.13719858417701694
18.411032,8.235569608910069,0.13707638538296346
18.415624,8.236869499317043,0.13697058696682402
18.420216000000003,8.239068824171666,0.13685559957177043
18.4248,8.2392249107027,0.1367729667363348
18.429388000000003,8.236682693890792,0.13671921293810643
18.433972,8.231197804307648,0.13670698169643736
18.438564,8.224036230543353,0.13670699797165203
18.443156,8.22251563289324,0.13663746622123277
18.447744,8.224959327176153,0.1365104879246698
18.452336000000003,8.232144563125596,0.1363223962009894
18.456924,8.241128667970335,0.1361178696688004
18.461528,8.25137876140516,0.13588594186626077
18.466112000000003,8.258031117049393,0.1356909696854836
18.4707,8.267870514893152,0.13544297810851263
18.475308,8.281796389384088,0.1351320367645805
18.479896,8.30107472911228,0.1347291920745421
18.484488,8.31646682017296,0.13434342620225778
18.489084,8.331570400356721,0.1339356970569513
18.49368,8.345363850501771,0.13352382915913086
18.498276,8.35298344422743,0.13317016105360188
18.502868,8.361824885094547,0.13275376358350596
18.507464,8.370622184513035,0.13230294053407043
18.512052,8.372346193064487,0.13191695442137824
18.516652,8.373615364576244,0.13147987017157034
18.521236,8.376761448248816,0.1309838939771246
18.525836,8.383050432672286,0.1304007632751618
18.53042,8.38418717983816,0.12985710984129975
18.535020000000003,8.380904798031311,0.12931757130573684
18.539612,8.380398762832924,0.12871253109554887
18.544208,8.378949151738261,0.12808225893115469
18.548796000000003,8.370548434490708,0.12750884592141984
18.553388,8.358017099147348,0.1269580646230211
18.557976000000004,8.347362675964805,0.12634658797545753
18.562572000000003,8.334132134153464,0.1257538314107617
18.56716,8.32151251591285,0.12513114032683675
18.571748,8.307338398205234,0.12451255693394846
18.576336,8.294063714945262,0.1238840620697854
18.580928,8.28397607388482,0.12320751649969297
18.585516,8.27184519450079,0.12255814955120548
18.590108,8.262534803173848,0.12187575425685071
18.594696,8.252613488276177,0.1212230575252315
18.599276000000003,8.24346942311201,0.12056828813056909
18.603868,8.244952245156842,0.11979098141915305
18.608456,8.248155892831456,0.11904000492702783
18.613044,8.25177023609713,0.11830829609224422
18.617648000000003,8.255673090239727,0.11760196158860309
18.622236,8.263051497458768,0.1168680861951949
18.626844,8.275093403078822,0.1161281492613702
18.631436,8.28844543873759,0.11540604107506136
18.63604,8.303884854168572,0.11469570244215473
18.640636,8.322677637961856,0.11396747624897952
18.645224,8.349198777641533,0.11319754407465511
18.649816,8.378584546826925,0.11243879996393746
18.654396,8.413366922698208,0.1116449799613626
18.659,8.445617321389317,0.11090387874832518
18.663576,8.481098903728583,0.11016002259676436
18.668176000000003,8.520955473591943,0.10939635067812145
18.672756,8.56199998877987,0.10865988291890716
18.67734,8.605864992024886,0.10790112720338224
18.681924,8.655248786669935,0.10710831168745724
18.68652,8.710151372715014,0.10628181741375332
18.691108,8.766730642941248,0.10545647088394867
18.695704,8.818324002072654,0.10469517843160187
18.700292,8.8720827842418,0.10391415684138111
18.704888,8.922898893639706,0.10316358318533939
18.709476,8.973715003037611,0.10241930630236425
18.714060000000003,9.030294273263845,0.10163450207005326
18.718652,9.08621847847072,0.10085438050167511
18.72324,9.134458469239828,0.10014185018045935
18.727836000000003,9.181143960541934,0.09943489010106828
18.732416,9.226807832682246,0.09874007359528317
18.737008000000003,9.269240521174403,0.09805926313036688
18.741588,9.313183567684936,0.09735548651373684
18.746180000000003,9.352507257243085,0.09668768996365405
18.750764,9.393996369838964,0.09599751646445549
18.755352,9.432787179091902,0.09532735052854245
18.759944,9.4670808161066,0.09468584611569196
18.764536,9.499164888634937,0.09404471080252122
18.769124,9.533414384201008,0.09338601512288024
18.773728,9.56226727308119,0.0927594648907418
18.778316,9.587766793599075,0.09214682651046881
18.782908,9.611711814649953,0.09153643169310009
18.787488000000003,9.633857966805536,0.09093482684360803
18.792088,9.651629131437025,0.09035138210302164
18.796668,9.670666284658598,0.08974889880535498
18.801268,9.689048372860816,0.08914326922658579
18.805864,9.701911669663,0.08856999934485892
18.81046,9.710932859246302,0.08802271404419648
18.815056,9.721586591562128,0.08743990702082009
18.819648,9.7331397583256,0.08685553568974771
18.824256,9.750167575040477,0.08621839655842047
18.828852,9.762576034802967,0.08560396481583252
18.833444,9.767300280127692,0.08503707761031142
18.83804,9.77202452545242,0.08447005257357078
18.842636,9.775072086595996,0.08390625637093033
18.847232,9.776442963558422,0.08334425548110813
18.851812,9.777936025234993,0.08277728796038913
18.856396,9.776119859997895,0.08224421057615716
18.860984,9.768296164504177,0.08175467462943259
18.865576,9.759450849848667,0.0812720146547209
18.870172,9.747662862421922,0.08080793369087126
18.87476,9.73383163667159,0.08035865603112155
18.879352,9.722698714264203,0.07989985123218321
18.883940000000003,9.713897541057323,0.07944593421934526
18.888536,9.706895236745737,0.07898635954141774
18.893120000000003,9.698504759129921,0.07854827549951642
18.897708,9.688848292924021,0.0781261223512293
18.902308,9.680213445879915,0.07769541364831394
18.906892,9.677263716398613,0.07726928143309893
18.911484,9.671371314146077,0.07686068772039659
18.916076,9.658205393046842,0.07650859390369898
18.920664,9.649170090043407,0.07615632058473575
18.92526,9.647330262621155,0.07578264977150109
18.929844000000003,9.64446881603711,0.07541553698449863
18.934444,9.643161868920071,0.07505307397217198
18.939032,9.643409421270036,0.07469466724736708
18.943632,9.640469931420474,0.07436101433182037
18.948216,9.636631007123265,0.07402847343864165
18.952816,9.636756374759084,0.07367179236745507
18.957408,9.6394578610237,0.07331267446143641
18.962000000000003,9.642037162574171,0.07295739273832484
18.966596000000003,9.64551589857229,0.07259933234838103
18.971192,9.645396896779816,0.07225040802861803
18.97578,9.643601210806194,0.07190172298033685
18.980376,9.639884471223132,0.07156249031632883
18.984952,9.637555904944298,0.07120245330963927
18.989548,9.63763713113149,0.07081467942088282
18.994136,9.63604167313753,0.07042551895865037
18.998724000000003,9.627739478418972,0.07003451549392847
19.003312,9.620703272290495,0.0696266658806255
19.007908,9.61481087003796,0.06920583568343831
19.012500000000003,9.604910034403767,0.06877519277087363
19.017088,9.590756395959627,0.06834516642440434
19.021688,9.578890365267362,0.06789202405825198
19.026272,9.565347650393951,0.06743784364537023
19.030864,9.550372620767682,0.06697242051682434
19.035448,9.54357054443576,0.06645653063865915
19.040036,9.541099314179302,0.06590593588246825
19.044632,9.535396900274693,0.06534777455134358
19.04922,9.529405975493164,0.0647693863264953
19.053808,9.525947027891801,0.06416027612623655
19.058404000000003,9.523754068880525,0.06353633466942077
19.063004,9.526547020964069,0.06288783850531976
19.067596,9.5306059616377,0.06222508387560352
19.072184,9.535930890901417,0.06154823956437787
19.07678,9.54305468906043,0.060871833017671205
19.081368,9.54711362973406,0.06021194694192763
19.085968,9.554115243178925,0.059539402909342745
19.090548,9.566635648023825,0.058856692681623184
19.095148,9.58005548731637,0.05817437963553668
19.099732000000003,9.594619130484855,0.05748202990388905
19.104324,9.61445719562508,0.05678953985364557
19.108912,9.633518011031805,0.05609243102985901
19.113508000000003,9.652456641724385,0.05540243016871233
19.118112000000004,9.668452599645729,0.05472201870075608
19.122704,9.685880872319931,0.05405407840101405
19.127292,9.693215138090345,0.05343318304516334
19.131888000000004,9.691599200832908,0.052845995117323276
19.136476,9.686429667233506,0.05228764058617624
19.141060000000003,9.676152037825139,0.051752202263909815
19.145648,9.66027757375122,0.05125723778553505
19.150244,9.639950078887686,0.05079351227995019
19.154836000000003,9.607607523510925,0.050375773062002624
19.159416,9.566314765106315,0.04998848556955445
19.164008000000003,9.51889229173094,0.04962669590030372
19.168596,9.45712300864183,0.04929597461531007
19.173188000000003,9.393310487229133,0.048970329266593754
19.177784000000003,9.320303393360295,0.04868386795211798
19.182372,9.234503989244724,0.04843721964943402
19.186968,9.138732762939508,0.048225312342851864
19.191556,9.035810202501736,0.04804270561292773
19.196144,8.925203427626201,0.047874951613061455
19.200740000000003,8.808222568351614,0.04774124405769137
19.205332,8.680248267725588,0.04764793425406827
19.209928,8.548065305738241,0.04757664525726623
19.214516000000003,8.40652144513198,0.0475158598133972
19.219116,8.262523650611065,0.047439835512528186
19.223696,8.120202540271306,0.04736516047177034
19.228296,7.978536494950899,0.04729839977198352
19.23288,7.831517984393233,0.04726740686596725
19.23748,7.678858497721389,0.04724645486804846
19.242072,7.522601273258955,0.04722242072996643
19.246668,7.371329959891343,0.047172498384007784
19.251256,7.222634765152527,0.047126388054472244
19.255848,7.070874712928332,0.047095528170272474
19.260440000000003,6.925410701837672,0.04706432171516892
19.265032,6.77496077965219,0.047053975030496784
19.269620000000003,6.628230779971442,0.04703852099232263
19.274208,6.488940625300174,0.04701040896790942
19.278796,6.353370393133638,0.04697647618217186
19.283388,6.218577410700606,0.0469497657036539
19.287976,6.079453582192108,0.046966694116280586
19.292564,5.944294045616639,0.046960901944028716
19.297156,5.810156128202965,0.046952003172089356
19.301744,5.682025741045905,0.046900804695717856
19.306328,5.56019139502238,0.046846108157197815
19.310916,5.441588232647008,0.04680889834267554
19.315504,5.3229850702716375,0.04676686717934418
19.3201,5.204381907896267,0.04672348749916485
19.324688,5.089987406882216,0.04663925320135701
19.329276,4.980090078106405,0.04655660384378769
19.333868,4.868682391312217,0.04652015063498117
19.338468,4.7566637809473,0.0465257327251285
19.34306,4.642724116972942,0.04654175312174874
19.34764,4.527640649122645,0.04658652406751272
19.352244,4.414478234881791,0.046619554729492335
19.356832,4.308755665650409,0.04663394434487632
19.361432,4.204176900294967,0.04662247199569709
19.366024000000003,4.095878212434788,0.04661670159573081
19.370628000000004,3.9877017092887543,0.04659580876034354
19.375216,3.878625771695073,0.04657846486142119
19.379816,3.7768233529480915,0.046468006004948076
19.3844,3.6754316297921754,0.04640242510738467
19.388984,3.5795586980362923,0.04632651607974927
19.39358,3.4738361288049107,0.046328659506190195
19.398172,3.3632498331928535,0.046372781040644136
19.402776000000003,3.2544624064760916,0.04641764139826228
19.407372,3.1454306103310388,0.046491872053587596
19.411948,3.0354993797383374,0.04656683740719842
19.41654,2.9290437022220823,0.04664313441339941
19.421128000000003,2.8245090783152684,0.04671056637321573
19.42572,2.7253269196457137,0.04666958917819038
19.430304,2.625489695956802,0.04660066730930975
