Time,Force,Position
17.948828,0.0,0.0
17.953432,0.0,0.0
17.958012000000004,0.0,0.0
17.962612,0.0,0.0
17.9672,0.003480587746645281,0.0
17.971788000000004,0.006716806064999218,0.0
17.97638,0.011096828259292351,0.0
17.980972,0.018297338510674707,0.0
17.985564000000004,0.021655741543174317,0.0
17.990152000000002,0.027956817346908826,0.0
17.99474,0.035401697026582524,0.0
17.999332000000003,0.04399038058219542,0.0
18.00392,0.05180181440430614,0.0
18.008519999999997,0.06345535544529961,0.0
18.013108000000003,0.0749867117721474,0.0
18.017704,0.08651806809899519,0.0
18.022288000000003,0.1008699124829322,0.0
18.026872,0.11522175686686921,0.0
18.031460000000003,0.12740817821307351,0.0
18.036052,0.14049403400692567,0.0
18.040648,0.15268045535312996,0.0
18.045244000000004,0.1639674422516864,0.0
18.049832,0.1769311133313929,0.0
18.054424,0.1915714685922494,0.0
18.059004,0.20285342082060628,0.0
18.063592,0.2152791769249024,0.0
18.068188,0.22631675972496795,0.0
18.07278,0.23657709279153133,0.0
18.077384,0.25350002113406667,0.0
18.081972,0.26699153784878443,0.0
18.086572000000004,0.27987213099277386,0.0
18.09116,0.29226398528018055,0.0
18.095756,0.3051887198727981,0.0
18.100344,0.3141491625323872,0.0
18.104944000000003,0.32106636686838935,0.0
18.109532,0.32990462481383287,0.0
18.114124000000004,0.33477859082624795,0.0
18.118716,0.3400632524297282,0.0
18.123312,0.3493122059662368,0.0
18.127908,0.35627355175086706,0.0
18.132508,0.36581101616429523,0.0
18.137100000000004,0.3760035455970798,0.0
18.141692,0.384275021420424,0.0
18.14628,0.3924243125296225,0.0
18.150868000000003,0.40253879869689063,0.0
18.155456,0.4144962952080825,0.0
18.160052,0.4282968020631982,0.0
18.164644000000003,0.43912073433018967,0.0
18.169236,0.45122089481900485,0.0
18.173832,0.471714715845309,0.0
18.178420000000003,0.5041660333828041,0.008603069887912112
18.183012,0.5593341589863748,0.01692358590273909
18.187604,0.639140146265463,0.025014798004108905
18.192192,0.7380652038200355,0.03321691256363271
18.196800000000003,0.860850873316623,0.04138710811683176
18.201384,0.9974811911169534,0.04971096962683492
18.205992,1.1560069258012295,0.05794363952043108
18.21058,1.3337297740265073,0.06615878462854839
18.215172000000003,1.5299166275079132,0.07436134325604914
18.219768,1.7530289504167151,0.08243640832526164
18.224356,1.9974257666387336,0.09045429526409146
18.22896,2.263229260888115,0.09845896925311876
18.233552000000003,2.5506838025931495,0.10643425462589964
18.238148,2.8555365889438904,0.11441275991969288
18.242736,3.178154174082775,0.1223796840328144
18.247336,3.5182480471328827,0.1303136633697525
18.251924,3.8790052502937407,0.13817855322567024
18.256524,4.262180511012016,0.14598693761429296
18.261108,4.661145135828627,0.15372061490867206
18.265708000000004,5.066073149453226,0.16137743843607383
18.270304000000003,5.4656282185770895,0.16038547712975035
18.274896,5.839846219557449,0.15967092959847456
18.279484000000004,6.187705533232515,0.15918050082792556
18.284072,6.51885556909812,0.1585341911719584
18.28866,6.830187328220257,0.15786141722047486
18.293252000000003,7.1325381654193265,0.15694144728484696
18.29784,7.414259574324535,0.15610678297122865
18.302432000000003,7.6768619129542595,0.1552661307367361
18.30702,7.92173335461273,0.15438367429597585
18.311612000000004,8.140123924251759,0.153607029705342
18.316196,8.333465936624206,0.1528870455672945
18.320776,8.507278183130103,0.15213569524535306
18.325376,8.663892412969957,0.15134733673259482
18.329952,8.803064256715476,0.15051785005655802
18.334544,8.923361399613803,0.14965422654877078
18.33914,9.022374049198914,0.14880738408152325
18.343728,9.09920277102316,0.14799297889646157
18.348336000000003,9.153192500067181,0.14719915041269485
18.352924,9.185453138390033,0.14646677607661895
18.357516000000004,9.203024075041858,0.14578324409708696
18.362108,9.216620480128917,0.14506515992549912
18.3667,9.231605058520206,0.14431281275537317
18.371292000000004,9.24977667911102,0.1435091275334651
18.375872,9.267904158253208,0.14268026704363498
18.380472,9.283333334052452,0.14188160873874167
18.385052,9.287192046746421,0.14119831154461693
18.389648,9.289862814115821,0.14050369377379332
18.394236,9.29314450505595,0.1397817088041788
18.398836000000003,9.292950642919633,0.13909110538293024
18.403432,9.293001150211607,0.13838778487644035
18.408024,9.294972711113022,0.1376592801692342
18.412604,9.295145403119143,0.13694963418180378
18.4172,9.287467554524726,0.13630735446725034
18.421796,9.276069783425568,0.13570471372679835
18.426388000000003,9.263406023736326,0.13512742716400442
18.430976,9.252785502370672,0.13452075010125014
18.435572,9.240898992414934,0.1339383796835774
18.44016,9.231754927250766,0.1333612122996882
18.444744,9.224043176839459,0.13278257247056235
18.449336,9.220994924829162,0.13218921303726067
18.453928,9.213004903172674,0.13169175840721742
18.458512,9.205836272698315,0.1312224395159183
18.463096,9.196668545348993,0.130811840122331
18.467692,9.18652334028651,0.13044669943298498
18.47228,9.180264383891538,0.13006983808252437
18.476856,9.181078718363601,0.12963376457833098
18.481452,9.18410261732203,0.12919634498493973
18.486040000000003,9.189991145786173,0.12876374487655962
18.490628,9.195024381251294,0.12836886123873786
18.495220000000003,9.1999795734509,0.12801028024352587
18.49982,9.2093097531746,0.1276208647685569
18.504412,9.221993301260598,0.12721408143304624
18.509008,9.238685282728254,0.12679020244256625
18.513600000000004,9.262694924491239,0.12630311173185446
18.518188,9.285971457969348,0.1258485760208747
18.522788,9.309536502324377,0.12541681208905064
18.52738,9.33862033807944,0.12493879120016106
18.53198,9.36668255467271,0.12447581554144563
18.536568000000003,9.39936412821836,0.12397534788803057
18.541168,9.424317345877622,0.12352426935386474
18.545752,9.45372359432649,0.1230082671743635
18.550348,9.486439069689036,0.12244849254716082
18.554952,9.51964328390816,0.12186720603789943
18.559544,9.548350325889048,0.12132031358585645
18.564144,9.571905130612336,0.12080645177541673
18.568736,9.594927055030414,0.12028760862966567
18.573336,9.61471779580034,0.11978023038136132
18.577928,9.627557430417372,0.11931801959854386
18.582508,9.645993899699956,0.11877606552233083
18.587092,9.664264042819763,0.1182083994468183
18.591684,9.674439275910743,0.11770193261505772
18.596276000000003,9.678685022010622,0.1172266958985835
18.600868,9.68252007251944,0.11673724662748573
18.60546,9.677482963265923,0.11630845376042402
18.610052000000003,9.672890451420361,0.11582723270051781
18.614644,9.66518894064079,0.11535021416373388
18.619236,9.649148150404095,0.11494108418707172
18.623824,9.631919414842834,0.11451738692820311
18.628412,9.60941625730983,0.11412617042397355
18.63302,9.591532456729214,0.11369647602953492
18.637608,9.569029299196213,0.11330215895233835
18.642204,9.541906784710829,0.11294289682128032
18.646792,9.518870746872613,0.11253775873068145
18.651380000000003,9.499921185681576,0.11208616607455134
18.655976000000003,9.48289267809998,0.11161567993563226
18.660576,9.464964736070735,0.11115096867013595
18.66518,9.452022705136311,0.11063561886674125
18.669772,9.44075735838304,0.11011129280145711
18.674368,9.42462828524909,0.10963169581560436
18.678948,9.414018003515176,0.1091134496542909
18.683548,9.410847566790732,0.10853941027089847
18.688128,9.414872605647476,0.1079219108592433
18.692736000000004,9.420329959257076,0.10730984661688908
18.697328,9.430939550124268,0.1066738459434893
18.701924,9.443392151335393,0.10605841271485554
18.706516,9.460996989804109,0.10542277360308971
18.711112,9.486041673282298,0.10473471889883273
18.7157,9.513295921246845,0.10405297624721171
18.720292,9.539284180621312,0.10338991430408702
18.72488,9.567848558624574,0.10272105439095382
18.729476,9.60168735859958,0.10202898464561834
18.734056,9.63977896138453,0.10132501491649806
18.738648,9.67161866448458,0.10068946235153399
18.74324,9.706034486213424,0.10004955010839539
18.747836,9.742126992123417,0.09940769321135141
18.752428,9.776831324729178,0.09879239057887593
18.75702,9.810924733764214,0.098207937396419
18.761604,9.851680738075222,0.09758106072132208
18.766192000000004,9.894890676300879,0.09695219187936327
18.770788000000003,9.930949280393987,0.09639271046605152
18.775376,9.964065211715855,0.09586125460695974
18.779964,9.992317416657048,0.09537046199381034
18.78456,10.02171342547418,0.09486946166556456
18.789148,10.052497607595544,0.0943493527898048
18.793756,10.085569397468785,0.09380650267761295
18.798352,10.115043449551436,0.09328340703644306
18.802956,10.138876525519908,0.09279585261808
18.807548,10.163076155630817,0.0922971947083682
18.81214,10.191362262388902,0.09176478981901678
18.816736,10.216050631356392,0.09125095483714368
18.821328,10.238162881695086,0.09074742668145397
18.825920000000004,10.257043948385625,0.090247809915482
18.830512,10.279112057275688,0.08971826830582594
18.835104,10.293740321156282,0.08922788513830734
18.839684,10.308612954465163,0.08873079723693798
18.844288,10.324629391649985,0.08822149705561647
18.848884,10.342156186853183,0.0876902103711659
18.853472000000004,10.349422648989819,0.08721143085333628
18.858068000000003,10.35513461165945,0.08673128858426656
18.862664,10.363378551509248,0.08621610665027908
18.86726,10.369945807177897,0.08570321507621882
18.871856,10.376879616988985,0.08517680440965988
18.876444,10.38213674261892,0.08465454990351197
18.88104,10.381508522706389,0.08416955171215429
18.885628,10.379203618612706,0.08368880720160568
18.890216,10.377920333680816,0.08320064271891399
18.894804,10.380601340681956,0.08268671300005014
18.8994,10.380339674911859,0.08219105361609082
18.903992,10.377379705798822,0.08170457180285436
18.908584,10.375685725275865,0.08120210299957727
18.91318,10.370271822248172,0.08071434112762192
18.917764,10.360893627287453,0.08024917780165564
18.922364,10.351637617040879,0.07977977844492909
18.926944,10.348022582908483,0.07928355634842353
18.931528,10.338522203233618,0.0788202708386977
18.936124,10.328244573825248,0.07835502300983314
18.940712,10.310160545264969,0.07793248203889823
18.945308,10.300537980875959,0.07747183420421379
18.949896000000003,10.292836470096388,0.07700181450601234
18.954484,10.287833262659762,0.07652499121916004
18.959088,10.28552835856608,0.0760408024541659
18.963676,10.283878519491752,0.07556310967667362
18.968272,10.278264388484397,0.07510701719157585
18.97286,10.280212287200662,0.07461938139213428
18.977456000000004,10.274353786765014,0.07417041064072533
18.982044,10.267595851881719,0.07372367596925031
18.986644,10.25993848255078,0.07327986978443479
18.991232000000004,10.253302732381632,0.07282863209358705
18.99584,10.252840838631874,0.0723683622114169
19.000432000000004,10.251890206025532,0.07192601232513018
19.005028000000003,10.258135049000373,0.07146785809830572
19.009624,10.271819736984689,0.07098498810874102
19.01422,10.28526005554071,0.07051208292174178
19.0188,10.296901505201438,0.07004434346473751
19.023396,10.317370973175873,0.06953484605443046
19.027996,10.341560363655041,0.0690166036322148
19.032592,10.371146360820099,0.06848681439214377
19.03718,10.398034054642212,0.06796634560313905
19.041764,10.423777944588387,0.06745855770243278
19.046352,10.44850021537277,0.06696014622512841
19.050952,10.473222486157146,0.06646453236523868
19.05554,10.49704532249388,0.06597156403995025
19.060136,10.526753504373085,0.06545371436471725
19.064732,10.552741763747552,0.06495005771977612
19.06932,10.591033594512165,0.06440847151948972
19.07392,10.629081055848491,0.06387627304904889
19.078508,10.667783582204171,0.06335399241144381
19.0831,10.710983280798093,0.06282917395159036
19.087688,10.747764753544333,0.06232118543520783
19.092276,10.783113911537713,0.061804629835204655
19.096872,10.814210266721147,0.0612895133846161
19.101460000000003,10.842730503275781,0.06077735850755266
19.106056,10.87035130538277,0.06026747022775762
19.110652,10.901569845280347,0.05975627391263252
19.11524,10.928701908530753,0.05926914312136007
19.119832,10.95301348372407,0.05879201679137038
19.124412,10.977813797773967,0.058301629796919614
19.129008,11.003269176843222,0.057820407373691714
19.133596,11.027825121464828,0.05734102633801047
19.138196,11.049560578029347,0.05686901987565155
19.14278,11.069374980984422,0.056403816570628436
19.14738,11.08828994949185,0.05593935745950754
19.15198,11.104017875799753,0.055494275551035754
19.15658,11.115903694888774,0.05505906903138724
19.161164,11.12112691870182,0.0546425034549834
19.16576,11.125572892781365,0.05422217030283686
19.170348,11.127320563517966,0.05380366931341823
19.174944000000004,11.119951705063947,0.05339373597210984
19.179532,11.10796348965754,0.05298713684888236
19.184124,11.094464916232752,0.05259879930724858
19.188712,11.079944723646177,0.052213733073053735
19.1933,11.061338054412424,0.05184432792860689
19.197888,11.040932516283377,0.05147411807797087
19.202484,11.013864382878356,0.05111705786714201
19.207076,10.98193252309266,0.05077121463128198
19.211668000000003,10.941294829707404,0.05044417939375081
19.216264,10.892606367741946,0.050143889523293586
19.220852,10.837255310500515,0.049854587957586786
19.225444000000003,10.77896158048785,0.049571164100422616
19.230024,10.71772517770395,0.04929301801406201
19.234612,10.648804560482287,0.049028398582562076
19.239228,10.575919651327593,0.04877287953744629
19.24382,10.496249962182784,0.0485312759389667
19.248416,10.40967330833371,0.048306867113286966
19.252996000000003,10.314390820885077,0.048100053113375306
19.257588,10.214122422341623,0.0479063751359151
19.262184,10.106947059093901,0.047730149892068516
19.266776,9.998016968399515,0.04758061846083171
19.27138,9.89051919245799,0.047440156733094964
19.27596,9.780200928459376,0.04730143267731736
19.28056,9.660688092004618,0.04719916325414161
19.285148,9.54399574360695,0.04708829019773349
19.289748000000003,9.421051495524374,0.047005553316526796
19.29434,9.294142955508772,0.046933352059539295
19.298944,9.165313361883728,0.04686272931372529
19.303536,9.04188037494457,0.046790432545739
19.30812,8.917303584129474,0.04672620323157956
19.312716,8.786963632486053,0.04667367425212744
19.317312,8.649716716138366,0.04664313402207097
19.3219,8.506340084819922,0.04664123714223799
19.326496,8.364640137682624,0.046643483837385515
19.331076000000003,8.21987533305995,0.04665982215361217
19.335664,8.075110528437273,0.04667610343703553
19.340252,7.940850426309453,0.04666429275394948
19.34484,7.806468139467485,0.046658077072845854
19.349428000000003,7.673107471787311,0.046643139450246125
19.354024000000003,7.540524053840641,0.04663419700598934
19.358616,7.4093288091982,0.046601817367769034
19.363204000000003,7.274291457336877,0.04657932200059645
19.367796,7.135534182970815,0.046559786907797364
19.372384000000004,7.001518450271287,0.04653259235909103
19.376980000000003,6.85483259203917,0.04655220242857739
19.381572,6.711089406578289,0.04656200443433695
19.386164,6.566324601955612,0.04657926361145916
19.390772,6.420415993456998,0.04660969418644466
19.395360000000004,6.268089159110701,0.04664421264739092
19.399964,6.11702831335449,0.04665588046760981
19.404544,5.972263508731814,0.046671985422317847
19.409136000000004,5.83248461520396,0.04665884556130762
19.413736,5.697813817485073,0.0466091282893286
19.418328,5.564042454213835,0.04655781056238941
19.422932000000003,5.43321376371383,0.04648904646172051
19.427512,5.302507257927973,0.04640695635400357
19.432112000000004,5.160274430485467,0.04636421614749388
19.436704,5.023682579157138,0.04630383625723983
19.441296,4.883903685629285,0.04627493690924713
19.44588,4.743225357653783,0.04624813253763961
19.45048,4.598582737745253,0.046243265597257346
19.455076,4.457782225055605,0.04621803978916709
19.459672,4.320579450156551,0.04619154818951452
19.464252,4.1790016877334,0.04615136705532091
19.468848,4.043187086138575,0.04609312312923686
19.473440000000004,3.904674181200806,0.046028675425787736
19.478032,3.771147187357858,0.04590433851222035
