Time,Force,Position
17.952532,0.0717679123238799,0.0
17.957124000000004,0.06561125130356589,0.0
17.961716,0.060476209445045406,0.0
17.966303999999997,0.05918327480540767,0.0
17.970892000000003,0.05789034016576994,0.0
17.97548,0.05647522081198653,0.0
17.980072000000003,0.05313904784876176,0.0
17.98466,0.04686020211430208,0.0
17.989252000000004,0.04135860611334458,0.0
17.993848000000003,0.036756444560034934,0.0
17.998428,0.029455979663781728,0.0
18.003020000000003,0.02383219894867856,0.0
18.007608,0.017431168500073212,0.0
18.012196,0.008331834708524308,0.0
18.016808,0.002052988974064632,0.0
18.021396,0.0006378696202812258,0.0
18.025988,0.0,0.0
18.030568,0.0,0.0
18.03516,0.0,0.0
18.039752000000004,0.0,0.0
18.044344,0.0,0.0
18.048936,0.0,0.0
18.053524,0.0,0.0
18.058124000000003,0.0005598263547637059,0.0
18.062704,0.0005598263547637057,0.0
18.067304000000004,0.002796336890677444,0.0
18.071896,0.002796336890677444,0.0
18.076484,0.002796336890677444,0.0
18.081076,0.002796336890677444,0.0
18.085672,0.0034003046940693036,0.0
18.09026,0.003400304694069303,0.0
18.094856000000004,0.003400304694069303,0.0
18.099444,0.003400304694069303,0.0
18.10404,0.003400304694069303,0.0
18.108628,0.003400304694069303,0.0
18.113212,0.003400304694069303,0.0
18.1178,0.003400304694069303,0.0
18.122396,0.003400304694069303,0.0
18.12698,0.0034003046940693036,0.0
18.131560000000004,0.0034003046940693036,0.0
18.136156000000003,0.003400304694069304,0.0
18.140736,0.003400304694069304,0.0
18.145328000000003,0.003400304694069304,0.0
18.149924,0.002840478339305598,0.0
18.154504,0.003077892000260443,0.0
18.159108,0.0008413814643467045,0.0
18.163704,0.0012009798394472173,0.0
18.168296,0.004381066271636957,0.0
18.172892,0.010503825475061596,0.0
18.17748,0.012302694370357295,0.0
18.182072,0.015604965516692706,0.0
18.18666,0.021972094148408686,0.0
18.191256,0.02846140749427034,0.0
18.195844,0.032008048068897094,0.0
18.200444,0.0382529919864674,0.0
18.205036000000003,0.04257688229459634,0.0
18.209640000000004,0.04408028454563605,0.0
18.214232,0.04408028454563605,0.0
18.218824,0.04660530595846928,0.0
18.22342,0.05092919626659821,0.0
18.228012000000003,0.05717414018416852,0.0
18.2326,0.06264183436823666,0.0
18.237196,0.06823171326645046,0.0
18.241784,0.0740659615929556,0.0
18.24638,0.07978498097265158,0.0
18.250968000000004,0.08484197956565452,0.0
18.255564000000003,0.09056099894535051,0.0
18.260152,0.09268228053445506,0.0
18.264748,0.09390412767591177,0.0
18.269336,0.09896808203625122,0.0
18.273932,0.10390985168244501,0.0
18.278528,0.10590894855740392,0.0
18.283108,0.10856311045171932,0.0
18.287708,0.11338269538376744,0.0
18.292288000000003,0.11292785834407412,0.0
18.29688,0.11631512852326358,0.0
18.301464,0.12342232120719007,0.0
18.306056,0.1308891122662171,0.0
18.310664,0.13505363217890873,0.0
18.315256,0.13651984874865677,0.0
18.31986,0.13528776197546125,0.0
18.324456,0.1424390961080159,0.0
18.329044,0.15483095039542263,0.0
18.33364,0.17095296681930522,0.0
18.338228,0.19452506788440074,0.0
18.342824000000004,0.22734612248600491,0.0
18.347412,0.26520746926279803,0.007159137699718994
18.352012,0.31158466129122564,0.014617956912261563
18.356592000000003,0.362801917515179,0.022625702669981162
18.361192,0.42315618219323403,0.03116383661158191
18.365784,0.49616714985046473,0.04002639020575959
18.370384,0.590340426106767,0.04864948843459585
18.374968,0.7035886311899254,0.05713515108058466
18.379564,0.840164567909888,0.06541027386038988
18.384152000000004,0.9992909865331527,0.0736082436229206
18.388748000000003,1.1750384000686214,0.08175630747532554
18.393344000000003,1.3690834926974442,0.08986583104755037
18.39794,1.5855127410667955,0.09787296654920892
18.40252,1.8226936024441527,0.10584987725846749
18.407108,2.0803817074012247,0.11383269432679312
18.411696000000003,2.354979318147421,0.12188258372264046
18.416292,2.6345833192519166,0.1300037125573419
18.420884,2.9208601552641227,0.1381323733272753
18.425472000000003,3.2164639880783548,0.1462253512853447
18.430064,3.516364765151163,0.15429106960303204
18.434652000000003,3.8196630520348993,0.162339579067041
18.439244,4.133632367576264,0.1631110199304908
18.443832000000004,4.452221040070014,0.16353382057459304
18.44842,4.771743048828301,0.16338845215327727
18.453016,5.09410920782883,0.1625646825831451
18.457604,5.40839387935394,0.1613075267554375
18.462212,5.699306677793617,0.16029085036774463
18.466788,5.969301537062514,0.15939375005938508
18.471388,6.216579588265336,0.15867737348713568
18.475984,6.447436872535617,0.1579548041992571
18.480576000000003,6.658319793531393,0.15728465669011216
18.485172,6.854580816489925,0.15655282696420228
18.48976,7.031478399744681,0.15585829445793314
18.494360000000004,7.189379097438097,0.1551403581747352
18.498948,7.325173910636167,0.15439974504469287
18.503548,7.446835564653573,0.15352098962435728
18.508128000000003,7.556739950139452,0.1525244122393531
18.512728,7.658040207476439,0.15144935690755446
18.517324,7.745994794998007,0.15037436268911622
18.521908,7.821913842742864,0.149297543520509
18.526488000000004,7.88898439291054,0.14815920564352197
18.531084000000003,7.936823927720325,0.14712014836234052
18.535668,7.9725057380392546,0.14608143289928843
18.54026,8.004046690630647,0.14498120763232336
18.544852,8.024461777524712,0.14397783060053904
18.549436000000004,8.042300745789978,0.14301395612790166
18.554024,8.060506268197685,0.14202611871372106
18.55862,8.080510659500685,0.14101818891068976
18.563216,8.101414485251334,0.14000225804024846
18.567804,8.116432965459511,0.1390779091849075
18.5724,8.133372499277131,0.1381257551716943
18.576988000000004,8.142505633942841,0.13729111405559966
18.58158,8.149473345570819,0.1364988320848042
18.586168,8.15709612221815,0.13571307052487147
18.590756000000003,8.168849516961286,0.13489734550903548
18.595364,8.179869803419548,0.1341250947517578
18.599944,8.192322404630668,0.13335716252015412
18.604532000000003,8.199011845013464,0.13266733033521624
18.60912,8.206111980987323,0.13199438056549678
18.613708,8.214644431714044,0.13132327471532568
18.618304,8.219623286098798,0.13072697883844275
18.622896,8.227222400560983,0.1301431126670133
18.6275,8.232045168414702,0.1296272807104212
18.632088,8.233436524640604,0.12917968145214476
18.636688000000003,8.231274284524543,0.1288028186071827
18.641276,8.225680632780664,0.1284914761844583
18.645872,8.225894283313739,0.1281437428704671
18.650464000000003,8.227540248599674,0.12779854695377948
18.655064,8.22881965974317,0.1274726233511092
18.65966,8.233696808677257,0.12711173029001693
18.664252,8.239351207344846,0.12674955568794746
18.668844000000004,8.249380593536529,0.1263497792892068
18.673440000000003,8.259576305890986,0.12597883672390717
18.67804,8.26928327938886,0.1256347792122805
18.682636,8.27850151403015,0.12531734262429975
18.687232,8.288619183119089,0.12499361873460459
18.691828,8.296815798598585,0.12469412020994135
18.696416000000003,8.31065339019226,0.12433449690256838
18.701012,8.327433654557172,0.12394145859212195
18.705604,8.345479907512168,0.12352575989351093
18.710192000000003,8.364669964343102,0.12309065901977219
18.714784,8.385126009764122,0.12263134513440964
18.719376,8.412244650461114,0.1221013060935531
18.723968000000003,8.441650898909984,0.12153573904149668
18.728548,8.475920873739533,0.12091437998540516
18.733148000000003,8.511456837159166,0.12026879280271394
18.737736,8.540452390016968,0.11969132856672837
18.742328000000004,8.56621675922662,0.11912870893024935
18.746916,8.590548813683412,0.11856396434637133
18.751504,8.61614685673029,0.1179788286678964
18.756096000000003,8.641212019471956,0.11738653543516975
18.760684,8.667010290498498,0.11676341889417731
18.76528,8.694807658399995,0.11608349614045516
18.769880000000004,8.718352223491546,0.1154264490157383
18.774468,8.739687224096738,0.11476849379730134
18.779064,8.758934844929716,0.11410597164544911
18.78364,8.77290804379095,0.11347618424699663
18.788232,8.779563582356857,0.11290807235952863
18.792824,8.779923079789224,0.11238887155539971
18.797424000000003,8.780404761935742,0.1118670691010495
18.802012,8.77638927184402,0.11137693922934719
18.806616,8.771063651713584,0.11087762174099451
18.811200000000003,8.760707979039697,0.11040185514319817
18.815796,8.747287448880435,0.10996307855359715
18.820388,8.732312419254164,0.10952617429973832
18.82498,8.720280062399128,0.10905976903081048
18.829568,8.712334182191267,0.10854493285942446
18.834164,8.70594280145041,0.10802821621795866
18.838752000000003,8.70098373546241,0.10751536483279253
18.843348,8.690139323931941,0.10706126156857824
18.847936,8.67994997742083,0.10661265251826271
18.852516,8.668494642319635,0.10618713004176948
18.857108,8.655651133914207,0.10578993014280264
18.861700000000003,8.649348036070608,0.10534027620100568
18.866296,8.64525450271337,0.10489521647430665
18.870884,8.641205110804755,0.10448309611311594
18.875484000000004,8.647171682534417,0.10400262622910922
18.880072,8.662254783454703,0.10346102216888375
18.884664,8.682367936918435,0.10290202292474974
18.889252000000003,8.699049678754353,0.10239514908357258
18.893836000000004,8.723704145904954,0.10184441250440349
18.898424,8.747381135342392,0.1013381485681479
18.903012,8.774044938999689,0.10083943243265843
18.9076,8.801608177104637,0.10033600684684421
18.912196,8.828682676353,0.09985643197908703
18.916792,8.851304144811754,0.0994392800618539
18.921392,8.875480112737515,0.09902670330342578
18.925972,8.90427543761566,0.0985877778614029
18.930572,8.935891250550892,0.09813179368359123
18.935164000000004,8.973392409028593,0.09762498841461165
18.939764,9.011793001953942,0.09711769071699458
18.944352,9.050604290470355,0.0966291947923752
18.948952,9.089049024844334,0.09615806799654297
18.953548,9.125206151466433,0.09572255301650771
18.958136,9.162629266678616,0.09527032795141155
18.962724,9.201440555195031,0.09479481710484348
18.96732,9.235510302044917,0.09435815617434182
18.971908000000003,9.261118584723533,0.0939800365945577
18.976504,9.287093421544588,0.09358984107725574
18.981092,9.312413193346284,0.09319308143040973
18.985684000000003,9.336300650395126,0.09279447267490401
18.990276,9.364641138233575,0.09234543291168164
18.994872,9.39064987687152,0.09189600864664077
18.999460000000003,9.416902984937753,0.09143807885794536
19.004052,9.445443700755867,0.09095445208484038
19.008636,9.472674286535266,0.09045746326501147
19.01322,9.498350372847662,0.08996308360248967
19.017820000000004,9.516708798864729,0.08950869197496383
19.022408,9.529792802910054,0.08907442341202206
19.027,9.539934134184143,0.08866342963713614
19.031592,9.548398781277083,0.08825695994095975
19.03618,9.557474351940753,0.08782744004644084
19.040788000000003,9.5662614117275,0.08737739432298466
19.04538,9.572716722313746,0.08692403481034017
19.049988000000003,9.574674860661748,0.08648946011889289
19.054576,9.572913076505017,0.08607405186226574
19.05916,9.570496227328928,0.08565242720756266
19.06376,9.578584080647692,0.08516917283071417
19.068352,9.58487306507116,0.08469485720181524
19.072944000000003,9.593205287818218,0.08420376760965655
19.077524,9.596918153612888,0.08373515520465193
19.082124000000004,9.598587781083973,0.0832854957745877
19.086712,9.602300646878644,0.0828205528835464
19.091316000000003,9.605236262939812,0.08235444273181347
19.095904,9.606250825391541,0.08190105046734387
19.100504,9.610085875900356,0.08143285284685371
19.105088,9.61097825363794,0.08098369157368115
19.109684,9.61469111943261,0.08051993675416623
19.114276,9.622778972751375,0.08004613423198127
19.11886,9.631644075803642,0.07957432349640453
19.123448,9.641408613303556,0.07910107820338029
19.128044,9.649129912479884,0.07864410010350988
19.132624000000003,9.659671699713304,0.07817565955230686
19.137216,9.673811224737312,0.07769722695497101
19.141804000000004,9.692325737285413,0.07721044642080221
19.146396,9.713660737890605,0.0767106781167377
19.150988,9.736794607391094,0.07620721948302453
19.155580000000004,9.751711382148603,0.07573652939158157
19.160172,9.767771960782053,0.07525610995172055
19.164764,9.783832539415503,0.07477704251357783
19.169356000000004,9.800670367782455,0.07429894545267048
19.173936,9.814687708092318,0.07383349008180935
19.178524,9.829360113421536,0.07337770563681231
19.18312,9.847630256541349,0.07291514722756047
19.187704,9.865123149927655,0.07245138129340699
19.192292,9.888501388856435,0.07196124506724288
19.196888,9.91752060389939,0.07145203517567092
19.201476000000003,9.947561438104142,0.07093891194911277
19.206072,9.975026153680094,0.07042971624175308
19.210652,10.005677911455571,0.06990019283053847
19.215256,10.031710312278665,0.06938506629813514
19.219844,10.059130886405988,0.06885192803004016
19.224444,10.086307091105022,0.06833191854929577
19.229036,10.111029361889402,0.06781117670440477
19.233632000000004,10.137139805978013,0.06727584481123779
19.238216,10.162350815618977,0.06674343907769024
19.242808,10.188827813850027,0.06620019465529191
19.247388,10.215182627366929,0.06566114323134774
19.25198,10.237695333664952,0.06513800209090599
19.256576,10.25967515965776,0.06460498275933377
19.261172,10.28946138480248,0.06404307379163589
19.265760000000004,10.324233521042023,0.06345993455841407
19.270344,10.355407919490974,0.06288436125690797
19.274936,10.381962960987542,0.06232227775487829
19.279532,10.412360109702988,0.061750250189857324
19.28412,10.431353121475935,0.06121608488387765
19.288716,10.443150657667697,0.06069272036354992
19.293312000000004,10.452127705802368,0.0601775631930906
19.2979,10.464291796136568,0.05964442132179579
19.302492,10.472080898946675,0.05911418991515847
19.307080000000003,10.483834293689812,0.05856686622704907
19.311668,10.492400646233419,0.05803876359425074
19.316252,10.49479314235764,0.05751227170808375
19.32084,10.492321912101183,0.057000020700374444
19.325428,10.482288652121108,0.05650629458215038
19.330024,10.474420815178762,0.05599889578914586
19.334612000000003,10.462710871017537,0.055502887904644346
19.339204,10.453044165179897,0.05499663989388759
19.3438,10.44439907850405,0.054483708383530866
19.348392,10.435265252971623,0.053986731398185626
19.35298,10.413705671334897,0.053521048047989565
19.35758,10.381519202489173,0.0530831065442202
19.362168,10.347411680034005,0.05264728191654181
19.366772,10.312404723131191,0.052209156764151415
19.371356,10.266648694305228,0.05180166177289289
19.375956,10.223468784108068,0.05139320526788158
19.380552,10.181721188663763,0.050993443914795294
19.385144,10.136131486000577,0.050599555110457196
19.389724,10.080814330576038,0.050229855266711906
19.394320000000004,10.022843013257186,0.04988675894045745
19.398924,9.962706272900597,0.0495539193178528
19.403516,9.900404109506278,0.04923081086920251
19.408104,9.83941207615067,0.04892050850435385
19.4127,9.781773411157362,0.04861479918447849
19.417288000000003,9.722746572859824,0.048322266145215335
19.421872000000004,9.653503542944351,0.048070866869978544
19.42646,9.57723136361047,0.047842132400560615
19.431056,9.490742992658653,0.04765511394036965
19.435648000000004,9.396981102860137,0.04750100499930877
19.440224,9.297456052233294,0.04735720037262952
19.444820000000004,9.200384935521104,0.047219217294762514
19.449408,9.104990502990066,0.047082577064196274
19.454,9.007430647421296,0.04695616725503422
19.458596000000004,8.904762696043555,0.046849227345734046
19.463184,8.805692482456406,0.04674011148535816
19.467788,8.703679596098024,0.046637133349507455
19.472376,8.59410468001602,0.04654476531540258
19.476964,8.483263775343934,0.046463896431598345
19.48156,8.37283356626291,0.046400655135667344
19.486148000000004,8.259705053838946,0.04633452370166485
19.49074,8.13787070781542,0.04628944260367547
19.495328,8.012316439287158,0.04624695207039766
19.499928,7.8802217601970685,0.04621099568752565
19.504508,7.742608289706947,0.04617548241279327
19.509108,7.602951580893238,0.04614948614312687
19.513696,7.465582479831409,0.04609982027369706
19.518296000000003,7.330012247664874,0.04604892130395606
19.522888,7.199550111307308,0.0459690624393325
19.527484,7.071253397987474,0.0458701861666168
19.532068,6.941035631058199,0.04577272000068517
19.536664,6.803133649691158,0.04569737829350416
19.541252000000004,6.663310614714677,0.045624143397145676
19.545848000000003,6.519767657233457,0.045551851951850325
19.550436,6.377124134199885,0.04547713988065803
19.555020000000003,6.227940200604487,0.04541062938395949
19.5596,6.076713028685502,0.04535490229818303
19.564200000000003,5.926385291214165,0.04529594137718569
19.568788,5.7778564226381235,0.04523541788640969
19.573384,5.627406500452642,0.04518435999410191
19.577976000000003,5.4750355246577165,0.045134916742295604
19.582564,5.3225423641486485,0.045096071163929545
19.587164,5.171848072534875,0.04505488325316593
19.591752000000003,5.021031596206956,0.04502086261867516
19.596344,4.871891804060185,0.04499127273760531
19.60094,4.724795250237003,0.044940420009215644
19.605528000000003,4.576554892537881,0.04489797403383338
19.61014,4.428314534838759,0.044851116472970416
19.614728000000003,4.280318546567929,0.044758941142311263
19.619336,4.133099808030602,0.04466804178653645
19.623928000000003,3.9865361345126304,0.0445988926770225
19.628516,3.8439367529276876,0.04450022403303543
19.633112,3.7030140555238944,0.04441157333706411
19.6377,3.564667476748899,0.04433302418886674
19.642296,3.4251770940979642,0.04428083962661737
19.646872,3.292227122008856,0.04419972254821443
