Time,Force,Position
19.194692,1.06528086201683,0.026511675059733408
19.19928,0.9574709130132335,0.024244332555989526
19.203868,0.8541581362478762,0.02198570627332547
19.208464,0.7600840733872889,0.019718920664895275
19.213056,0.678313581916852,0.017420338301668867
19.217644,0.6019396971323021,0.015154327694852247
19.222235999999995,0.53570396070017,0.012876453423023857
19.226824,0.47780750372515984,0.010551363742318296
19.231416,0.4201995576270692,0.008298263481334908
19.236004,0.36504554544363077,0.006092902845912152
19.240592,0.312082390837207,0.003982128775484904
19.245188,0.2642901803977252,0.0019403868149847953
19.249784,0.22471506470121974,0.0
19.254388,0.1879604370618035,0.0
19.25898,0.16044452332715714,0.0
19.263572,0.13742578183075,0.0
19.268164,0.12364575423911274,0.0
19.27276,0.10962135721918413,0.0
19.277352,0.10009413243749476,0.0
19.28194,0.09428683016054248,0.0
19.286539999999995,0.0863141048458575,0.0
19.291128,0.07887425983638334,0.0
19.295728,0.07401053345570709,0.0
19.300315999999995,0.07094567597032653,0.0
19.304916,0.06354997240948052,0.0
19.309512,0.05783095302978454,0.0
19.314104,0.051090314488295034,0.0
19.318692,0.0481917831656883,0.0
19.323284,0.04937972849025564,0.0
19.327884,0.053388161871912206,0.0
19.332484,0.05639368300112149,0.0
19.337076,0.05559772635827309,0.0
19.341668,0.052758531391837636,0.0
19.346256,0.06818839805780132,0.0
19.35084,0.10666772511538848,0.011430446799035826
19.355428,0.16934031644053832,0.021792105094514812
19.360012,0.25003231561386147,0.03172959873783558
19.364608,0.3558950567679128,0.04121790853714229
19.369184,0.487295094045129,0.05023738940425542
19.373776,0.641578265551195,0.05917032674260898
19.378364,0.8254071665620826,0.06786478075236213
19.38296,1.0342846248395527,0.07643329850485844
19.387556,1.2689878901171072,0.08487933044008009
19.392144,1.5239981709947132,0.09329917272716588
19.39674,1.8083878552143675,0.10156252529855
19.401336,2.1159050430911623,0.10978301791761767
19.405936,2.4474491690727462,0.11796684016220857
19.410528,2.7970127029025034,0.126186531343025
19.415108,3.1693371862469646,0.1343888062265595
19.419708,3.566099303287281,0.14256378540228182
19.424304,3.993917507850795,0.15064525803627846
19.428896,4.451866930950579,0.15858666443249084
19.433476,4.929369782102063,0.16640630924216898
19.438075999999995,5.398252981116983,0.17415681796731883
19.442664,5.832760626063294,0.170544684236122
19.447272,6.240743257541537,0.1680250540004471
19.451864,6.6227337558569195,0.1659699878516733
19.456456,6.982618369676956,0.16434187893772761
19.46104,7.3108359724030665,0.16328172714456188
19.465636,7.6191131136715615,0.16227478665185688
19.47022,7.901153752348907,0.1614885382180038
19.474808,8.161455060673342,0.16077892632480967
19.479396,8.395275496978336,0.16019638529412106
19.483979999999995,8.604702441036105,0.15967882436736852
19.488556,8.78409491673247,0.1593557086434918
19.493156,8.94150369264763,0.1590421837013491
19.497748,9.073986096010355,0.1587759775807192
19.502332,9.187549657077259,0.15844081370249635
19.50692,9.276797769162455,0.15811587648274195
19.511508,9.336700379722492,0.15784759861877046
19.5161,9.372698236891887,0.1576066807215095
19.520684,9.381814766082512,0.15749401998546425
19.525272,9.374687094135107,0.15744267377848128
19.529876,9.363795358234336,0.1574066507015552
19.534464,9.36484063958128,0.15722837571905943
19.53906,9.373447950651844,0.15695327540671433
19.543652,9.391538345055467,0.15655656373985175
19.548252,9.408729305011445,0.1561709469991683
19.552848,9.435481391566,0.15562517161162087
19.55744,9.460923348081842,0.15507972370914364
19.562031999999995,9.48313412094953,0.15455556914941074
19.566612,9.498638157092618,0.15408793413437827
19.571212,9.512421367605928,0.15360253108785246
19.575792,9.527792979403133,0.153040898063917
19.580392,9.54528587278944,0.15240937053788364
19.584984,9.5551725950035,0.15184210769743614
19.58958,9.565259545197224,0.15123183522426675
19.594159999999995,9.568884128094638,0.15066515667201427
19.598756,9.566823593429245,0.15013545485909205
19.603348,9.565496167048726,0.1495661572895162
19.60794,9.55092159338178,0.14913526988297904
19.612532,9.531805706027967,0.1487222053539171
19.617124,9.507781950844851,0.14834535435579319
19.621711999999995,9.478195262813072,0.1480018917403095
19.6263,9.439858599733107,0.14774477110958673
19.63088,9.393793580766747,0.14755639607189838
19.635472,9.337956967590408,0.14746768193171714
19.640068,9.277456856013059,0.14740260671167324
19.644656,9.210660703302171,0.14740279321266037
19.649252,9.141288431962488,0.1474231831020795
19.653844,9.075636083127542,0.14739535889459612
19.658436,9.011660418473744,0.14735363249362177
19.66302,8.94821763412516,0.1473183440923513
19.6676,8.883386676472341,0.147313686720573
19.672196,8.817944795248797,0.14733639364381013
19.676784,8.758021705425284,0.14729341870499227
19.681372,8.698753680621127,0.14724811124464598
19.685967999999995,8.64565951223636,0.14713680941530274
19.690568,8.601437503613928,0.14693052905021786
19.695172,8.564166601144384,0.14665390490590144
19.699764,8.538588346494265,0.14624792128060654
19.704367999999995,8.515874721349862,0.1458366680627324
19.708956,8.490506934311142,0.14548622908994227
19.713556,8.468125961492285,0.14512466641093125
19.718143999999995,8.451141595359319,0.14470092180350502
19.722744,8.436488978426858,0.14426327971881303
19.727332,8.429276206503872,0.14373178615040838
19.731932,8.427215671838479,0.14315054557541707
19.736516,8.429896678839619,0.14250639480470964
19.741108,8.432333316412466,0.14187188785000465
19.7457,8.43374833482352,0.14125423907371187
19.750292,8.437983841291663,0.1406001301807403
19.754895999999995,8.443896031940957,0.13993107678159802
19.759492,8.451362722057254,0.13925326140248295
19.764084,8.456253293544753,0.13859447887393908
19.768676,8.45987787644217,0.13796377637277701
19.773264,8.46133703630185,0.137370297813149
19.77786,8.46177457699974,0.1367948001835266
19.782447999999995,8.463111552145277,0.13621410626827457
19.78704,8.459584800910138,0.13570086222603436
19.791636,8.452338127170261,0.13523151370721073
19.796228,8.44521363814453,0.1347543558889115
19.80082,8.44283069078533,0.13421579803807224
19.8054,8.437505070654895,0.13371669028279642
19.809996,8.426704800573054,0.1333127716939976
19.814584,8.415537976348777,0.13292632128323809
19.819172,8.395176579668357,0.13268002541460075
19.823764,8.369829271893117,0.13250539142879347
19.828351999999995,8.338230064432969,0.13243121725788293
19.832944,8.306508672258676,0.13236305240198654
19.837536,8.272744041760797,0.1323256253992111
19.842124,8.23080645796857,0.13241884701938325
19.846728,8.184538028100874,0.13259277288835486
19.85132,8.134549675728444,0.13281453331818194
19.855912,8.089835745327754,0.13298305978333155
19.8605,8.042834207175186,0.1332010708091289
19.8651,7.994444495718388,0.1334602656891026
19.869688,7.937226765947886,0.13385851110725935
19.874288,7.8691377795400905,0.13442885355953457
19.878879999999995,7.799294065685628,0.13506395318915718
19.883476,7.7261411249174925,0.13577438002552933
19.888068,7.6498011419498315,0.13655563376980198
19.892664,7.57039630149679,0.13739282291319593
19.897252,7.491524341348956,0.13824845153452237
19.901848,7.416250118991718,0.13907245475629423
19.906444,7.338443919454307,0.13997550529853237
19.911044,7.2675888260697885,0.14081642172203043
19.915636,7.201641600514575,0.14162552367584028
19.920228,7.138925558607515,0.14242283499966213
19.924816,7.077030907882586,0.14326390527633284
19.9294,7.0148138444638475,0.14417987235650573
19.93398,6.962490559969235,0.1449740818024106
19.938568,6.919405989379393,0.1456317741579243
19.943152,6.883805405247653,0.14621907570910075
19.947744,6.8463279089551,0.14687717055232047
19.952335999999995,6.81436920406258,0.14745749254592366
19.956924,6.7876849211418016,0.14797541093833452
19.96152,6.776046654402745,0.14830336485092116
19.966116,6.77610103548311,0.14847420767918837
19.970696,6.77885371990642,0.14860864900425239
19.975288,6.787658076034972,0.14867122131355712
19.979872,6.803413538316416,0.14864805104454643
19.98446,6.824076868427166,0.1485795513134773
19.989064,6.847849197471923,0.148490216537408
19.99364,6.8788170020978665,0.14830403422598737
19.998232,6.918124086180929,0.14798882184426998
20.002812,6.96229489664467,0.14759607633511782
20.007411999999995,7.010185629613147,0.14715270295446461
20.011996,7.065271838162809,0.14661803037868815
20.016596,7.129474575903093,0.1459635391103164
20.021187999999995,7.203526951118877,0.14514458452167808
20.02578,7.28232086800119,0.1442762920002235
20.030372,7.360992600169358,0.14343869652539082
20.034956,7.439786517051672,0.14260875050618121
20.039544,7.52548739863825,0.14167778315929377
20.04414,7.616462702196568,0.1407122243105093
20.048728,7.715122220192653,0.1396641160172645
20.053312,7.813615412025963,0.13862516621960025
20.0579,7.910554104392271,0.1376124478478594
20.0625,8.01554356533878,0.13649544539456474
20.067096,8.126907110684341,0.1352966521265348
20.071676,8.246810163466689,0.13399497006218467
20.076268,8.372676605057022,0.13260750378584646
20.080856,8.507815662369012,0.13108540768481597
20.085448,8.637758340974784,0.12960159533382423
20.090048,8.771088289759742,0.12806797981899956
20.09464,8.90384121679086,0.1265330538951335
20.099236,9.038549099248312,0.12494695334162295
20.103815999999995,9.171614199341498,0.12334022145067734
20.108404,9.299927518136418,0.12172199856633668
20.112995999999995,9.421856512900545,0.12012553239737317
20.117584,9.53805624865324,0.11855250556823037
20.12218,9.651591582879878,0.11695732962836705
20.12676,9.76528300363755,0.11531534175399738
20.131364,9.872467915650287,0.11368768298582275
20.135952,9.97339068834638,0.11206611841991021
20.140552,10.06282104120271,0.11050840928946692
20.14514,10.142313473686288,0.1090009026996567
20.149736,10.221839807986756,0.10744642738982306
20.154328,10.292327656362115,0.10593896912864892
20.158924,10.354432083831725,0.10448145934248118
20.163504,10.402145560138969,0.1031275195596985
20.168099999999995,10.43816638862679,0.10185200041435019
20.172688,10.458041538505578,0.10070508460371096
20.177284,10.475873450060778,0.0995790664899754
20.18188,10.482301224673478,0.09854053991979413
20.186476,10.483987457619644,0.09754058511659498
20.191064,10.476112563967233,0.09664103397169375
20.19566,10.462885205077564,0.09579852992370225
20.200247999999995,10.445493326275201,0.09502501027459946
20.204844,10.427656850064883,0.09429788267514155
20.209432,10.409620145874905,0.09360876732054102
20.214032,10.390117225115178,0.0929747833143993
20.218624,10.367593588318698,0.09239509430363016
20.223204,10.347445842171354,0.09184469804234377
20.227796,10.327752933063701,0.09133598489715176
20.232375999999995,10.314278021824066,0.09083289838665433
20.236964,10.306243858718945,0.09033421778792665
20.24156,10.296499109615787,0.08989942986086444
20.246148,10.28925243587591,0.08949003295035417
20.250756,10.284992576355895,0.08908916902077263
20.255351999999995,10.287561638274626,0.08867377155950137
20.25994,10.296959621632102,0.08824458095649079
20.264528,10.31841680695144,0.08775936862698872
20.26912,10.348091087013755,0.08724481564858054
20.273724,10.386881896266694,0.0866963221087737
20.278312,10.425183966663047,0.08616731017507795
20.28292,10.473213489820752,0.08558452114128523
20.287507999999995,10.528682857987935,0.08497526992791872
20.292108,10.587994333373999,0.08434879771425026
20.296684,10.649715601226088,0.08370025347629352
20.301276,10.709105119877668,0.08305041203716096
20.30586,10.77102661570942,0.08237425231440852
20.310455999999995,10.836257338454843,0.08167535452924908
20.315044,10.902998419218644,0.08096061422894202
20.319636,10.969206619677232,0.08024040209103121
20.324224,11.029607517858869,0.07952667421031998
20.32882,11.08767666684,0.07881232226404557
20.333408,11.143414066620624,0.07809452707442786
20.338,11.19964020525783,0.07736443851940204
20.34258,11.253045855837946,0.07664986305756664
20.34718,11.30657369113221,0.07593896638382655
20.351764,11.356381603921735,0.07524597525096245
20.356356,11.39916036729285,0.07459970625424737
20.360952,11.433355481778552,0.07399514821638979
20.365532,11.46436355406473,0.07341902900806284
20.370124,11.496926125817911,0.07284803218659648
20.374711999999995,11.52258173286683,0.07231595437439246
20.3793,11.540064386621399,0.07183457211991721
20.383896,11.559223724557118,0.07135710991691091
20.388484,11.576750519760315,0.07090740350861402
20.393072,11.598530117773462,0.0704578935798495
20.397668,11.616756119444645,0.07004247748533715
20.402256,11.635026262564457,0.06965586204483981
20.406852,11.650886613218244,0.06929420630264072
20.411448,11.66727984417724,0.06894354218092123
20.416048,11.687681508517896,0.06860070933148657
20.420632,11.712458160382642,0.06825596527451572
20.425228,11.74569627641866,0.06788924654901478
20.429815999999995,11.78073326134997,0.06752283619061653
20.434416,11.819612353500162,0.0671456629561054
20.439008,11.855670957593267,0.06677939932264063
20.443608,11.898392156962343,0.06639620983755595
20.448196,11.942379344921505,0.06600190261962063
20.452788,11.992374063137282,0.06558457488660627
20.457367999999995,12.038238163257256,0.06516438409464363
20.461956,12.082792133338518,0.06473392916193461
20.466548,12.130777515047596,0.06428102466046065
20.471148,12.184481916136372,0.06378887030019449
20.475728,12.23278971053926,0.0633067868211774
20.480312,12.280931178779376,0.0628069767670648
20.4849,12.326985267247274,0.062296555434364166
20.489492,12.37953562482837,0.06175224634177625
20.494084,12.42525706097072,0.0612070128738026
20.498664,12.466725694303125,0.06066002731313091
20.50326,12.510848489529845,0.06009091670831219
20.507836,12.555704393041436,0.05950513462039995
20.512416,12.595285874581288,0.05892414892083985
20.517012,12.625873011644662,0.05835540160044311
20.5216,12.649919738146211,0.05780001970986733
20.526188,12.673311399628401,0.05724245314716113
20.530784,12.69592581137709,0.05668325058853664
20.535371999999995,12.70750264032571,0.05613998391355802
20.539964,12.716503350645539,0.05559499191580312
20.544543999999995,12.717819846527595,0.055069093285795
20.549144,12.719913592143158,0.05454490101836798
20.553732,12.721107903311072,0.05402086238799845
20.558332,12.713229826736987,0.05352696448488821
20.562912,12.696279362420906,0.053063400052427476
20.567512,12.675486790885945,0.05260561852206769
20.572104,12.648442319666083,0.05217194695515231
20.576699999999995,12.616045383208954,0.05176201486856792
20.581284,12.570856136505094,0.05138538961327576
20.58588,12.5235014667635,0.05101622926432576
20.590475999999995,12.478722915650707,0.05064738328066312
20.595076,12.422584369044035,0.05032042480338565
20.599668,12.357251249981221,0.05002398129681171
20.604264,12.289630523166535,0.04973899006780187
20.608848,12.220255068905175,0.049475684104292414
20.613432,12.150635245215526,0.04921648919262024
20.61802,12.069777610746147,0.048994865757032255
20.622608,11.984466945487156,0.04879596228686735
20.627199999999995,11.90226527916218,0.04860788843480473
20.631788,11.819330504552324,0.0484385461935866
20.63638,11.736684240819391,0.048284995262233635
20.640968,11.65342705351573,0.04814726132585379
20.645551999999995,11.567515704317753,0.04803245150550137
20.650148,11.485857157929722,0.04792348051429917
20.654736,11.405508741580405,0.047827734078142246
20.65934,11.328024954736806,0.04775285086037521
20.663928,11.254549601274862,0.047692223204683755
20.668512,11.185982115642222,0.04764564557046714
20.673108,11.12334411700068,0.0476095943343935
20.677696,11.063937302007293,0.0475839037199909
20.682292,11.000321825652588,0.04757583861753292
20.686868,10.941447890964414,0.047560166329724686
20.691464,10.88502789019089,0.0475520155446829
20.696044,10.830040204170226,0.047554774752421106
20.700648,10.77288709511183,0.04756932437087849
20.705228,10.717288485520436,0.047590935881403486
20.709824,10.66823028649087,0.04760544323217018
20.714404,10.619172087461305,0.04762006403881223
20.719,10.568070650108151,0.04764227132045668
20.7236,10.51799083191679,0.047660027913116076
20.728196,10.463413841487192,0.047677738794543435
20.732788,10.407037982162295,0.04769500655482067
20.73738,10.347064385046808,0.04771223684010412
20.741968,10.282837985121374,0.04772056471001077
20.746552,10.216402020709578,0.04771155206191975
20.75114,10.147101426792064,0.04767642300912606
20.755724,10.070439031130594,0.04761407941506744
20.76032,9.974766327354375,0.04755404388684677
20.7649,9.868666964348817,0.047478364292326436
20.769484,9.75279600713328,0.04739532659626186
20.774064,9.629729574336558,0.0473097024524428
20.778652,9.498446046796863,0.047225512900378186
20.783244,9.359311978656626,0.04712896877375885
20.787832,9.20848526269697,0.04702858258856791
20.79242,9.049152941117415,0.04690394924149987
20.797016,8.878905221451943,0.04677877022200552
20.8016,8.695288169785895,0.04664113534543719
20.806196,8.503698392805164,0.046491203630583525
20.810784,8.29927216412907,0.04634680160461911
20.81538,8.079844060719884,0.04622430155882418
20.819968,7.853220481729514,0.04609464542779403
20.824568,7.613760451043784,0.04596836292107093
20.829156,7.367882194510372,0.045842877609018264
20.833752,7.114319723539197,0.04573631180160822
20.838336,6.8519292342543165,0.0456640868066562
20.842932,6.575969184989199,0.04564335033769216
20.847524,6.2929799863056735,0.045658895837164364
20.852115999999995,6.0165311981839755,0.0456636131195804
20.85672,5.737794802310398,0.045701922708083605
20.861315999999995,5.4607350906179715,0.045744315858650374
20.865908,5.184452628659044,0.045801496292834254
20.8705,4.906249113090678,0.04587530022104595
20.875088,4.628822847255813,0.045955102480695426
20.879672,4.354749949783248,0.04608039460818767
20.884264,4.087505973749429,0.04624727468389724
20.888856,3.822715931630262,0.04647871264991076
20.893448,3.5669202339875747,0.04670181788582663
20.898036,3.3144779047071866,0.04698317122656559
20.902632,3.072295908493362,0.047235276814397764
20.907219999999995,2.8415180492220395,0.04740095903636481
20.911812,2.6189572846936944,0.04753056970464778
20.916396,2.406290299089475,0.04527615790516294
20.920984,2.204783080999467,0.04302122263278334
20.92558,2.0108378926330794,0.04075638957349002
20.930167999999995,1.8252319837238131,0.03847090785838121
20.934771999999995,1.657570622318876,0.03615235252711307
20.939368,1.504666766218741,0.0338169407919438
20.943956,1.3628004929186714,0.03148610954794428
20.94856,1.2319718024186679,0.02913343209393769
20.953152,1.109238021947495,0.026784059634259047
20.957747999999995,0.996520205114594,0.024422563385004536
20.962336,0.8965166552629087,0.022047042782383057
20.966928,0.8053852651735562,0.019673954790010578
20.971504,0.7238591431314105,0.017259250935869566
20.976112,0.6469523780416497,0.014819156545368748
20.9807,0.5794065115708048,0.012319142918670735
20.985299999999995,0.5189339359669967,0.009839936555219555
20.989896,0.46655627039201925,0.007314826196896756
20.994488,0.4184314076269898,0.004813472329804974
20.999064,0.37251610934832124,0.0023850218120582776
21.00366,0.33355191722254407,0.0
21.008244,0.3019053853920955,0.0
21.012836,0.26784906109562284,0.0
21.017416,0.24074384295204168,0.0
21.022,0.22132283924622592,0.0
21.02658,0.2005136622361797,0.0
21.031172,0.17927508272572204,0.0
21.035764,0.1587544165925953,0.0
21.040352,0.1408692054444377,0.0
21.044948,0.12478286319157582,0.0
21.049536,0.11055823819198403,0.0
21.054128,0.09657798262068357,0.0
21.058712,0.08331212842491091,0.0
21.0633,0.07057915453434908,0.0
21.067912,0.06054448398673083,0.0
21.072503999999995,0.05128706317261475,0.0
21.077092,0.04113020791085081,0.0
21.081684,0.03199497181088039,0.0
21.086276,0.024780789320351347,0.0
21.09088,0.020509279601057202,0.0
21.095472,0.015460520148260878,0.0
21.100064,0.009512326247816703,0.0
21.104652,0.0084278587280488,0.0
21.109252,0.006566141474778714,0.0
21.113844,0.003438435631423765,0.0
21.118448,0.002231783397510189,0.0
21.123036,0.0022317833975101895,0.0
21.127635999999995,0.002168935039535808,0.0
