Time,Force,Position
19.420036,0.4138649256258037,0.006111465286011515
19.42464,0.3632522271292327,0.004097546856170486
19.429232,0.31546001668975093,0.002071039150877479
19.43382,0.27637363984982805,0.0
19.438416,0.2484470305241165,0.0
19.443008,0.22187469268574617,0.0
19.447604,0.2097815889069977,0.0
19.452184000000003,0.21806330436207974,0.0
19.456784,0.25355900012147686,0.006154779344745341
19.461364,0.31925549040505213,0.01276507190496158
19.465964,0.41221010244157064,0.01966089093972334
19.470548,0.5307461520498824,0.026726958402879773
19.47514,0.6772734316960114,0.033841647589185286
19.47972,0.8500711157501795,0.04097361598858613
19.484316,1.0417435006515405,0.048199450787567835
19.488912,1.2564212044958971,0.05548529138881848
19.493504,1.4951258464450423,0.06285996764748754
19.498096,1.7532380695465914,0.0702986037331329
19.50268,2.0316573082481924,0.07781379553826692
19.507268,2.337657081396545,0.0852919475105696
19.511856,2.6604883170685043,0.09286757585726799
19.516448,3.00656924111175,0.10048453830508311
19.521036,3.3758998535262825,0.10812544478134249
19.525628,3.759774320712542,0.11586201117778708
19.530208,4.161379684870057,0.12361875629715302
19.5348,4.592276169472364,0.13130416700581035
19.539392,5.026946957659775,0.13902314510756428
19.54398,5.453478694369728,0.14676637083652966
19.548592,5.85435095024237,0.14840440035423025
19.55318,6.225589193712935,0.1495857897951669
19.557784,6.5710796734489305,0.15047268128563454
19.562364,6.892376888917365,0.15116961288384329
19.566952,7.188625547119217,0.15181643386830504
19.571548,7.465799276494211,0.15241564005311184
19.57614,7.721277816964925,0.15292097983833772
19.580744000000003,7.9497867465596155,0.15341492681268337
19.585332,8.159132464430192,0.15377594359507435
19.589924,8.344573428910126,0.1540881549325781
19.594516,8.510362442809363,0.1543131901225678
19.599112,8.651802105910004,0.1545888839445701
19.6037,8.778742055687546,0.15473096700429262
19.608308,8.88525280515089,0.1548152876319042
19.612892,8.966592812633506,0.15491310513108145
19.61748,9.033022411201955,0.15488380575092112
19.622072000000003,9.079555689761419,0.15481951963205165
19.626668,9.10329411698929,0.15480159696454956
19.631272000000003,9.116751731887117,0.15471528630465584
19.635864,9.124924685181465,0.15458623817487943
19.640468,9.13988241846593,0.15436206423106907
19.645064,9.159792161028328,0.15413088538712752
19.649652,9.181789283362942,0.15389889181021285
19.654244,9.204852166307976,0.15368258747337513
19.658836,9.23216785206296,0.15342908867385935
19.663432,9.257929038350937,0.15318680099044274
19.668012,9.284711843800709,0.15292936967004234
19.672608,9.319178863688247,0.15256896040449897
19.6772,9.351191949661134,0.15223037254785624
19.68178,9.384104470081668,0.1518803228174923
19.686376000000003,9.418038609663995,0.1515168741935619
19.690964,9.450784803921756,0.1511434581137494
19.69556,9.483120302588448,0.15076215645829746
19.700156,9.515455801255145,0.15038273206415173
19.704732,9.552899395730808,0.14992602420392848
19.709324,9.589810109901256,0.14946672338118075
19.713912,9.624389074871203,0.14902018816027088
19.7185,9.654837421745343,0.14860541993632045
19.723092,9.676413608857153,0.1482792210953419
19.727684,9.696801850644395,0.14794594582294823
19.732276,9.713714539355191,0.1476472099140877
19.736856,9.726618794684333,0.14737257429535988
19.741452,9.736946931384674,0.14712031122380329
19.746032,9.745842753332155,0.14687005313719828
19.750624,9.750363587755546,0.14666202410127804
19.755208,9.751164499674202,0.14649702680239418
19.759804000000003,9.754008649916441,0.14630305287959183
19.7644,9.752111258492148,0.14616696013509872
19.768992,9.74792625931598,0.14607137483148017
19.773580000000003,9.743863444853957,0.14597007194546507
19.778176,9.740044999820226,0.1458578443522217
19.782764,9.738147608395934,0.1457218393241004
19.78736,9.732408109752761,0.1456333131244775
19.791948,9.727812414985527,0.1455248060736152
19.796532,9.724238339380086,0.14540218299417684
19.80112,9.718987579593497,0.14529176245407374
19.805712,9.714880623682845,0.14516158051247868
19.810296,9.712816906095778,0.14500284215453474
19.814884,9.717293599070542,0.1447709246586817
19.81948,9.71817255425471,0.1445740188316761
19.824060000000003,9.717374825257732,0.1443890004626665
19.82864,9.724261310698516,0.14411287074772386
19.833232,9.737277511110063,0.1437534688502045
19.83782,9.7505380809499,0.14338299950673972
19.842408,9.76428738964632,0.14299055758587909
19.847012,9.783389163580003,0.14251820336180382
19.851596,9.797993765275445,0.14209016686412365
19.8562,9.814885974722763,0.1416242712180025
19.86078,9.833044172760168,0.14113229254670215
19.86538,9.855166662730598,0.140592548691537
19.869956,9.871892546015143,0.14010336916212093
19.874548,9.892049840927505,0.13956146182577128
19.879136000000003,9.912818059410597,0.138992622658552
19.883732,9.930110724817244,0.1384528215225047
19.888316,9.946381771062097,0.1379310713017697
19.892908,9.962897186735239,0.13740022221685505
19.897508,9.98170021016026,0.13683532875389653
19.9021,10.001524852747076,0.13625941243689849
19.90668,10.024003657228208,0.13563588122566955
19.911264000000003,10.049425134480574,0.1349777730277724
19.915840000000003,10.077789284504172,0.1342867387073806
19.920432,10.099613023965947,0.13366475502103753
19.925016,10.116450852332898,0.1331053856321161
19.929604,10.137130787918734,0.13250848873021365
19.934196,10.157810723504566,0.1319119952532879
19.938772,10.17489292129981,0.1313484999233267
19.943368,10.194917791866288,0.13075332947894178
19.947952,10.215064847146913,0.1301562894879965
19.95254,10.239420563788855,0.12950837921225888
19.957148,10.260300727354354,0.12888749686831308
19.961736,10.284367933119379,0.1282233579323246
19.966324,10.300750924446637,0.12763815576480092
19.97092,10.318932784669194,0.12704078682077732
19.975516,10.34120112153892,0.1263975883471844
19.980124,10.359993905332203,0.1257785649836808
19.984704,10.380829927449074,0.1251396512973884
19.989296,10.39950052652821,0.12453262105865981
19.993876,10.419314929483285,0.12391300554105485
19.998476,10.435042855791188,0.12334259590963807
20.003064,10.451137336241526,0.12275937616154171
20.007668,10.471440478053184,0.12213250836598379
20.012248,10.495952281226165,0.12145873403913696
20.016844,10.521852257703372,0.12076067784816777
20.021436,10.543621616084781,0.1200825884748771
20.026032,10.569477451113363,0.1193651469387255
20.03062,10.59545547085609,0.11864401661262271
20.035204,10.622943848617194,0.11789856068847708
20.039792,10.648999911625438,0.11715372511067029
20.044384,10.670436617681299,0.11644608450034577
20.048976,10.694938181222538,0.11571073850064047
20.053564,10.72328185198266,0.11494828161212761
20.058152,10.75673361855175,0.11413513648968913
20.062744,10.791451373710927,0.11330872981463194
20.06734,10.823348640813009,0.1125075863851083
20.071928,10.85651189650518,0.11168774190520135
20.07652,10.883911991369029,0.11091494195744969
20.081108,10.911800825089458,0.11012666546938765
20.085700000000003,10.935436855999939,0.10935770792681936
20.090296,10.958662191319354,0.10857599292913175
20.094884,10.982009711352916,0.10779288371567804
20.09948,10.997917386377004,0.10706345063270031
20.104068,11.009205704448705,0.10636486483667967
20.108656,11.018939523053405,0.10566772151204151
20.113252000000003,11.027285168353874,0.1049919773827952
20.11784,11.028190968644868,0.10436393259151178
20.122432,11.029341138364154,0.1037270565887207
20.127024,11.021663289769736,0.10315772421652339
20.131624,11.011042768404081,0.10260966379699141
20.136204,10.999644997304923,0.10205993757238854
20.140804000000003,10.982850619519882,0.10153703125168109
20.145388,10.9597602006013,0.10104500113023344
20.149988,10.934993097501573,0.10055657045183422
20.154580000000003,10.903807768554163,0.10010138645914388
20.159176,10.872988993749189,0.0996310424100537
20.163768,10.84241458837251,0.09914996220105433
20.168364,10.814127790747703,0.09863995470253113
20.17296,10.781998885904017,0.09815337502584352
20.177556000000003,10.747826742736743,0.09768056275664039
20.182144,10.712632980407676,0.09721352599459926
20.18674,10.676417598916816,0.09675317305665267
20.191328,10.638525533244804,0.09629276122919588
20.195912,10.600633467572795,0.09582916881756394
20.200504,10.562619217186638,0.09536724918965604
20.205096,10.526115324818859,0.09487606151772288
20.209688,10.489611432451078,0.09438065687357616
20.21428,10.451186486473855,0.0938947451479512
20.218872,10.418769070753246,0.09335909084635065
20.223460000000003,10.390193762251524,0.09279629505250934
20.228052,10.364316757092743,0.09221998481882447
20.232648,10.341793120296261,0.09163532171521396
20.237224,10.321601232700289,0.09105048812183823
20.241832,10.300021171800086,0.09048587572407829
20.24642,10.28383771758577,0.08989727302118855
20.251024,10.266143905353077,0.08933355583218537
20.255612,10.246162485368506,0.08879319712676713
20.260204,10.227735564850942,0.08825370660597891
20.264796,10.211884762962175,0.0877060604677749
20.269388,10.200408948597499,0.08714350675035425
20.273984,10.192408687309271,0.08657121853521184
20.278572,10.185185675754546,0.08600012648158328
20.283168,10.179028424810241,0.08544623027961787
20.287748,10.175080738352296,0.08489966107308852
20.292352,10.17088868246606,0.0843609795494775
20.296936,10.167762387190246,0.08384282463388101
20.301536,10.174652055552706,0.08328664386220459
20.306132,10.181297354486874,0.0827378175129761
20.310728,10.189497152888046,0.08219342427381365
20.315312,10.19822983159443,0.0816615439504207
20.319896,10.205818706424873,0.08114249857016496
20.324484,10.212385962093522,0.08063156915272206
20.32908,10.217809413886233,0.0801319421100343
20.333668000000003,10.224010115412446,0.07963352435705263
20.338256,10.228045393900924,0.07915515410968531
20.342836,10.233102291551198,0.07866911388519077
20.347436,10.242778546153858,0.07816579073623782
20.352028,10.251433181594722,0.07767041065143873
20.356616,10.26200887064503,0.0771666869862976
20.361212,10.274383428590632,0.07666010878628202
20.3658,10.289334105165032,0.07615436253381541
20.370392,10.303018793149347,0.07566501742930572
20.37498,10.32181157694263,0.07514279939418742
20.379568,10.340848730164202,0.07461327739318623
20.384176,10.362462002014574,0.074082275880227
20.388764,10.386118512188533,0.07354064914076992
20.39336,10.403889676820024,0.0730342828195205
20.397948,10.42681307870911,0.07252497261881997
20.402536,10.447571057560461,0.07203435212072623
20.407132,10.467185232535876,0.07155617166323607
20.411724,10.489375526140087,0.07107814255325598
20.41632,10.510954896173569,0.0706214518922403
20.4209,10.537275807873582,0.07014839173572586
20.4255,10.564373969307098,0.06967863249521754
20.430088,10.589184522988734,0.0692288122904451
20.434688,10.611707468918492,0.06879923845642236
20.439276,10.629000134325137,0.06840508720083065
20.443876,10.645559691446909,0.06803633056477225
20.448464,10.659709456102657,0.0676933083771856
20.453056,10.669650559397086,0.06737915261847749
20.457648,10.670885829091954,0.06710201262015227
20.462244,10.672898348520325,0.0668273931048595
20.46684,10.67507719411147,0.06657781129490345
20.47144,10.67394681278894,0.06635373375861481
20.476032,10.671672627590477,0.06613998673848231
20.480632,10.665189781030689,0.06595355059283736
20.48522,10.654742642537872,0.06578534786931015
20.489804,10.640209027397884,0.0656402185609764
20.494392,10.625308858115458,0.06550720466493738
20.498992,10.607221646633505,0.06539507178314621
20.503584,10.584925773790234,0.06530959715841408
20.508176,10.566716377594137,0.06520112449603174
20.51276,10.542377266427279,0.06512604756454973
20.517348,10.522290958070366,0.0650517123546823
20.521944,10.507723441113487,0.0649645079893449
20.526528,10.497653096394847,0.06487001509855206
20.531116,10.491058304752658,0.06477385300823622
20.535712,10.486628936148197,0.0646624445292749
20.540296,10.485797305334327,0.06454566945567453
20.544888,10.492527704244079,0.06440618166969068
20.549484,10.5084968170586,0.06424522977668194
20.554084,10.524099375730682,0.06409681219142824
20.558676,10.537658696079179,0.06395991985824563
20.563268,10.560701099760735,0.0637948205022468
20.56786,10.586319622071091,0.063630991856763
20.57244,10.621421227714508,0.06344038905014514
20.57704,10.664739928100902,0.06323537455565852
20.58162,10.711245670686823,0.0630116056410308
20.58622,10.76339238938692,0.06277438690043835
20.590816,10.825144376134224,0.0625075670249455
20.595412,10.892004458690497,0.06221657928970866
20.6,10.959763975694415,0.06192932925232822
20.604592,11.036473695726189,0.06160747753499636
20.609188,11.108031178500362,0.06128738749701794
20.61378,11.178156346521677,0.060960976507651414
20.618368,11.253511795066107,0.06061209612236806
20.622968,11.333686828542586,0.06022598460538163
20.627556,11.418192708094526,0.05981926659894818
20.632144,11.500611207874254,0.05940032000778072
20.636728,11.578244024538822,0.0589740263728373
20.641328,11.652112777250025,0.058534778861272674
20.64592,11.727980626836189,0.05806415758725347
20.650512,11.802005466078427,0.05757135932390661
20.655104,11.868057580005981,0.05708657417071083
20.659692,11.933166118037258,0.05658188522720958
20.664288,11.985926943229758,0.05608266263298874
20.668876,12.034146454735392,0.05556553589677116
20.673468,12.07913478259287,0.05504198692454287
20.678064,12.113818635935157,0.05451137532565936
20.682644,12.135910407010371,0.05398927200302733
20.687232,12.14978508334261,0.05347481522440857
20.691828,12.149024439084194,0.05297218356326514
20.696416,12.132362485645032,0.05249312517377396
20.70102,12.111447729395925,0.05200608113052034
20.705612,12.083337497565635,0.051519431331440595
20.710208,12.037282718231015,0.05106222334350222
20.714796,11.975859510020864,0.05063556558902857
20.719396,11.903032164868211,0.05022747393767606
20.723984,11.819455747792412,0.04984293625485642
20.728576,11.723986454917531,0.04948870665766121
20.73316,11.618300970424716,0.04916888813034771
20.73776,11.500600425418666,0.048883777772385076
20.742352,11.37779178460365,0.048613085197969426
20.746944,11.246155125474926,0.04836141098551236
20.751524,11.103525024994767,0.048139942772812624
20.756116,10.956197524296703,0.047949074358306844
20.760696000000003,10.797754397533057,0.047792539286393106
20.76528,10.632037751922711,0.04766370815616487
20.769876,10.465221443885056,0.047567145796849786
20.77446,10.296894777829024,0.04748688303149484
20.779048,10.125503254287612,0.047414797691694786
20.78364,9.961962271346737,0.047347553345804275
20.788236,9.807415632882341,0.047277077480358545
20.792812,9.652013701418925,0.04723276909062895
20.797408,9.498699149727726,0.04720655012950919
20.801996000000003,9.351680639170059,0.0471788314033338
20.806588,9.210713800317638,0.047158709674127
20.811172,9.069136037894488,0.04715886203715277
20.81576,8.933854316604874,0.04715943519125789
20.820352,8.806545320629944,0.04716595678246599
20.824944,8.6838556816074,0.047168739285071294
20.829532,8.57052694120377,0.04715730517426546
20.834128,8.457853265819498,0.0471541033136005
20.838708,8.353518869892346,0.04714065935048559
20.843316,8.252537842327497,0.04713838046914277
20.847896,8.15539892198153,0.04712734852622696
20.852492,8.065699846645035,0.047106495898335175
20.857072,7.977921824917984,0.0470806290443648
20.861668,7.893575214818748,0.047021739191395136
20.866264,7.810128039167162,0.0469617543683499
20.87086,7.731055851039668,0.04690628216506327
20.87544,7.646342686797994,0.04686003542098639
20.880036,7.554189677546848,0.046821735981428435
20.884632,7.460604353542843,0.04676424660565982
20.889232,7.361744607567097,0.04669765317367464
20.893824,7.2610859926960565,0.04662765605266865
20.898424,7.152987532815541,0.04656780152980414
20.903012,7.044111823201521,0.046500788593869614
20.9076,6.931882745225204,0.04641664862573883
20.912188,6.811680941934202,0.046322398199717896
20.916784,6.686204716671457,0.04621564902639963
20.921376,6.550712527770441,0.04610525325921097
20.925968,6.40892429773589,0.04598772860083259
20.930552,6.25699791934892,0.045872779703072165
20.935132000000003,6.1027397917614445,0.04573166468324059
20.939724,5.946149914973462,0.04555472830456107
20.944312,5.781220758728357,0.0453809150556797
20.9489,5.613715483854455,0.0451864461722158
20.953496,5.434683887323904,0.045018596769254134
20.958076,5.250255684107466,0.04483444700520896
20.962664,5.058632005309845,0.044632351248573676
20.96726,4.8652094576169285,0.04442064558036126
20.971852,4.669088606581069,0.044187235120293246
20.976448,4.465161356393298,0.04398192187157406
20.981036,4.2611119214913815,0.04376118506104725
20.985632000000003,4.053220379370582,0.04353735455422642
20.990212,3.8504369330587505,0.04321559479722023
20.994816,3.6430341297945343,0.04286025390447263
