Time,Force,Position
21.772924,0.009981083858860275,0.0
21.77752,0.006811237058409318,0.0
21.782108,0.005562443867399735,0.0
21.7867,0.0022704123528031056,0.0
21.791280000000004,0.0,0.0
21.795868,0.004602161553309645,0.0
21.800464,0.014190234201441233,0.0
21.805048000000003,0.025699360459014192,0.0
21.809652000000003,0.041050593935469906,0.0
21.814244,0.05742344657371914,0.0
21.818832,0.07085362644073347,0.0
21.82344,0.08530542546954133,0.0
21.828032000000004,0.10359933171723193,0.0
21.832628000000003,0.1180511307460398,0.0
21.837212,0.13352454893664117,0.0
21.841816,0.1469547288036555,0.0
21.846408,0.15858603977537414,0.0
21.851000000000003,0.16739686269000353,0.0
21.855584000000004,0.1810714119853092,0.0
21.860184,0.19756644933770412,0.0
21.864764,0.21214043308065764,0.0
21.869360000000004,0.22749166655711334,0.0
21.873948,0.23912297752883196,0.0
21.878544,0.2514093535199071,0.0
21.883132,0.26075305673974736,0.0
21.887728,0.2614081217591039,0.0
21.892316,0.25593347180769926,0.0
21.896904000000003,0.2513582563039425,0.0
21.901492,0.23897664164827453,0.0
21.906084000000003,0.22353016950722604,0.0
21.910676,0.21564572708979735,0.0
21.915268,0.20751691524407734,0.0
21.919856,0.19362494257003318,0.0
21.924444,0.18549613072431317,0.0
21.92904,0.17507971112671475,0.0
21.933628,0.16568491069090988,0.0
21.938208,0.15502412166502008,0.0
21.942804,0.1498821240391631,0.0
21.947392,0.13693372726139494,0.0
21.952,0.12043868990900003,0.0
21.956588,0.1058647061660465,0.0
21.96118,0.0905134726895908,0.0
21.965776,0.07888216171787217,0.0
21.970368,0.06924299185377594,0.0
21.974964000000003,0.06074762586561888,0.0
21.979544,0.05549039929295272,0.0
21.984144,0.05137697659622576,0.0
21.988732,0.04444306584240958,0.0
21.993328,0.04147344702162182,0.0
21.99792,0.04054706652442109,0.0
22.002512,0.035001329074835455,0.0
22.0071,0.028678341891747623,0.0
22.011688000000003,0.02427640831810117,0.0
22.016276,0.017953421135013338,0.0
22.020872,0.012896422542010372,0.0
22.025452,0.008861043110800933,0.0
22.030040000000003,0.007890521164972061,0.0
22.034628,0.004221695876199634,0.0
22.039216,0.010836966781870443,0.0
22.043804,0.02861528906615477,0.0
22.0484,0.05184459911669313,0.0
22.052992,0.0813021466669877,0.0
22.05758,0.12005278920241912,0.0
22.06218,0.15915327946247343,0.013475202130619946
22.066768,0.20946791831710587,0.02597570279496001
22.071364,0.2696354785116388,0.037729710168412804
22.075952,0.3365200150625107,0.04935782020542191
22.080544,0.4101215279697215,0.06088301203776916
22.08514,0.49097289753848206,0.07234057412669691
22.089728,0.5830384157018208,0.08328581565238925
22.09434,0.6824759752408548,0.09418680272463573
22.098924,0.7842555236121342,0.10540624336872671
22.103516000000003,0.8922191680345418,0.11656632587626885
22.108112,1.0082879621175187,0.12751132216925862
22.112704,1.1291085374987653,0.13846666714781936
22.117300000000004,1.252104775549483,0.14959397063975996
22.121888,1.3814853376309923,0.1605170484215242
22.126484,1.516961712866373,0.17119562291069423
22.131072,1.6414989268879543,0.1821000683879179
22.135672000000003,1.7475043320196288,0.1935607292303194
22.140264,1.8438059465751013,0.20530877481415777
22.144856,1.9317919438586024,0.21713388043399895
22.149452,2.0071314777946667,0.22919934992523872
22.15404,2.0794739578791295,0.22778961728585856
22.158620000000003,2.1379039860260702,0.22775124969254892
22.163208,2.185408376455352,0.22865835629487843
22.167800000000003,2.2246412910612907,0.2298022420222814
22.172388,2.257768152881619,0.23089162036262978
22.176976,2.2777156710492994,0.23258726508121694
22.181568,2.282196237812454,0.23522558886105255
22.186156,2.275829210123467,0.23830334520014015
22.190748000000003,2.2669980088880894,0.24110038722508126
22.19534,2.2540259499251705,0.24366283436212588
22.199932,2.233070926015828,0.2464038167893618
22.204524000000003,2.2055652519129207,0.24935203319703275
22.209116,2.176128284568833,0.2520535018052489
22.213708,2.140429177908099,0.25492194779730293
22.218296,2.0997780619694333,0.2578533353759423
22.222884,2.0648901068590915,0.26024381977150035
22.227492,2.040140300101168,0.2618110211210178
22.23208,2.02360758808622,0.2626207855456712
22.236676,2.007363386948192,0.26353406696898113
22.241264,1.994716923600755,0.2641408148405146
22.245852000000003,1.9833364488434029,0.2645598050549729
22.250448,1.981439057419112,0.26403747889459367
22.25504,1.9815849043184086,0.2632859479255568
22.259644,1.9854506737224416,0.2621791965549244
22.264224,1.9926698114887746,0.26085239241749764
22.268824,2.0096605434650887,0.25866147916023297
22.273404000000003,2.0303711979461396,0.2560255759521327
22.278004,2.0550461443602197,0.2528879105088812
22.282592,2.082253067954469,0.24945610227534196
22.287192,2.106639503491629,0.2463540102182888
22.291788,2.1321697429047286,0.2431501530330627
22.296380000000003,2.162563708698504,0.23947770221292214
22.300964,2.1950009128158667,0.23567139640619633
22.305560000000003,2.225883617466225,0.23193959130509845
22.310148,2.2513697154306964,0.22862534751729652
22.31474,2.2741575100522233,0.22560884699802344
22.319332,2.298988542997338,0.22253187469889082
22.323916,2.3221428917613025,0.21972164988934934
22.328504,2.3523263899436757,0.21634272627543802
22.333092,2.3836536920019884,0.21289414434912066
22.337692,2.4140815596126535,0.20956737024773026
22.342288,2.440134439699225,0.2066761358593645
22.34688,2.4676976778041726,0.2036421818741052
22.351468,2.4943614814614725,0.20074661399011792
22.356060000000003,2.5138298095375893,0.19833575194121658
22.360648,2.5301891386796975,0.1961213519814406
22.365240000000004,2.548469521431247,0.19379479123266807
22.369836000000003,2.565850469735149,0.19153177054351506
22.374412000000003,2.5792671261060223,0.18956572615884867
22.379008,2.595870824676422,0.18737674200966456
22.383588,2.610920023779817,0.1852617797117251
22.38818,2.621594235359119,0.18339371505828608
22.392772,2.6275269052718895,0.18181349909944258
22.397352,2.6342368249181627,0.1801943000994154
22.401956,2.645566101516821,0.17827458231004223
22.406536,2.6552186939343283,0.1764095068985533
22.411136000000003,2.655754757161213,0.17506468194938538
22.415716,2.6499947792545617,0.174060285136747
22.420316000000003,2.6319312299577597,0.17382153624172197
22.4249,2.6101477581562214,0.17380325921328996
22.429496000000004,2.5846443638499457,0.17402409429640933
22.434084,2.5532556240012,0.1746932356738795
22.43868,2.5170031577717786,0.17571053872524647
22.443284,2.4772751384659113,0.17691826126480314
22.44788,2.4383243688935456,0.17817130887874805
22.452468,2.3952871226740062,0.17979196061494818
22.45706,2.3481633998072926,0.1817826269557953
22.461652,2.297730450026907,0.18420176980688388
22.466236,2.2498736188753194,0.1864534430436451
22.470824000000004,2.1967865072006187,0.18920577539171815
22.475420000000003,2.14476515613634,0.19196581190486725
22.480004,2.096752238453717,0.1944572844127619
22.484584,2.0568342307999252,0.1963056753722021
22.48918,2.0224350145461663,0.19769477584261158
22.493768,1.9904897322070594,0.19891718336642827
22.498364,1.9642295674307593,0.19987999638272774
22.502952,1.9465971929885,0.2004149934378735
22.507536,1.932606697785461,0.20089510352573925
22.512148,1.930186665687698,0.20072095143832824
22.516736,1.9343511856003897,0.20025669325208487
22.52134,1.9443230077900335,0.19952253374075923
22.525924,1.960879381990132,0.19845077533921016
22.530516,1.9845531885058953,0.19709132270221885
22.535120000000003,2.01546661205147,0.1954551382432966
22.539712,2.0529645876074993,0.19352798375385816
22.544316,2.0979465496216303,0.19123222035625073
22.548896000000003,2.1478363794650663,0.1886631216605037
22.553496,2.2067205537849808,0.18551584542978128
22.558084,2.2679364773054016,0.18239955091111043
22.562684,2.3373694955687987,0.1787800603989204
22.567276000000003,2.40668032911805,0.1752224043639316
22.571880000000004,2.4749695435055084,0.17189490422591913
22.576472,2.5363517931887025,0.16921453623534077
22.581064,2.5952020656917276,0.16695747907071246
22.585652,2.6538079687664613,0.16486066401562222
22.590244,2.707672330174664,0.16306720925680915
22.594832,2.762436126030515,0.16136454279899323
22.599428,2.8211642138193946,0.1594698462209683
22.60402,2.8798923016082734,0.15772119304227042
22.608612,2.9352670210348526,0.15615269076056695
22.613192,2.9908861098897233,0.1546065706247587
22.61778,3.050058795086557,0.15289526138894696
22.62236,3.1044457971682324,0.15131945144387635
22.62694,3.154946550582396,0.14988319575647793
22.631532000000004,3.2033599242243453,0.14851110989513963
22.636112,3.2468654300369892,0.14727656468148848
22.640708,3.291470598276945,0.14593460467345798
22.645296,3.3330889522970373,0.1446870492540409
22.649888,3.3699216232019715,0.1435340031093781
22.654484,3.398903753506366,0.14260445427679067
22.659064,3.4264535690579017,0.141676303872449
22.663668,3.447951712904194,0.140884155108376
22.668264,3.4700607803212145,0.14000108398619276
22.672860000000004,3.487506349337222,0.1391777439176133
22.677464,3.502742353866869,0.1383800038177759
22.682052,3.5224313891861265,0.13737613988820588
22.686648,3.5381119911237278,0.13645782385954602
22.691236,3.554403516632057,0.13549601927228577
22.69584,3.5664422393304385,0.13463652845121035
22.700424,3.576926462561816,0.13379348022824783
22.705024,3.585078936592686,0.13298222817574512
22.709612000000003,3.588489868957026,0.13232042219359116
22.714216,3.596764527702042,0.1315189361032176
22.7188,3.6029959481234712,0.13078847015272452
22.723392,3.608205749383107,0.13010019125923275
22.727972,3.619955961204569,0.12925882836962277
22.732568,3.631217434169448,0.12849195274309314
22.737156,3.6431339721536844,0.12774941121619793
22.741752,3.661102181843164,0.12691865410097897
22.74634,3.6844669982185305,0.12598519357801533
22.750924,3.7149831487264517,0.12486602128430029
22.755512,3.757680685910378,0.12349415204198513
22.760112000000003,3.809616936999073,0.12198128032788501
22.7647,3.870547532564248,0.1203394431797232
22.769284000000003,3.9338098773299284,0.11871211491781104
22.77388,3.9987489062767594,0.117129922594749
22.778472,4.064998065262303,0.11558730610100305
22.783068000000004,4.128182366762466,0.11416880212999413
22.787648,4.1980292635386025,0.1126670635542023
22.792240000000003,4.273272767000624,0.11111275477470656
22.796836000000003,4.353790692434388,0.10953384284624937
22.801424,4.440071778696477,0.10788706784575877
22.806036,4.5274966688345035,0.1062769153017609
22.810616,4.619785285353207,0.10459503110984918
22.815216000000003,4.717181997680878,0.10285548281367504
22.819808,4.813923644989192,0.10118963910327093
22.824396000000004,4.911809096173445,0.09953911286850127
22.829,5.008672928195906,0.09794316052927564
22.833592,5.104226630179653,0.09638087055570621
22.838192000000003,5.202723004934636,0.09482477134160996
22.842772,5.2965219794717155,0.09344500267843271
22.847372000000004,5.384435608466326,0.09220671067374271
22.85196,5.462211089108518,0.09111216293591279
22.85656,5.53548939751247,0.09009201078740656
22.861152,5.607579760591855,0.08906058679927531
22.865752,5.6742735169853535,0.08809151387409138
22.870348000000003,5.742355446683083,0.08709810243950629
22.874944000000003,5.812358429990253,0.08609846238248145
22.879524,5.87210108023086,0.0852136823533397
22.88412,5.9275909276615195,0.08436105220016846
22.888708,5.978950156996376,0.08353483371271991
22.893304,6.023113910750052,0.08277001729196218
22.897892,6.05983781949425,0.08207596778706477
22.902476000000004,6.09128730626671,0.0814143602462352
22.907064,6.1112104713825195,0.08086798919860796
22.911656,6.123693791488855,0.08038388916837381
22.916244000000003,6.131802124071099,0.07992160252177517
22.92084,6.139621945776422,0.0794294466772735
22.925432,6.142700225815215,0.07897889157167767
22.930020000000003,6.13870521498697,0.0785614803575774
22.93462,6.130701770777068,0.07813609289759513
22.939200000000003,6.118567708471364,0.07770991568728725
22.943792,6.108599069203394,0.07725053106767353
22.948376,6.091312769640095,0.07683166846274743
22.952964,6.074026470076794,0.07641247770272241
22.957556,6.054941301618198,0.07599898834440343
22.962148000000003,6.029193537883632,0.075636483313029
22.96674,5.9989486019108265,0.07529345396572365
22.971336,5.97344520760455,0.074912019296286
22.975924000000003,5.944099706079393,0.07455896116800687
22.980532,5.910789912621205,0.07424196310063469
22.985108,5.87993405307767,0.07392593917108943
22.989708000000004,5.8498554432676375,0.07361058218546006
22.994288,5.825295624857637,0.07326245115322441
22.998888,5.811362693656639,0.07282573560681418
23.003484000000004,5.798084827474996,0.07239727519897927
23.008080000000003,5.781986473236265,0.0719842166451734
23.012668,5.762701076798006,0.07161119457135298
23.017260000000004,5.745214549255044,0.07122903922538534
23.021848,5.730059770912588,0.07085779975136565
23.026444,5.719646534236663,0.07045268457020054
23.031044,5.71360828508483,0.07003749309083446
23.035636,5.704505178447619,0.06965338949821807
23.040224,5.701043047924584,0.06923060977403807
23.044812000000004,5.6934944407543755,0.06885060048211104
23.049392,5.689421386660613,0.06846433398331193
23.053992,5.693032547004616,0.06802240319207004
23.058580000000003,5.696399337920329,0.06759366963307636
23.063172,5.697600705798308,0.06719490805942929
23.067768,5.705220299523967,0.06676724402504518
23.072344,5.718603054077951,0.06630021587658405
23.07694,5.730309124450784,0.06583265063270395
23.081528,5.745735117328355,0.06534741699526732
23.086116,5.754131960787518,0.06492939979041289
23.090708000000003,5.757420708437713,0.06456701577811957
23.0953,5.763529944144996,0.0641891264848325
23.099908000000003,5.7749136018240215,0.06380314044645688
23.104496,5.789117747560135,0.06340260069042473
23.109084,5.805120762191545,0.06300020414222555
23.11368,5.821245961537103,0.06259313740757662
23.118272,5.8339397492548395,0.06223953773811307
23.122868,5.843690864201343,0.061908986159310724
23.127456,5.859860204995526,0.06155744898305458
23.132056,5.879505098866155,0.061209310008792345
23.136636,5.904790968850963,0.060835626328062414
23.141236000000003,5.933141696321152,0.06044028994921606
23.14582,5.954707643801223,0.06009002533212605
23.15042,5.982036752109618,0.05971033293232276
23.155016,6.014229586798689,0.05930449754228603
23.159612,6.047688410077845,0.05888474523550533
23.164204,6.075139703100387,0.05851176690655235
23.1688,6.104267680304078,0.05814480090751462
23.173388,6.1342950919554164,0.057781844668321515
23.177988000000003,6.1685311649680745,0.057378544659438147
23.182576,6.200191119351935,0.05697175032321747
23.187172,6.234138681487672,0.05654079091004313
23.191752,6.267308993889909,0.056108518110554145
23.196348,6.301500925453939,0.055673446799482273
23.20094,6.3319729345132325,0.05525178869092668
23.205532,6.358725021067787,0.05484180677740505
23.210128,6.386210215907218,0.05439103179573496
23.214716,6.415983018498527,0.05391342244712925
23.219308,6.439093225813863,0.053464474997048525
23.2239,6.453864153672078,0.05303735949604849
23.228492,6.461317421234964,0.05262322317001553
23.233084,6.459043236036498,0.052256583280357066
23.237672,6.458934473875765,0.05186624072663002
23.242268,6.450486432257908,0.051494953533470354
23.24686,6.433576926468784,0.05114846009285929
23.251448,6.406939967918308,0.05084606805391759
23.256036,6.376827456291386,0.05053419736931943
23.260628,6.338375665207342,0.050236840701794086
23.265224,6.288764106609088,0.049962163210412115
23.269812,6.235432625506095,0.049691497221287184
23.274416,6.181201709955455,0.04941614256323803
23.279008,6.11340123442458,0.0491969842647261
23.283608,6.037261479436583,0.04898921373012973
23.2882,5.952660260277318,0.048799134261744405
23.292792,5.861518630556226,0.04862010496923149
23.29738,5.768455947225693,0.04844328443509801
23.301976,5.6692635489244,0.048306556466781864
23.306568,5.562264751471195,0.04820141776431583
23.311164,5.452812020103337,0.04807557391814297
23.315748000000003,5.3422154848595405,0.04796386103915443
23.320344,5.2322740146351014,0.04786370129772559
23.324948000000003,5.124497967448394,0.04773452396218053
23.329532,5.00879333639563,0.047650972003164094
23.334108,4.891944901466928,0.047579278118893724
23.338692,4.773297597642929,0.047501212474104784
23.343280000000004,4.653750859371283,0.04742072683032438
23.347872,4.540622346947315,0.04732350703565505
23.352456,4.430436507294584,0.04719973350489306
23.357044,4.323848405432445,0.047072622845995636
23.361636,4.21317382692313,0.04697682902035789
23.366228000000003,4.1013554445378775,0.04689369639625227
23.37082,3.9959552880003053,0.04680636253391301
23.375408000000004,3.892886880663239,0.04675253060291609
23.379984000000004,3.7903513536313844,0.04673395637725626
23.384596,3.692190814123623,0.04673002627346909
23.389176000000003,3.593663720473424,0.046765404885123936
23.393780000000003,3.4988565493279626,0.04679258679727838
23.398364,3.4077693006872383,0.046804456245388926
23.402952000000003,3.316437682618223,0.04683565744075898
23.407548,3.2254726186916445,0.046822397076404954
23.412136,3.1309098169744747,0.04680639963592002
23.41674,3.033159973057778,0.04684769924135462
23.421328,2.9411732899694054,0.046849403855383526
23.425928000000003,2.8511076604904746,0.04682989509322553
23.430516,2.761574911316755,0.04686393897607708
23.435112,2.6719199774288893,0.04692217937397894
23.4397,2.5748251985315496,0.04700377612527425
23.444288000000004,2.4803065382630076,0.04708496551201987
23.448884000000003,2.3869316818704047,0.047112307770866675
23.453476,2.292657391030154,0.047152797744685886
23.458076,2.19736148102811,0.047224097758603895
23.462668,2.1015326907208554,0.047210034024967686
23.46726,2.0033721512130933,0.04711498162952178
23.471852,1.903534927524182,0.047013587389348
23.476432,1.803042638815914,0.04464539635850071
23.481016,1.702139654516581,0.04224735091268482
23.485596,1.594818444369567,0.03984932590714096
23.490192,1.4845545614513185,0.03746741650712239
23.494784,1.3760895474283652,0.03508624926715626
23.499372,1.2730211400912994,0.03274088570164031
23.503964,1.174327720278327,0.03039896233278912
