Time,Force,Position
25.936552,0.05748755876821658,0.0
25.941151999999995,0.05760974348236226,0.0
25.945744,0.0625956545771842,0.0
25.950336,0.06823663069136264,0.0
25.95492,0.07363323737724975,0.0
25.959512,0.07878547463484553,0.0
25.964104,0.08405989660658697,0.0
25.968696,0.09317642579721115,0.0
25.973272,0.10535781247321589,0.0
25.977868,0.12056302847480385,0.0
25.982452,0.13478765347439564,0.0
25.987044,0.14823502874048525,0.0
25.991632,0.16540232651131195,0.0
25.99622,0.1857156383218675,0.0
26.000816,0.19916301358795713,0.0
26.005404,0.21551203346548428,0.0
26.009992,0.23276048779065928,0.0
26.014588,0.24608567834260323,0.0
26.019176,0.25802269559031665,0.0
26.023776,0.2715142123050344,0.0
26.028355999999995,0.28116362180086946,0.0
26.032956,0.28325100157308464,0.0
26.037544,0.27765416690753436,0.0
26.042144,0.2742227552797168,0.0
26.046724,0.26694923643301643,0.0
26.051324,0.2613524017674662,0.0
26.055907999999995,0.2576766207113573,0.0
26.060504,0.24938148270286342,0.0
26.065096,0.23315464753948192,0.0
26.069688,0.2229384559215467,0.0
26.074288,0.20736979906635253,0.0
26.078888,0.1898769753128862,0.0
26.083476,0.17238415155941983,0.0
26.088072,0.15207083974886426,0.0
26.092659999999995,0.13674343903313063,0.0
26.097256,0.12039441915560348,0.0
26.101844,0.10314596483042848,0.0
26.10644,0.08781856411469485,0.0
26.111032,0.07273553282725256,0.0
26.115624,0.057896870968101616,0.0
26.120208,0.0458786971660399,0.0
26.124787999999995,0.03770263058286094,0.0
26.129384,0.03246923677091687,0.0
26.133972,0.026214223797179283,0.0
26.13856,0.022901883594676584,0.0
26.143152,0.017912859211023858,0.0
26.147744,0.011002781217929759,0.0
26.152332,0.005891572120131361,0.0
26.156924,0.005891572120131361,0.0
26.161512,0.0009025477364786349,0.0
26.166115999999995,0.0,0.0
26.170696,0.0,0.0
26.1753,0.0,0.0
26.17988,0.0034652438118647076,0.0
26.18448,0.016345767323011892,0.0
26.18906,0.03647614749570881,0.0
26.19366,0.06115808098701194,0.0
26.198256,0.09591035919695404,0.0
26.202852,0.13917848265853075,0.01233765783942377
26.207432,0.18736471358115064,0.024790230272031956
26.212019999999995,0.24214573614596382,0.03706406374235155
26.216608,0.30634203841005947,0.0487372799731723
26.2212,0.376888762888057,0.06043601675854947
26.225788,0.45492971345589556,0.07196580925696491
26.230376,0.5444291820466036,0.08288784155258377
26.234964,0.6416672461554442,0.093669677616164
26.239564,0.7495865785536521,0.10406788301938105
26.244152,0.8661439409176402,0.11432218123957233
26.248736,0.9931382021427043,0.12434291828525501
26.253332,1.1304471775146985,0.1341874171743496
26.25792,1.2763941828524734,0.1439497594738675
26.262512,1.4332668259079067,0.153479448575537
26.267104,1.5944805546705445,0.16302484555807295
26.271692,1.7574254183275413,0.17246028128462879
26.276288,1.9112435131621752,0.18194631507100317
26.280876,2.062308923573499,0.19124617963774776
26.285484,2.2119317796002247,0.2004709868019692
26.290076,2.3540604095371096,0.2096082151525533
26.294664,2.493480496499312,0.20623941750233485
26.29926,2.637631885496306,0.2024478668409528
26.303848,2.779319100946909,0.19873535967034678
26.308444,2.915721654794032,0.1955278800131602
26.313032,3.047983350913614,0.19227006340175823
26.317628,3.176104189305655,0.1891032196152929
26.322208,3.2941988244276854,0.18653323321799994
26.326808,3.4067644285179437,0.18408065142101582
26.331396,3.5117577632528443,0.18196442626122097
26.335996,3.6104448172224703,0.17995754897865887
26.340588,3.701926155979175,0.17812647657994576
26.345184,3.7838700303224524,0.1764606604345137
26.349768,3.8607736124905396,0.17478369350455472
26.354364,3.928428241122119,0.17330623800020298
26.35896,3.996483325713024,0.17167790278191442
26.36356,4.062162519654795,0.17008345281666906
26.368152,4.133316363547971,0.16828014882509998
26.372744,4.200750284936409,0.1666545750427794
26.377332,4.2680178801620725,0.1650224715741657
26.381928,4.332709356758939,0.1634779469191893
26.386512,4.39363676940244,0.1620410482109684
26.391112,4.4459363917119,0.16088199730787597
26.395704,4.498069687858586,0.15971601225146626
26.400288,4.5481156042330575,0.15858818706216463
26.404884,4.601060051930134,0.15734561824390753
26.409472,4.651794935140851,0.1561433585092479
26.414064,4.702485676902939,0.15489399686684235
26.418644,4.752599396911189,0.15358956933137627
26.423232,4.801114476003806,0.1522656620804008
26.42784,4.848685979200148,0.15092037964532512
26.432428,4.89429228733842,0.1495874900035113
26.43704,4.941408953495069,0.14819586975830124
26.441628,4.989380912650735,0.14677130988208775
26.446224,5.037186545643629,0.14531782989769673
26.45082,5.079839941378927,0.14397507740014956
26.455408,5.119384338180215,0.14267431053741633
26.460004,5.151977628828613,0.14151129564662182
26.464584,5.184648962742528,0.14028972792526315
26.469184,5.213189678560641,0.13912883324410666
26.473772,5.242341317949482,0.13792018362853878
26.478372,5.266340720080728,0.13678728888635888
26.482956,5.286209504116172,0.13569975033282072
26.487556,5.297983378122784,0.13475842728756934
26.492152,5.305504449319448,0.13387681152626588
26.496752,5.30750672911608,0.13310874092037778
26.501344,5.309997747769295,0.1323045481699208
26.505939999999995,5.309546093651274,0.13156598510117495
26.510548,5.306806831781375,0.1308991029014507
26.515139999999995,5.301002712426095,0.13030667411696736
26.519728,5.292255920299583,0.12977797371851374
26.524328,5.279911390382477,0.12930650814152647
26.52892,5.265523622141783,0.1288842773970553
26.53352,5.244883954216184,0.12861680848444032
26.538112,5.221057244091059,0.1284299290941976
26.542696,5.1968639798234975,0.12827163578042045
26.547284,5.172304161413497,0.1281411411688355
26.55188,5.146356169699267,0.12806484833542625
26.556472,5.1197972544143076,0.12803440590291054
26.561064,5.093771219434561,0.12801852567673885
26.56566,5.067378630312375,0.1280292509059342
26.570248,5.047282082323726,0.12793969178857983
26.574848,5.028862218516227,0.12783201271810982
26.579428,5.013018473337525,0.12769247127285044
26.584019999999995,4.997707608464034,0.12756906665965373
26.588616,4.977288647781575,0.12757196920247155
26.593204,4.952416656309505,0.12770609875467664
26.597816,4.928321914570938,0.12783725485376957
26.602396,4.904227172832369,0.12796814105308785
26.607,4.87988806166551,0.12812313679283266
26.611596,4.854649516051004,0.12829624526621483
26.616184,4.830188220169999,0.12846743243316505
26.62078,4.801229752050756,0.1287196062956021
26.625372,4.770716784464508,0.12898859916273708
26.629964,4.7367282638018136,0.12932194613010337
26.634556,4.695544267557937,0.1298087823778038
26.639156,4.650640348809323,0.13038902085054646
26.643744,4.60291594200362,0.13106146959554013
26.648344,4.549017678778528,0.13186871031427166
26.652928,4.489600624153404,0.1328324609670443
26.657532,4.42286590923295,0.1340039439401711
26.662116,4.3448492420841385,0.13550746952648193
26.666716,4.266588205507037,0.13705536781078928
26.671304,4.186406115320494,0.13869817925467506
26.6759,4.103770091219298,0.14042668484129858
26.680496,4.024321109317628,0.14209875446544368
26.685096,3.943561997377246,0.14382584068563548
26.689688,3.8593273323604183,0.14568579527452444
26.69428,3.7704733103912056,0.14775550090508624
26.698872,3.6774886703261904,0.15001207990116094
26.703456,3.582827346080025,0.152392316781251
26.708048,3.486855891795147,0.15480937958286964
26.71264,3.3912509916527056,0.15728432662778835
26.717236,3.2958904609385558,0.15981398431749108
26.721824,3.205515841319228,0.162168706820614
26.72642,3.1248686744612524,0.1641560343094568
26.731,3.04638693064101,0.16610452430341804
26.735596,2.976078140115116,0.16765114617521307
26.740179999999995,2.910266521827461,0.16910565116641607
26.744768,2.8504624337964204,0.1703178008970189
26.749376,2.7984647449172915,0.17120723920214068
26.753964,2.7525967710089243,0.17184460754082206
26.758556,2.707339720671285,0.17239052118480183
26.763152,2.666291331694966,0.17269626986970177
26.76774,2.628962865223384,0.172849383642232
26.772344,2.594699256237182,0.17282257481561525
26.77694,2.5670982425269524,0.17246977899005228
26.781544,2.544360955197399,0.17187057074001108
26.78614,2.5294300670197565,0.17086603415430063
26.790732,2.521694654423297,0.16954474137871625
26.79532,2.522176336569814,0.16785824083561393
26.79992,2.5255226482220485,0.16612496435334645
26.804508,2.534676262151235,0.16418987187986364
26.809112,2.547061059728576,0.1621351710261675
26.8137,2.560633802630484,0.16012217628246508
26.8183,2.572451818085725,0.15831894554246942
26.822884,2.5885226363509135,0.1563689552616221
26.82748,2.5998960543982,0.15477407193636686
26.832072,2.6146228408077863,0.15307850806873163
26.836668,2.630415387827794,0.15144579457215274
26.841256,2.6473958801723696,0.1498730902391608
26.845852,2.669039870917958,0.1482224028151299
26.85044,2.691749622273968,0.1466215517651289
26.855028,2.713481895916813,0.14519450524221153
26.859615999999995,2.7383231684936664,0.14373494503486803
26.8642,2.7612875289097056,0.14247399495967195
26.868792,2.781231173288994,0.14149865549791726
26.873376,2.804039447173999,0.1405418582955042
26.877972,2.8229275705746035,0.13988479936510204
26.88256,2.8459463120710113,0.13916776715224663
26.887152,2.867454695549042,0.1386081875415513
26.891744,2.892316447389373,0.1379848382054626
26.896332,2.9186105139825624,0.13738376787357975
26.900928,2.948913013957409,0.13673704407301973
26.905516,2.9841233817615596,0.13603668213390882
26.910124,3.0243638021091606,0.1352588927208637
26.914716,3.0668137869431225,0.13451129983584495
26.91932,3.1182581162535623,0.13355205234252132
26.923916,3.171912010050363,0.13262519720933313
26.928516,3.230595956390614,0.13165024290882993
26.933108,3.2934105208266673,0.13066615709961066
26.9377,3.3604778880726687,0.1296704983382069
26.942296,3.4315536887003266,0.12865044906007872
26.946876,3.5101915190516038,0.12747416567637843
26.951471999999995,3.5943481408029143,0.126254353647291
26.95606,3.685944607563699,0.12488910006914603
26.96066,3.7826491701334515,0.12338505677441744
26.965252,3.879231547989058,0.12194768418519665
26.969852,3.9816992713871344,0.12035943934610004
26.974447999999995,4.0804470722804735,0.11891820186037007
26.97904,4.181770991802611,0.11749341084144566
26.983636,4.283339280753039,0.11609302152736471
26.988228,4.3842525046841105,0.11472495466481158
26.992816,4.481157295233527,0.11341288327357012
26.997416,4.573154217953638,0.11218617881722312
27.002004,4.666661498692125,0.1109549650045189
27.0066,4.758492095249463,0.10977449545436196
27.011188,4.842105597063823,0.10875302704062025
27.015775999999995,4.926330022448913,0.10771733288215207
27.020364,5.007445448899993,0.10672520445838414
27.024956,5.084308072541125,0.10580180145297549
27.029551999999995,5.153075786153427,0.10499862711661095
27.034144,5.221799358317101,0.10416163717579524
27.038736,5.288068996566122,0.10338028056728064
27.043327999999995,5.344322671176872,0.10273897105642919
27.04792,5.395956988835237,0.10217334778304328
27.052508,5.442072515093569,0.10168217557252088
27.057096,5.486345031007977,0.10116567447484853
27.061692,5.5263647441124375,0.1006858740008846
27.066276,5.568794249682921,0.10015502446357741
27.070872,5.602840334347656,0.09967062476863386
27.07546,5.62903587841185,0.09924614380017276
27.080048,5.651222989094387,0.09883217215446978
27.084644,5.675453338100511,0.09838778411750632
27.089224,5.696452503458481,0.09795077978833162
27.09382,5.706780640158823,0.09760749413893476
27.0984,5.714244147353448,0.09724697356133802
27.103,5.722562947547094,0.096825107586065
27.107584,5.7231533918543445,0.09645093548146311
27.112184,5.7160154802752015,0.09612046414858136
27.116768,5.705113504742693,0.0957766262228908
27.121364,5.694289572475703,0.09536975796885547
27.125952,5.675615099608172,0.09501383416356608
27.130548,5.6451257942070745,0.09476471318988011
27.135136,5.614225793214912,0.09448672565558017
27.139731999999995,5.5777628593740864,0.09420864878352138
27.14432,5.542155218532284,0.09386537670228351
27.148908,5.502050405452241,0.0935549862096183
27.153488,5.461534896781132,0.09321227432134295
27.158083999999995,5.4111256091858975,0.09294699311107901
27.162676,5.364802798237837,0.0926099247737764
27.167264,5.32706363617519,0.09216665675367774
27.171859999999995,5.290223908560191,0.09171131048426115
27.176452,5.250030812582891,0.09126259188476378
27.181044,5.211514400786742,0.09080379243256172
27.185632,5.178638965104771,0.09027985356845362
27.19022,5.140899803042124,0.0898118152563951
27.194812,5.104060075427124,0.08933122472527105
27.199404,5.071595335336219,0.08881977162341122
27.204012,5.0483693091500825,0.08821813346983064
27.208604,5.024532359393217,0.08765521776309573
27.213208,5.003149343551004,0.0870870124652952
27.2178,4.9885952491475365,0.08649044071271912
27.222392,4.981358815039401,0.08582418351981445
27.226984,4.97669849956006,0.08514418645416016
27.231564,4.978212040500109,0.08442484925899219
27.23616,4.981935145926519,0.08372598133789924
27.240739999999995,4.989666684734585,0.08302937694296317
27.24534,4.999729972743158,0.0823454452939195
27.249928,5.017888170780562,0.08160205225057098
27.254528,5.035435445247239,0.0809085458783142
27.25912,5.051061666104474,0.08024902840346783
27.263715999999995,5.070163440038154,0.07958175012093704
27.268296,5.095561255105369,0.07888579868870353
27.272892,5.123535188801381,0.07818713017655067
27.27748,5.151142568354957,0.07752185721272231
27.282067999999995,5.191830769032186,0.07675936379911216
27.286648,5.2332962194429165,0.07600978848234836
27.291244,5.276560538748942,0.07526397518436158
27.295832,5.316760000569587,0.07457255605974239
27.300424,5.365665295989793,0.07380989539501634
27.305016,5.416491645019439,0.0730452532687882
27.309604,5.465763494582081,0.07228446286641474
27.3142,5.5198990705253985,0.0714957123040527
27.318788,5.575955700078157,0.07070121957700147
27.32338,5.629314026287973,0.06992719588639228
27.327968,5.681895102764286,0.06915990411123482
27.332564,5.735986537258976,0.06836068241579056
27.33716,5.786602418677219,0.06757333153275459
27.341747999999995,5.8373404848096095,0.06679195513043391
27.346344,5.8856246170273465,0.06600496189937277
27.350924,5.928512142559197,0.06524103825418619
27.355516,5.969312288318832,0.06445941974064258
27.360112,6.001118089601989,0.06371118219934302
27.364692,6.0299370766652824,0.06294018770581468
27.369288,6.053848195899272,0.06215231041912623
27.373876,6.064023428990251,0.06141918559298919
27.378476,6.069701489842991,0.06069542498939481
27.383064,6.0663852062192545,0.059989092534463065
27.387668,6.055873447014336,0.059292415363685166
27.39226,6.029338193914527,0.05866814908875036
27.396848,5.991643173300508,0.05808130813224879
27.401436,5.942788385172277,0.05752860985225722
27.406032,5.882773829529836,0.057012273061163576
27.41062,5.815441613592066,0.05650818191133645
27.415216,5.746432713473146,0.05598859591494611
27.419804,5.671127772220689,0.055467647404515215
27.424392,5.58723918208282,0.054978526591326536
27.42898,5.49950848472607,0.05449836531914239
27.433568,5.400251465712669,0.05407191013841919
27.438156,5.30099444669927,0.053630314337063494
27.442752,5.200349254381639,0.053209607903512465
27.447344,5.090631674322014,0.05284903613850413
27.451936,4.976583248186922,0.052532444742807306
27.456528,4.859103410424013,0.05225437609737836
27.461112,4.741012649090376,0.052004488594918255
27.465703999999995,4.6253758216713905,0.05175459834184291
27.470296,4.51129349371941,0.05150700372276569
27.474884,4.398521295806142,0.05128404406043676
27.479479999999995,4.288325216521673,0.051054024146497984
27.484068,4.184791732513175,0.050777091378516485
27.488656,4.085755420742916,0.05048210122431867
27.493252,3.995957822877427,0.05014603364944896
27.497844,3.9055493014412095,0.049853166175159336
27.502436,3.815795845024349,0.04956613097409318
27.507031999999995,3.722610976979671,0.04933324923069242
27.511628,3.6277935662024707,0.049160283896462764
27.516216,3.534530654892275,0.04900101648855463
27.520816,3.442822243049083,0.048856797267204564
27.5254,3.358675860929512,0.048664676933370295
27.530004,3.266234340801446,0.04859459995748771
27.534592,3.1726490167974415,0.04855270785763319
27.539192,3.0842159300510326,0.0485459698472943
27.543788,3.0022010691523042,0.048525255333570105
27.548376,2.9191645890917823,0.048518265139695725
27.552956,2.836783174050617,0.04854498072865418
27.557544,2.751214716809926,0.048647328900078404
27.562135999999995,2.6606603484744125,0.04883495770794111
27.566728,2.569084360977105,0.04906373265226843
27.571316,2.4773861887656516,0.04930217113234308
27.5759,2.388264135182997,0.049525709223754266
27.580487999999995,2.2959550394008166,0.04985524263866508
27.58508,2.2016027052950484,0.05020447819291885
27.589664,2.110315228674661,0.05051257726467599
27.594252,2.0160850792830387,0.050906967072767886
27.598848,1.9240203529291489,0.05123278121553834
27.603424,1.8330994304511985,0.05156245335678068
27.608011999999995,1.7432001271350412,0.05187077152043288
27.612608,1.6526457587995276,0.05210807139481729
27.617196,1.5582492832451316,0.049749890633001934
27.621784,1.475623498775675,0.047307618760954254
