Time,Force,Position
27.979028,0.1580981596906441,0.0
27.983623999999995,0.1387993406989741,0.0
27.988228,0.1309046586498066,0.0
27.992808,0.12583046465772837,0.0
27.997404,0.1244761931703872,0.0
28.001984,0.12954014753072668,0.0
28.006588,0.1333381133009813,0.0
28.01118,0.13497065603350317,0.0
28.015776,0.1353372101759402,0.0
28.02036,0.14020093655661645,0.0
28.024951999999995,0.13509284074764882,0.0
28.029552,0.12896312577688768,0.0
28.034144,0.12079017248253948,0.0
28.038744,0.1191576297500176,0.0
28.04334,0.1112647810908163,0.0
28.047927999999995,0.10541517075520207,0.0
28.052512,0.10492643189861939,0.0
28.057099999999995,0.10201949433424004,0.0
28.0617,0.09731368787456499,0.0
28.066288,0.0915862622530964,0.0
28.07088,0.08585883663162786,0.0
28.075472,0.08078647602951579,0.0
28.080052,0.07174982349437531,0.0
28.084644,0.06361260540688268,0.0
28.089232,0.0563748217670379,0.0
28.09382,0.04631655007010389,0.0
28.098416,0.03638046308731555,0.0
28.103003999999995,0.028365429713968583,0.0
28.107607999999995,0.020594765768912962,0.0
28.112196,0.012046852090355165,0.0
28.116784,0.008362664792473636,0.0
28.121388,0.00570009665638563,0.0
28.125976,0.004958582129738998,0.0
28.130572,0.00139657954600314,0.0
28.135152,0.00139657954600314,0.0
28.139748,0.00139657954600314,0.0
28.14434,0.0,0.0
28.148936,0.004339252317238036,0.0
28.153524,0.010477373529771777,0.0
28.158124,0.017514929189953364,0.0
28.162716,0.02725078819307851,0.0
28.167307999999995,0.03788608164385151,0.0
28.171896,0.04917644011398101,0.0
28.176492,0.057768495241166964,0.0
28.18108,0.06546111592070505,0.0
28.185676,0.0730315518860975,0.0
28.190264,0.0795803686896964,0.0
28.194852,0.08907185826453022,0.0
28.19944,0.09975129316393136,0.0
28.204028,0.11088556510302583,0.0
28.208616,0.12726035719697237,0.0
28.2132,0.14838693058918825,0.0
28.217792,0.17533104589009524,0.0
28.222372,0.21373367921387174,0.0
28.226959999999995,0.26473863443645695,0.00751888255424546
28.231544,0.3237265546054659,0.015160945894839567
28.236124,0.38943145113081373,0.023095213422055737
28.240715999999995,0.45685900667590595,0.03126185249978721
28.2453,0.5304706582721264,0.0394547632607711
28.24988,0.6111658403671226,0.04766916468638532
28.25448,0.6953468151703034,0.0560132013426935
28.259076,0.787510754919908,0.06431182789695292
28.263668,0.8843042912536362,0.07276737289443906
28.268256,0.9935779647720274,0.08112869198204756
28.272856,1.1145545257415794,0.08934725418304906
28.277432,1.2458016594094337,0.09744191372660184
28.282032,1.390017669118534,0.10536287155874442
28.286612,1.5375972868216727,0.11335527461816529
28.291208,1.6909061635362461,0.12132871056721066
28.295791999999995,1.8503888966702091,0.129232777026831
28.300384,2.0083951736026853,0.13709002880932464
28.304984,2.1651252223133377,0.14485238769605954
28.309576,2.315260479381797,0.1526264683902491
28.314164,2.4495622309032927,0.16052459198092958
28.318756,2.5706065955066237,0.1609004407956221
28.32334,2.684933983753615,0.1610767376694718
28.327936,2.793932568948499,0.1608698493299119
28.332524,2.8949481891969584,0.16050194476369023
28.337116,2.9863041603178444,0.16014844877045992
28.341695999999995,3.0680004823111564,0.15981494751929637
28.346284,3.146577565738721,0.15921800974056743
28.350867999999995,3.2156171847528574,0.15866250996769765
28.35546,3.2825591843630404,0.15780495003592482
28.360036,3.3379204812362087,0.15709560414059578
28.364632,3.3815788906582145,0.15655643186787416
28.369219999999995,3.414189477648417,0.1561688666841271
28.373804,3.4308885158261386,0.15611815158874714
28.378408,3.440914719096149,0.15604556901585628
28.383008,3.445700402211308,0.1559495083386133
28.3876,3.44397957658153,0.15590646208751177
28.392195999999995,3.4402935558936822,0.155852669568385
28.396788,3.433664862434599,0.1559136201940773
28.401368,3.430389537337817,0.15589449274519684
28.405964,3.433288068660424,0.15569645675200788
28.410547999999995,3.437496730021744,0.15550586020662405
28.415148,3.4418717175458378,0.1553842076742378
28.419732,3.4464130312327046,0.15533094513138018
28.424323999999995,3.45635095160546,0.15511744371040276
28.42892,3.4702973053598707,0.1548318435404416
28.433512,3.4890293422294407,0.15446407794334371
28.438112,3.5031861635952537,0.15432756195360106
28.442704,3.51918599530499,0.15421776994619749
28.447292,3.5331867301397684,0.15427558557036372
28.451888,3.5523397022321417,0.1542095412443478
28.456476,3.5729249890773738,0.15413429998565434
28.46106,3.595842025123113,0.15402530053454205
28.465648,3.625954536750035,0.15369990621616045
28.470244,3.6581102867005444,0.15329213696690247
28.474836,3.6936194050133535,0.15283165164223267
28.479412,3.7341585758696123,0.15228406596271532
28.484003999999995,3.7742090078692887,0.1518032147469797
28.488592,3.8163026781925518,0.15125286650678935
28.49318,3.8583963485158153,0.15072241254141727
28.497788,3.8982024110872,0.1502966371193586
28.502376,3.937109039210937,0.14989180578016778
28.506972,3.9778145362299697,0.1494506516616825
28.511564,4.016476794925416,0.14908140007441462
28.516151999999995,4.05321800001142,0.14878535637228285
28.520748,4.088282520916274,0.14852519480105156
28.525331999999995,4.121914727068271,0.1482781481105759
28.529924,4.158489605991501,0.1479305517187978
28.534503999999995,4.196574842933108,0.14750211142450967
28.5391,4.23706987234074,0.1469758738996211
28.54368,4.273844979243633,0.14655447494936588
28.548284,4.312785509184259,0.14605939567654444
28.552876,4.352092593267323,0.14553410812811085
28.557472,4.39213278563526,0.14495766795748308
28.562052,4.43409403161264,0.14434587248941985
28.56664,4.469226356151273,0.14386305851595485
28.571228,4.4992064434323105,0.14348369996062085
28.57582,4.5286536504081365,0.14308920639111933
28.580407999999995,4.554503119593372,0.14277245630287028
28.584992,4.573934362930927,0.14259635822887246
28.58958,4.594875964286857,0.1423414953254553
28.594176,4.618760238414022,0.14200948760114765
28.598768,4.637614459997737,0.14175586699341652
28.60336,4.658101224313975,0.14141329176834527
28.607952,4.678177293039147,0.1410471276847332
28.61254,4.6977204814591085,0.14066546056191026
28.617124,4.717752408735652,0.14024498322307288
28.621708,4.7374958251352774,0.1397894465546061
28.626296,4.752619884582518,0.1394358177124591
28.630908,4.763368956505664,0.13916321186173178
28.635496,4.7765278208948345,0.1388007747083506
28.640096,4.7862111322075584,0.13849930168344704
28.644684,4.791152901853752,0.13830600694702483
28.649272,4.790331510671622,0.1382511481854118
28.653863999999995,4.7843578822318955,0.1382764802405974
28.658452,4.7783842537921695,0.13830287293861404
28.663048,4.772777179494881,0.13829525989327207
28.667636,4.767903213482466,0.1382200794937354
28.67224,4.7633958016124875,0.13811139764628738
28.676828,4.764895919999125,0.13784333951761896
28.681428,4.766396038385762,0.13757661535454815
28.686016,4.7624995500865115,0.1374120018220693
28.69062,4.7560269431584645,0.1372871643396163
28.695212,4.746733848173328,0.13722560730403627
28.699808,4.734498080416956,0.13723894115375737
28.704391999999995,4.723528301250669,0.13719916498812026
28.708976,4.705118677074908,0.13732199913825133
28.713564,4.685154553432143,0.1374538685060839
28.718156,4.665556983931816,0.1375548909532096
28.722743999999995,4.646325968573924,0.13762080725586393
28.727328,4.622719965691939,0.1377611100411215
28.731915999999995,4.597437278628805,0.1379281083371634
28.736516,4.571866080688749,0.13806311851516623
28.741104,4.5446181985675445,0.13823065618606126
28.74568,4.516348697284547,0.1384343194379564
28.750276,4.488567934858132,0.13859252822204024
28.754856,4.455923446051039,0.138890253630222
28.759447999999995,4.41817086143498,0.13934937508455628
28.764036,4.38156208069486,0.13975950758293304
28.768624,4.338535074107059,0.14032184523454666
28.773232,4.295097371928193,0.14084243881968028
28.777819999999995,4.253825092787061,0.14129408716829736
28.782412,4.219093224207754,0.14158566586298288
28.787004,4.182684671447298,0.14191488853352835
28.791592,4.1454988689533385,0.14226293603750015
28.796188,4.106147643421647,0.14268413376513325
28.80078,4.072315209289988,0.14298070840373978
28.805371999999995,4.037094601854099,0.14335302181762327
28.80996,4.0026512441517115,0.14372159253666464
28.81456,3.962733236497919,0.14432572808715366
28.81914,3.9224486747016902,0.14498789201137943
28.82374,3.8837186123724656,0.14564423080070324
28.828332,3.8512845911767757,0.14613708011621
28.832928,3.8205272541622364,0.14661476170890542
28.83752,3.7915687860429927,0.14705505080390427
28.842116,3.7650642518384005,0.1474495387510808
28.846712,3.7451001281956353,0.1476577472915855
28.851303999999995,3.730899165381194,0.14768440593022986
28.855908,3.716087278996024,0.1477801736541583
28.860503999999995,3.7102697370873337,0.14764369080936124
28.865096,3.701920217998473,0.14763745099041287
28.869696,3.697168436700203,0.14753811330784822
28.874284,3.6924166554019346,0.14743777239123088
28.878872,3.694982534398993,0.14714919396395076
28.883448,3.7043331933861703,0.14665785981584878
28.888032,3.7138060370874926,0.14615094823494407
28.892616,3.725854999417613,0.14560067194021703
28.897196,3.7428898728425555,0.1448957551040704
28.901788,3.7658100918099677,0.14402937906412822
28.906372,3.7979248832335215,0.1428448406557958
28.910948,3.837846073808986,0.1414425695326597
28.915548,3.881853741031625,0.1399214191652313
28.920127999999995,3.923818169930677,0.13849739198878264
28.924724,3.970646325210405,0.1369440903051144
28.92932,4.021438772423162,0.13529319413994298
28.933908,4.071986850207627,0.13368489137250034
28.938504,4.124578166315679,0.13206026966676618
28.943088,4.176392232690229,0.1304736129013595
28.947688,4.228817222635508,0.12882976359320342
28.952276,4.276989409770838,0.1272908446217826
28.956872,4.329492442981634,0.12561416692045557
28.961455999999995,4.379297172849487,0.12401840068196808
28.966056,4.425626349640894,0.1224914863852812
28.97064,4.469379407803504,0.12103825080500709
28.975231999999995,4.508268739585436,0.11972424792896734
28.979844,4.5508779938721045,0.11835171281052378
28.984436,4.592177118120062,0.1169891093627559
28.989035999999995,4.628856885415634,0.11572604839936931
28.993628,4.6609172957588205,0.11457467745957271
28.998216,4.693099890816153,0.11344354623523133
29.002816,4.71874207531166,0.11244337259125131
29.007404,4.741685956464222,0.11149585675220812
29.011996,4.763197522863925,0.11054512743441465
29.016584,4.783398959224916,0.10959316412547215
29.021184,4.802045896118902,0.10865976359393793
29.025768,4.818849822668965,0.10769061141484468
29.03036,4.828213904209553,0.10683631509499307
29.034952,4.833858063245406,0.1060363972482408
29.039532,4.839624406995403,0.10522915235793012
29.044124,4.840771393793016,0.10448132314241661
29.048712,4.835255785314656,0.10383840366507693
29.0533,4.8243435701504085,0.10325533996544262
29.057912,4.812165366396076,0.10271024859181545
29.0625,4.792302948203979,0.10229305330429493
29.067092,4.765245054430699,0.10196439078063407
29.07168,4.7302144353427344,0.10172570039192338
29.076267999999995,4.68954284014059,0.10157448476220846
29.080863999999995,4.64515132243371,0.10148375621572314
29.08546,4.592298340555562,0.10154280619655043
29.090052,4.5286962867542675,0.10182439720902603
29.094632,4.462151560181739,0.10217970029382828
29.099232,4.3890664230473835,0.10266194746401022
29.103816,4.311484113674789,0.10321923571383199
29.10842,4.227894274045577,0.10391610238896025
29.113012,4.136131481122019,0.10484890234517726
29.117612,4.040815091856498,0.10593590690410769
29.122204,3.947541940914564,0.10698096212530629
29.126795999999995,3.8541466052584834,0.10805887720343116
29.131376,3.757564227402877,0.10923672323996787
29.135972,3.6625363490142746,0.11044939694041603
29.140564,3.5722500122922023,0.11156261854938268
29.14516,3.483762544465427,0.1126869533480283
29.149743999999995,3.3947421963334405,0.1138141108835471
29.154332,3.314549866515158,0.11470841435502778
29.15892,3.2435962506016454,0.11542833146978579
29.163519999999995,3.174197134155138,0.11617780182671184
29.168104,3.105453082727987,0.11697772044771994
29.172696,3.0410840188249293,0.11773095966401413
29.177292,2.984932049664848,0.11833685802326291
29.181868,2.9364642949425317,0.11875509152913609
29.186464,2.894536950782043,0.11900638372587505
29.191044,2.860704516650384,0.1190895034365411
29.195632,2.8365214920145605,0.11898690641263088
29.200223999999995,2.81671345490283,0.11880641222146891
29.204812,2.8036901977812168,0.11842347338537293
29.209416,2.7988840354025806,0.11784187294226582
29.214012,2.791545895843775,0.11739581438488159
29.2186,2.7875611246472687,0.11689846229524363
29.223192,2.785253037631912,0.11637075641356934
29.227788,2.790140426197739,0.11567790267211575
29.23238,2.7932730873168987,0.11512588572071913
29.236968,2.804011919608306,0.11445746880677046
29.241568,2.8214574886243127,0.11369514717733997
29.246148,2.8370261454795074,0.11310559266947222
29.250736,2.855459431840419,0.11255759841454792
29.25532,2.886240431040109,0.11179846923880668
29.259916,2.9247497861261933,0.11091917623247298
29.264496,2.9685335631840184,0.10996520047962288
29.269088,3.0163257736235,0.10901006907049883
29.273684,3.069025851892286,0.10804898077891562
29.278272,3.123036060199785,0.10715460832246565
29.28286,3.179378017707791,0.10629535289752454
29.287448,3.234331801911566,0.10555566622218286
29.292036,3.2925167697634956,0.10481334562680192
29.296636,3.353810736549434,0.10408639192381043
29.301224,3.4148603339070807,0.10342315369517371
29.305807999999995,3.487069698778939,0.10255775084235076
29.3104,3.5646756703366846,0.101646952294747
29.314988,3.6474338791520258,0.10069300114719675
29.31958,3.729048284091428,0.09982799015559747
29.324168,3.819246337916243,0.09881727810260646
29.328755999999995,3.9123870645122936,0.09781147383413227
29.333359999999995,4.002340748908817,0.09690750757706414
29.33794,4.096136540524224,0.09595173594197212
29.342528,4.188377832672627,0.09502760630676153
29.347112,4.273423649239846,0.09424597058323869
29.3517,4.358058770216001,0.09346237418666498
29.356296,4.4428160759063005,0.09270584795538293
29.360883999999995,4.52536381711024,0.09195796963409647
29.36548,4.606357058847174,0.0912391133110543
29.370068,4.682975313060015,0.09056218706083208
29.374668,4.758161252519997,0.08989555972812299
29.379256,4.828072770008238,0.08927048717955373
29.383856,4.895530353581827,0.08865936078720546
29.388448,4.961677807116703,0.08803839442142795
29.393044,5.024716261717571,0.087422065137818
29.397635999999995,5.078516002413668,0.08691694069336249
29.402232,5.127041321138024,0.08646246431698976
29.40682,5.17360144480431,0.08598569327506857
29.411416,5.214232081479499,0.08553334205155265
29.416008,5.24496893923056,0.08516606478139906
29.420596,5.26286934528626,0.08491506596707976
29.42518,5.28276884821692,0.08457723543243396
29.429768,5.2995593522135716,0.08423609243706799
29.434356,5.313240857276214,0.08388765150952578
29.438948,5.3225473748147625,0.08356167346934133
29.443544,5.327356720115073,0.08326986521823901
29.448132,5.327013828157787,0.08299964769217
29.45272,5.326015871181144,0.08271952291550655
29.457308,5.317167373603961,0.08247428193264533
29.4619,5.311505918226304,0.08217677282165049
29.466496,5.301591660038699,0.08189041073003435
29.471084,5.296130432640708,0.08152059761536773
29.47568,5.289481259918147,0.08111847625313147
29.480268,5.281277587728583,0.08071099358272645
29.484864,5.271152861929576,0.08032131406611509
29.48946,5.265481166920182,0.0798502416618526
29.494048,5.258377157157929,0.07936384650874588
29.49864,5.246653790443291,0.0789104802568521
29.503219999999995,5.238772530947536,0.07841821123147831
29.50782,5.234977748098953,0.07787030250419234
29.512408,5.2383342993829265,0.07722306506408179
29.517008,5.2378487434480165,0.07661402939547439
29.521596,5.232621645846576,0.07604381241609004
29.526195999999995,5.230092851588079,0.0754610030154051
29.53078,5.229607295653169,0.07484813218615796
29.535372,5.227567240251256,0.07422375377487542
29.53996,5.223850500668192,0.07359631253929014
29.544552,5.217313273028038,0.07299043837282809
29.54914,5.219237509559153,0.0723189182080018
29.553732,5.219362877194971,0.0716596335153262
29.55832,5.2181000715265595,0.07103408487897102
29.562912,5.214016777801058,0.07043156797660856
29.5675,5.209689114647267,0.06984481905651718
29.572099999999995,5.20433983233168,0.06926992340806032
29.576688,5.200911603625536,0.06867727377045377
29.581264,5.195440136595804,0.06811161149010797
29.58586,5.190090854280218,0.06753593033758559
29.590448,5.188339309755223,0.06694513396732095
29.59504,5.186587765230229,0.06635723339703266
29.599628,5.183814601543441,0.06578280966966275
29.604208,5.179775449266568,0.06523818611571824
29.608816,5.182398892265668,0.0646525417595764
29.613404,5.190663311378944,0.06403296003871525
29.618008,5.195207807987485,0.06343408166629344
29.622596,5.204616030976701,0.0628032021193407
29.627184,5.219420860651805,0.062160329981008774
29.631788,5.238600677851003,0.06151552732250709
29.636384,5.2616226022690835,0.06084908339162037
29.640988,5.2777375619829,0.060242580148981116
29.64558,5.290909848925482,0.05965739724644227
29.650179999999995,5.310089666124679,0.05902168487568579
29.65476,5.3277591253055,0.0584272623408588
29.65936,5.346328018933969,0.05783237932095705
29.66394,5.365019097276584,0.05723018205710876
29.66854,5.385753413942786,0.056614116861758094
29.673132,5.4072649803424895,0.05600880012087166
29.677728,5.430086676780907,0.05543535528279882
29.682312,5.453274927361761,0.054844303003225466
29.686903999999995,5.472621070723733,0.054274876128914316
29.691504,5.489801791047971,0.053731721638118346
29.696096,5.507759761105712,0.05319821802204152
29.700696,5.513947040078513,0.0527400538505465
29.705288,5.5142489735088445,0.052318498801767324
29.709868,5.514306537510884,0.05191043830311777
29.714452,5.5047588334657185,0.05154942798960899
29.719031999999995,5.4886707188587245,0.05120825945424647
29.723616,5.468984866461139,0.0508685405676229
29.7282,5.441492614911644,0.05056972612471876
29.732788,5.4132231136286455,0.05025888256058804
29.737383999999995,5.387651915688591,0.04994369698635785
29.741972,5.3561953722060665,0.049661099900029204
29.746564,5.323961578990041,0.049367933407242104
29.751148,5.286864059393338,0.04909719944097753
29.755735999999995,5.2476011167589025,0.04884725834827374
29.76034,5.1977112869154665,0.04864428917098699
29.764928,5.140381612062556,0.04845404800760398
29.769516,5.075856461628464,0.04826066579479737
29.77412,5.001115119576435,0.04815061552041037
29.778711999999995,4.925229973648468,0.048054393304003094
29.783304,4.845624905215765,0.04796464564432449
29.787896,4.761522664544821,0.04786826549033951
29.792492,4.6824063349687,0.04773321309745809
29.797083999999995,4.605211059002018,0.04758572081758386
29.80168,4.526216914140043,0.04743303411665932
29.80626,4.448777268745071,0.047296638613830794
29.810859999999995,4.368028396436428,0.04720806095839461
29.815444,4.282293613032962,0.04715409366142828
29.820036,4.198235513810647,0.047111450342134625
29.824624,4.11393304516004,0.04708487533041576
29.82922,4.0230901659476075,0.04707402200316412
29.833804,3.9275057450686433,0.04708438878163076
29.8384,3.8300002705802383,0.04710312821043558
29.842987999999995,3.734293664987129,0.04712222024356105
29.847576,3.637565440232226,0.047150120955213475
29.852164,3.54737762603915,0.047155067965700334
29.856756,3.461564799370167,0.04717009349766933
29.861339999999995,3.3771842874540425,0.04722695094871261
29.86592,3.2989334905086802,0.04721322069351141
29.870504,3.2235031816204067,0.04718329322764201
29.87508,3.1490944918939263,0.04713516112716384
29.879668,3.0736641830056524,0.047088743523138674
29.884264,2.9943917668984956,0.04706002370960227
29.888852,2.9124210474483956,0.04701983307515592
29.893439999999995,2.8313497624459436,0.046969758604386645
29.898032,2.7496234124241345,0.04688365253636515
29.902619999999995,2.673782407944795,0.046743343017572554
29.907215999999995,2.5987186531989583,0.04662512052222902
29.911796,2.5247987023290603,0.046468487140727176
