Time,Force,Position
21.590348,0.09832197983546538,0.0
21.594936,0.09766691481610887,0.0
21.599532000000004,0.09623460006325017,0.0
21.60412,0.09570171975803934,0.0
21.608712,0.09058858927887217,0.0
21.6133,0.08878972038357648,0.0
21.617892,0.08547545879970503,0.0
21.622488,0.08396006611112927,0.0
21.62708,0.08244467342255352,0.0
21.631676,0.07720935822924067,0.0
21.636264,0.06800975110289943,0.0
21.640860000000004,0.06253006648129526,0.0
21.645436000000004,0.05615094741204323,0.0
21.65004,0.04772859001920416,0.0
21.654636000000004,0.03726299430277804,0.0
21.659236,0.027941202462291117,0.0
21.66382,0.019641029783597715,0.0
21.668416,0.012240291552552168,0.0
21.673004,0.007782226092741516,0.0
21.6776,0.006144648690020089,0.0
21.68218,0.005406505734946513,0.0
21.686768,0.003891113046370757,0.0
21.691356,0.0022535356436493305,0.0
21.695944,0.0006159582409279038,0.0
21.700536,0.0006159582409279038,0.0
21.705124,0.0,0.0
21.709712000000003,0.0,0.0
21.714304,0.0,0.0
21.7189,0.0,0.0
21.72348,0.0,0.0
21.728072,0.0,0.0
21.732668,0.0,0.0
21.737256,0.0,0.0
21.741852,0.0,0.0
21.746448,0.0,0.0
21.751036,0.0001713608329733701,0.0
21.755632,0.00017136083297337006,0.0
21.76022,0.00017136083297337006,0.0
21.764816000000003,0.0001713608329733701,0.0
21.769396,0.0001713608329733701,0.0
21.773996,0.0001713608329733701,0.0
21.778584,0.0008314605225294253,0.0
21.783184,0.006355286592761752,0.0
21.787768,0.012656362396496259,0.0
21.792368000000003,0.018058003752582912,0.0
21.796956,0.022682395375167388,0.0
21.801552,0.026162983121812672,0.0
21.806144000000003,0.03258624363969285,0.0
21.810736,0.03708845054813165,0.0
21.815328,0.04236790719007264,0.0
21.819916,0.045848494936717915,0.0
21.824504,0.0532153313508741,0.0
21.829092000000003,0.0641460037387323,0.0
21.83368,0.08121663072909138,0.0
21.838272000000003,0.10075143126584145,0.0
21.84286,0.12323410953536565,0.0
21.847456,0.1545261786036435,0.0
21.852048000000003,0.19367902790419944,0.0
21.85664,0.23901597325588353,0.009713484941305375
21.861224,0.28669490743981285,0.02016509832551432
21.865808,0.3397806879413681,0.030663912851022296
21.870388,0.3954477920332604,0.04162553638089202
21.874984,0.447327169986637,0.05344754727643322
21.879568,0.5037581012586198,0.06547001565261924
21.88416,0.5698928231068044,0.07721504667108996
21.888756,0.6421777391892278,0.08931404455053078
21.893344,0.7222453922384119,0.1014939855861291
21.897948,0.8030666328359474,0.11412315979428196
21.902544,0.8914262409719522,0.12692234020073703
21.907152000000004,0.9848702827317741,0.13980361607560046
21.91174,1.0849532575824175,0.15288211688748704
21.916332,1.1833697878836498,0.1662509294426402
21.920924,1.281297579328299,0.1796751605330099
21.925528,1.3757498176965017,0.19311749187670812
21.930108,1.4728120765103916,0.20625873200005784
21.934708,1.56937535683596,0.21930431646521478
21.939308,1.6532582719972022,0.2329234560517971
21.943908,1.7328001014512402,0.24635094621179224
21.948500000000003,1.8085337255032845,0.2500213985925086
21.953088,1.8881433585911014,0.2525486548460242
21.957692,1.9663987201915771,0.254877552678799
21.96228,2.0486522755419703,0.2563045550040228
21.966868,2.1365365673748036,0.2564676548880231
21.971464,2.222567609231974,0.25622040697814874
21.976056,2.300938098836529,0.2561511321251051
21.980644,2.3773670555681656,0.25543840077755575
21.985232000000003,2.4485452525132114,0.2545099879915195
21.989824,2.5172931777287553,0.25302024712449883
21.994412,2.582955766195441,0.2511416814358458
21.999008000000003,2.6430010407330995,0.24914153965565045
22.003604000000003,2.701271108560612,0.24674473849991707
22.008184,2.7605084144695518,0.24384693130541857
22.012788,2.8122956357372786,0.24110050704616554
22.017376,2.859863956011946,0.23839056407972828
22.021972,2.9017030172751794,0.2359897471067006
22.026568,2.9421878070510714,0.23357914633583524
22.031148,2.9900241589391814,0.23036359994753514
22.035760000000003,3.0327863168352134,0.2273908446910297
22.040348,3.0744385726721957,0.22436038281220883
22.044952,3.108073961745864,0.22182390619611583
22.049544,3.138145514845831,0.219362366989402
22.054124,3.157257528411249,0.21754112845861742
22.058724,3.1708066091280074,0.21603823031393365
22.063312000000003,3.182023940644258,0.21466126573162359
22.067912,3.1931190874463637,0.2133200079681119
22.072492,3.2034811259635956,0.21213743832730003
22.077088000000003,3.2171965328431265,0.21084506002318743
22.081676,3.2324664391896625,0.20952805005525585
22.086272,3.251744778917855,0.2081332502959288
22.090864000000003,3.2776857139220192,0.20645478076787296
22.095464,3.3026050297643907,0.2048788942680889
22.10006,3.329201029787912,0.2033106994720013
22.104660000000003,3.3670789820397897,0.20125671403377318
22.109256,3.412641148729433,0.1989003440479067
22.113844,3.4649880954091934,0.19630254884716164
22.118432,3.5192560956983963,0.19368551781136073
22.123036,3.571603042378157,0.19122478486814387
22.127628,3.6288137154385947,0.18858115572808298
22.132228,3.685491508193821,0.1859634660075373
22.13682,3.7475217661863067,0.18310608701172387
22.141412000000003,3.8086525897311443,0.180296879853581
22.145992,3.8752580632273856,0.1771807897632043
22.150588,3.936833484180179,0.1741914764016629
22.15518,3.9952999061989622,0.17127445913434347
22.159764000000003,4.052700567607324,0.16835514591626471
22.16436,4.103638861719377,0.16559609495439695
22.168948,4.147337538801619,0.1630522133259595
22.173544,4.18404096828234,0.16064511647328336
22.178132,4.210562107962017,0.1585523356698782
22.182720000000003,4.227433838145859,0.15677851262506756
22.187328,4.239397700500396,0.15511085499186184
22.191920000000003,4.241712153359097,0.1537165902073239
22.196512,4.238874368960203,0.15248062956384995
22.201096,4.224999001761243,0.15157692958814542
22.205684,4.202129290085805,0.1509171323130209
22.21028,4.174107341152772,0.15036820529907868
22.214872,4.140810970247997,0.14994511433679594
22.219476,4.100319123762039,0.1497067350875706
22.224052,4.054186301161902,0.14964190509765987
22.228652,3.9988147646569967,0.14984424728012402
22.23324,3.942010913399232,0.15004615984286407
22.23784,3.8816093243508756,0.15032462305321512
22.242432,3.821207735302519,0.1506255535930407
22.247032,3.7597845270923695,0.15097411711968783
22.251616,3.6952964613968398,0.1514440403496699
22.256204,3.6324850798824593,0.1518910022413796
22.260796,3.562277994807233,0.15275021243523682
22.265392,3.4927701161999907,0.15374173264522023
22.26998,3.4200751953932227,0.15497952930932368
22.274576000000003,3.343826678244491,0.1565365786061725
22.279168,3.269132660562765,0.15808639301656696
22.283752,3.196648207367399,0.15968834748735763
22.288336,3.1199550928107134,0.16151421660899765
22.292924,3.0502130844069186,0.16310600399590022
22.297516,2.9816590213276917,0.1647633708412556
22.302092,2.9162139571824732,0.16633581968609512
22.306688,2.8568205647424993,0.16768908330212762
22.311276,2.8014356056841816,0.16896590288748536
22.315868,2.75120288388346,0.17009765958267264
22.320456,2.70677746435969,0.17108966866226302
22.325044,2.6634178054463415,0.17213357554481507
22.329652000000003,2.6220233415910625,0.17318312848048412
22.334244,2.588235048908032,0.1739639963564037
22.338832000000004,2.5583330048925124,0.1746651967909803
22.343424,2.529863275629851,0.17537636590850514
22.348012,2.501682057244109,0.1761711962395598
22.352608000000004,2.488136159449024,0.17631834986135164
22.3572,2.480886302787474,0.1761877206762563
22.361792,2.48214205174582,0.17573470178385805
22.36638,2.489816026551847,0.17494554200108606
22.370980000000003,2.4957352739112064,0.1743393693585064
22.375564,2.5034533901658613,0.173630463966331
22.380168,2.508106648935136,0.17310317224725266
22.38476,2.5053200626949357,0.1730124452802205
22.389360000000003,2.5003680534170036,0.17310299794184145
22.393944,2.4906745024725403,0.17351408363962106
22.398528,2.477671724614405,0.17420534784059422
22.40312,2.4652018270614806,0.1749154957069479
22.407712000000004,2.4614819045567438,0.17513268579418662
22.412304,2.4599715465383682,0.17529792848253944
22.4169,2.464268490796944,0.1752294074677032
22.421488000000004,2.474372737332472,0.17494842916109768
22.426076,2.4810455722401827,0.17493756933798693
22.430664,2.489028537186607,0.17493154777551115
22.435256000000003,2.5025744349816916,0.17476425789718453
22.439852,2.5265469920061134,0.17419691263085618
22.444448,2.5515853096409566,0.17373243029117946
22.449040000000004,2.583452548714546,0.1731101497833551
22.453624,2.622393078655173,0.1723030379283863
22.458216,2.668939779768047,0.17133626430247761
22.462808000000003,2.728567302004574,0.16991814151765683
22.4674,2.794901560965701,0.1683738929676465
22.471996,2.875504586375048,0.1663743028725757
22.476584000000003,2.9682109551948823,0.1639911386937217
22.48118,3.074653210157726,0.16116284431343858
22.485768,3.193443177959348,0.15797840244456823
22.490356,3.3204502405039467,0.15457543442735328
22.494952,3.4512994102674277,0.15110691315501948
22.499544,3.5748309197355805,0.14816131020200662
22.504148,3.7024489058509076,0.14518797274841946
22.508744,3.82965619637517,0.14235173955687333
22.51334,3.9556755415748643,0.13967110170936298
22.517920000000004,4.091011643944846,0.13676352665311364
22.52252,4.228635354066705,0.13384109839590344
22.5271,4.37287751801591,0.13085890285478113
22.5317,4.511434564402307,0.1281406359403383
22.536284,4.647904231016489,0.1255385738679496
22.54088,4.776889911172568,0.12319630932329131
22.545468,4.899168854604048,0.12106281415562328
22.550064,5.015762680472721,0.11907606967208353
22.554652,5.12630483463615,0.11729711683202504
22.559248000000004,5.233082924846213,0.11558376473659383
22.563836,5.334298082207617,0.11398486499765864
22.568424,5.434936217815181,0.11238940100221605
22.573012,5.525025509479263,0.1109737022402814
22.5776,5.606731380237594,0.10966912467457492
22.582188,5.684551002328415,0.10841872807044321
22.586776,5.761182679094667,0.10717940356090158
22.591368000000003,5.833683737765118,0.10596276520867919
22.59596,5.8991115055685315,0.1048409722604278
22.600556,5.958365416952557,0.1037912156451654
22.605136,6.01426595997428,0.10278436625344983
22.609724,6.05798511632,0.10195215895367526
22.61432,6.0997390776076506,0.1011142061941175
22.618908,6.127757152752292,0.1004363986649481
22.623516,6.153443478696426,0.09976635912413337
22.628104,6.173322502363608,0.09912398830213849
22.632692,6.189481603526053,0.09852312080676287
22.637288,6.20420838993564,0.0979182629499805
22.64188,6.2191795457735175,0.09730377327835746
22.646476,6.226955226030212,0.09675078136713472
22.651056,6.234730906286907,0.09620267296281065
22.655656,6.238664479324719,0.09570173252919156
22.660244,6.232992784315324,0.0953120055211969
22.664844,6.232307000400751,0.09485900330099016
22.669432,6.231743401200324,0.09439891866270653
22.674032,6.225661010599865,0.09398699407724835
22.67862,6.216513762514023,0.09361892950123049
22.683212,6.2121080560947135,0.09320279060105499
22.687804,6.210889391874931,0.0927382783829949
22.6924,6.2136350195881755,0.09222669078321993
22.697004,6.212538540082537,0.09175434521469669
22.7016,6.213607483614631,0.09124459141964317
22.706188,6.210589950499551,0.09079041268775788
22.710788,6.211047970460917,0.09031692211416432
22.715368,6.211261620993993,0.08985928263915452
22.719956000000003,6.218548562394104,0.08936383759962643
22.724544,6.227756557403658,0.08884842455100322
22.72914,6.23839686716607,0.08834687808746794
22.733736,6.245317254423745,0.08787719234280363
22.738324,6.25366995643428,0.08741451143698153
22.74292,6.263288647034899,0.08692939203813486
22.747508000000003,6.274950575959103,0.08641967417293277
22.752104000000003,6.294296719321075,0.08583805320312231
22.756692,6.310700189911811,0.08529516951569834
22.761288,6.328003094950195,0.08475032830596944
22.765872,6.348004303331523,0.08418907583521515
22.770464,6.368372065855288,0.08360838515634608
22.775068,6.387063144197903,0.08303542175575927
22.779656000000003,6.402811549769282,0.08249541958833259
22.784244,6.417660520893015,0.08196545174895872
22.78884,6.4344305456261885,0.08141692516271505
22.793432000000003,6.455042677578244,0.08084065412111069
22.798028,6.478719667015681,0.08023100453296815
22.802608,6.5028853953097,0.07959605308886948
22.807208000000003,6.527173308317865,0.07895672671149724
22.811796,6.546308984068434,0.07833653429383484
22.816396,6.566832833123234,0.07768865024597821
22.820988,6.585147117691673,0.07702874669748257
22.825588000000003,6.606526259745492,0.07633826087326567
22.830176,6.63158118285542,0.07558282332019971
22.834760000000003,6.6529161834606105,0.07485583889722632
22.839356,6.674739922922385,0.07410810900706445
22.843944,6.693332478736005,0.0733629286188147
22.848536000000003,6.708327296759033,0.07263146184774959
22.853124,6.723566484210353,0.07189157882602017
22.857712,6.742114898575344,0.07111561352152067
22.8623,6.762584366549777,0.07033285370167823
22.866892,6.782931649810064,0.069559699991272
22.871488,6.808142659451028,0.06876005791890838
22.876076,6.829633746587254,0.06797894573861923
22.880668,6.855455679798945,0.06715498491252689
22.885264,6.8775576905059,0.06635401165423876
22.889852,6.901947308964734,0.06553222234440303
22.894452,6.9260925579952755,0.06472675702630107
22.899032,6.949460557292315,0.06391928912713968
22.903624,6.971562567999269,0.06313274656382045
22.90822,6.9905997212208435,0.06237383464605916
22.912812,7.010536308890066,0.06161563081346716
22.91742,7.033293384616377,0.060854972560787486
22.922008,7.057482775095546,0.06011782590614986
22.9266,7.080650546412923,0.059388518234499206
22.931196,7.101530709978421,0.05869070651023088
22.935788,7.120245450506186,0.05801613291754244
22.940384,7.139737440767454,0.0573438027581366
22.944972,7.156408942971634,0.056683693388796336
22.949572000000003,7.167972349366844,0.0560636502571632
22.954152,7.172750975771936,0.05547496163637279
22.958752,7.1767523524435255,0.05488174617176371
22.96334,7.170249026620261,0.0543283779268891
22.967944000000003,7.165544569692292,0.0537707435397494
22.972532,7.152422790041683,0.053279733428937825
22.977132,7.1352145337439,0.052812479844094165
22.981728,7.106890651380533,0.05241118365575069
22.986324000000003,7.070882554579402,0.052035538897698214
22.990912,7.03463008834998,0.051669340839317096
22.995504,6.998377622120557,0.0512997337330068
23.000096,6.957383614224604,0.05093962290334644
23.004692,6.9084610224625935,0.05061610073584139
23.00928,6.8498109779392315,0.050331006315224164
23.013876000000003,6.781555665368662,0.05007784374882523
23.018464,6.710357680026857,0.04983273611166137
23.023052,6.631231110818995,0.049625362671596056
23.02764,6.547651510821524,0.049461604342902726
23.032236,6.4594525538716665,0.04929999000112717
23.036832,6.365123881951049,0.04917543415646897
23.04142,6.265154233916252,0.04906061697899233
23.046012,6.164162966719662,0.04894821951577693
23.050596,6.05626473481881,0.04886586736740853
23.055176000000003,5.949921002384961,0.048794139046092797
23.059772,5.837814109122789,0.0487380557805431
23.06436,5.723253281945963,0.04866617218345964
23.068956,5.606893585873843,0.048590181991952454
23.07354,5.496297050630046,0.048487298507415275
23.078128,5.389542622605132,0.04836302754755835
23.082728000000003,5.275226164856599,0.04825633590540459
23.08732,5.155268730993886,0.04815691701618129
23.091916,5.037765231045826,0.048068899825772234
23.096508,4.9229600344407105,0.04797883870655794
23.101104,4.803413296169065,0.04790326242311654
23.105692,4.684888177059213,0.04781394163188153
23.110284,4.56239876601633,0.047747696320459
23.114876,4.443995831620623,0.04763983125039023
23.119476,4.324160582472056,0.04749963274541438
23.124068,4.202159910285757,0.04738232158323918
23.128664,4.081958106994754,0.04726734585541517
23.13326,3.962411368723107,0.04717087150227616
23.137844,3.83979977296608,0.04710973681192791
23.142432,3.718987046104348,0.047046247985781046
23.147028,3.5954760158996732,0.04697976999386565
23.15162,3.4717206162667065,0.04693776744852719
23.156208,3.353484008033773,0.04686610335905123
23.160796,3.2378235184296376,0.04680146348422619
23.165384000000003,3.1156226182636755,0.04675008674021085
23.169972,2.9913784797741267,0.046713963477872815
23.174568,2.870854263789315,0.046651977440390735
23.179152,2.7508629281097137,0.046644360010803416
23.18374,2.6290727235348164,0.04663320117001716
