Time,Force,Position
27.708984,0.3467718291871884,0.0
27.71358,0.31516943880536796,0.0
27.718168,0.28446648287119536,0.0
27.722764,0.2622249911082904,0.0
27.727343999999995,0.23397596908877,0.0
27.731936,0.20740363125039962,0.0
27.736532,0.18442903120262064,0.0
27.741119999999995,0.15969659041934336,0.0
27.745724,0.1392981090003623,0.0
27.750312,0.12376335396205745,0.0
27.75492,0.11231507557092672,0.0
27.759508,0.10282887894903475,0.0
27.764095999999995,0.09232106316534924,0.0
27.768699999999995,0.08259049711516592,0.0
27.773288,0.07273774635083692,0.0
27.77788,0.060963941977066526,0.0
27.782472,0.05021175676508968,0.0
27.787072,0.04125844044840853,0.0
27.791656,0.033326743293520915,0.0
27.796252,0.03312651531385773,0.0
27.80084,0.036201612430977075,0.0
27.805432,0.041163861340648436,0.0
27.810024,0.05828383474117396,0.0
27.814616,0.08879361940574917,0.0
27.819208,0.14373079813443956,0.008344739131425057
27.8238,0.21774290568998622,0.01657181213807879
27.828392,0.3077650845870086,0.024903454248304917
27.832984,0.4195194674940335,0.033060710629706516
27.837572,0.5513672851008773,0.04101301343583393
27.84216,0.701634966515221,0.04885178647343543
27.846748,0.8737980648135102,0.05660773029347895
27.85134,1.0706360398930366,0.06426432573562682
27.855928,1.2874483782470671,0.07191921870177143
27.86052,1.5210480376760758,0.07968022159051566
27.865116,1.7782197981701797,0.08735666818673557
27.869704,2.0584307794241683,0.09495025250321582
27.874292,2.3592711889720177,0.10254939661727352
27.878884,2.6804525159368082,0.11012548054753607
27.883464,3.0218525756043944,0.1176892272197601
27.888072,3.3786825715707858,0.1252420162288551
27.89266,3.749224791495036,0.13280512994703925
27.897264,4.135844886394541,0.14032958974894327
27.901852,4.520822198929787,0.14782032292004205
27.906452,4.895685025297765,0.1552859437845496
27.911044,5.256913670973403,0.15436072940934675
27.915636,5.599067387822185,0.15355318115891523
27.920232,5.924311598881843,0.1526345702920996
27.924824,6.22639440446747,0.151936112878225
27.92942,6.505726500170133,0.15147787947811414
27.934,6.763451689865768,0.15115756055265092
27.9386,7.002879200468052,0.15088008696951957
27.94318,7.220000598595323,0.15067574114669566
27.94778,7.415593133981086,0.15048199516301725
27.952364,7.597052510186187,0.1501144712789925
27.956959999999995,7.754529089735127,0.149816260480657
27.961552,7.885368710733591,0.1496444924964607
27.966148,7.994146588685335,0.14946939938549736
27.970735999999995,8.07857511583848,0.14934638602296968
27.975336,8.13979809606897,0.14924721129709345
27.979912,8.178592779110302,0.14916603904474227
27.9845,8.202687520848873,0.14901821829209602
27.989087999999995,8.21008322440972,0.1488777976511688
27.993684,8.207452724700556,0.14875543660314525
27.998276,8.19729409708466,0.1486646846954028
28.002868,8.182716340496041,0.148586442176259
28.007464,8.168382953335716,0.14849479352976933
28.01204,8.153272316441889,0.14840725539395289
28.016639999999995,8.145190828966468,0.14820370146350703
28.021228,8.139929829548139,0.14796074080943294
28.02582,8.1349131995581,0.14770415419724023
28.030415999999995,8.126176647063325,0.1474983580262836
28.035004,8.116584801569529,0.14733872786126798
28.0396,8.114188431656917,0.1470926644081239
28.044188,8.110936768745285,0.1468932313955467
28.048776,8.109650300891722,0.1467011358327855
28.053364,8.115681493333488,0.1464177459656957
28.057956,8.126987107746997,0.14607891686369318
28.062552,8.142956220561517,0.1457137157031926
28.06714,8.165509885386491,0.14529733755958985
28.07174,8.194892471650213,0.14481907698155186
28.076316,8.221743080733765,0.14440331765680275
28.080916,8.249126570122527,0.14399963209105177
28.085508,8.2803963081788,0.14357981754573862
28.090108,8.317228979083733,0.14312824891719778
28.094692,8.355005225884941,0.14270379429124355
28.099288,8.397156460210244,0.1422410845283181
28.103868,8.448302039012026,0.1416892632487887
28.108464,8.498181629223724,0.14117601666197646
28.11306,8.552924945816098,0.14060472161182258
28.117656,8.614330857684443,0.139956400282271
28.122244,8.679578876771672,0.13926197792914718
28.126832,8.747358873039069,0.13851514457220682
28.131424,8.807943393725285,0.13785065005645375
28.13602,8.867872849392144,0.13718825364795106
28.140608,8.925837110000932,0.13651960184670262
28.145204,8.979426383085627,0.13589550229698732
28.149796,9.029662287808023,0.13530257008330188
28.154384,9.080997854957731,0.13466082324632597
28.158984,9.127669923706424,0.13404127940289817
28.163564,9.164936952387574,0.13349545647398825
28.168147999999995,9.200238786010653,0.13293912472032549
28.172732,9.232920359556307,0.13237305657321793
28.177324,9.25836231607215,0.1318443361736758
28.181932,9.280651132205355,0.13129822877533742
28.186524,9.302485111298866,0.1307083199537886
28.191116,9.316957288648421,0.13016162128686024
28.195712,9.317527253692194,0.12972681000899625
28.2003,9.311390482011367,0.12933445386417552
28.204904,9.296870289424792,0.1289957402238802
28.209484,9.274621740951822,0.128712478373257
28.21408,9.247587509363694,0.1284477928161246
28.218656,9.2175664635557,0.12818497490672107
28.223256,9.187789787176,0.12790990580359413
28.22784,9.15376030798635,0.12766218398656537
28.23244,9.116133091006107,0.12744522588176463
28.237032,9.07899461288245,0.12720396025933636
28.241628,9.039935081149352,0.12698304240352445
28.246216,8.999609560826167,0.12678456402915764
28.250812,8.96365902802708,0.12655033352241557
28.2554,8.934903970809168,0.12625247778183768
28.259992,8.908725032220058,0.12593569699359394
28.264584,8.882590235079578,0.12564966853992107
28.269168,8.859564436873104,0.1253541031051487
28.273756,8.834661726505818,0.12511071415837718
28.278355999999995,8.806982669530072,0.12492720524203055
28.282944,8.782168242060042,0.12474627264118317
28.28754,8.76471561633397,0.12452952035499212
28.292131999999995,8.752048673723055,0.12429432055166713
28.29672,8.744045229513153,0.12404662515085789
28.301312,8.739928033970763,0.1237888910732259
28.305892,8.740229967401094,0.12353124699138511
28.310483999999995,8.745606094823502,0.12327880197345696
28.31508,8.75883276284645,0.12297227536765558
28.319668,8.780809405917587,0.12260442663085531
28.324272,8.816155380989295,0.12213639831532604
28.32886,8.855021050586076,0.12168032723191204
28.333459999999995,8.899816207173957,0.12119371408746991
28.338052,8.948253243001057,0.1207148081380716
28.342644,8.99571280111499,0.12028586134365897
28.34724,9.048735292077584,0.11985128994333168
28.351836,9.107320715888841,0.11940804417079617
28.356428,9.170936192243547,0.1189434645465114
28.36102,9.243179458932293,0.11843590260178212
28.36562,9.325316504545167,0.11786370724323683
28.370208,9.413260852434993,0.11726890775542059
28.374808,9.50737905674421,0.1166424445738493
28.379392,9.606238802719956,0.11598552160803056
28.383992,9.71049515538159,0.1153005871825185
28.388576,9.820148114729111,0.11459243721502492
28.393172,9.933276627153077,0.11387604215669903
28.39776,10.048692747328923,0.11313929185683501
28.402356,10.163043106894346,0.11239647615820714
28.40696,10.273018478935674,0.1116929676705607
28.411552,10.377352874862824,0.11104237345774445
28.41614,10.473225806618707,0.1104707924642788
28.420728,10.570076216087754,0.10987089012267069
28.42532,10.667781918555821,0.10925147205029709
28.429908,10.764011164822406,0.10860997556705702
28.434496,10.859663389335148,0.1079381738998722
28.439091999999995,10.945255508760992,0.10730834943690049
28.443684,11.027694487804197,0.10666454058713691
28.448276,11.107879760912414,0.10599878268586412
28.452876,11.178493667790312,0.10535468857379708
28.457456,11.238148035133662,0.10475254759688259
28.462036,11.29423856650331,0.10411744574590232
28.466632,11.337692874157261,0.1035221414916075
28.471219999999995,11.371331446152602,0.10295040565804932
28.475816,11.399362943850655,0.10236351978844162
28.480404,11.416923640870742,0.10179382311980381
28.484992,11.425157341088804,0.10122543865730654
28.489588,11.429094097048289,0.10064698989877582
28.49418,11.425791235977961,0.10007577747146111
28.498776,11.417047626773122,0.09950276533062777
28.503364,11.405395246613933,0.0988925728063527
28.507964,11.389934661052756,0.09824937003718384
28.512544,11.368911142642913,0.0976091746948486
28.517144,11.336683715270233,0.09700177506377869
28.521736,11.295950682277656,0.09641310936189598
28.52632,11.25157577004586,0.0958107606130457
28.530916,11.203558978574845,0.09519197994569444
28.535508,11.143971723998552,0.09461334664402188
28.540104,11.07743336326937,0.09405129460845714
28.5447,11.010362122234975,0.0934740635610367
28.549296,10.945700673666602,0.09286230046278025
28.553896,10.875398248984052,0.09227475016527573
28.558488,10.809304485662821,0.09164339104418133
28.56308,10.742066918465651,0.09101756638738356
28.567668,10.667922386564218,0.09043221548010216
28.572256,10.592634050786845,0.08985181284912153
28.576844,10.519022399190623,0.08926053379897544
28.58144,10.439403217337787,0.08870621690666357
28.586036,10.360072546361868,0.08816396254038086
28.590624,10.280619690671806,0.08761881872378331
28.59522,10.203254214753956,0.0870786290110927
28.599808,10.127976118608323,0.08654367541349671
28.604403999999995,10.052209283606109,0.08602024095260154
28.608992,9.9795514475379,0.08549422702201971
28.61358,9.914744152070234,0.08494072611844934
28.618172,9.849370074480467,0.08443385277443623
28.622764,9.792135048368158,0.08392151435441364
28.627372,9.747125550380481,0.08337248627579703
28.631955999999995,9.707801169955612,0.08281961007318063
28.636544,9.673018103217611,0.08227786538959928
28.64114,9.63545868987115,0.0817757011128646
28.645731999999995,9.60628269743044,0.08126341415750957
28.650328,9.586145190914836,0.08075099514158235
28.654916,9.573858224999768,0.08022003860487519
28.659516,9.570976299152248,0.07967375992748674
28.664096,9.572880056419885,0.0791312997701161
28.668696,9.580879626841392,0.07860905900672507
28.673283999999995,9.598650791472883,0.0780607976084148
28.677872,9.625416300580849,0.07748707513340537
28.68246,9.660809600022858,0.07690340787402918
28.687048,9.703276190331906,0.07630958426809184
28.69164,9.748074529841457,0.07572466853946093
28.696232,9.796104052999166,0.07514576532914999
28.700824,9.851984116757412,0.07455803048636078
28.705424,9.909951560287874,0.07399327906722929
28.710016,9.973804349360806,0.0733990251613931
28.714611999999995,10.037901507862028,0.07280280251374258
28.719196,10.10481915442034,0.07220687943781719
28.723796,10.177255592378685,0.07160250370401315
28.728384,10.24981421505118,0.07100064318779503
28.73298,10.332755355504379,0.07036577542796714
28.737572,10.41786191899531,0.06972518956879674
28.742156,10.499737298838088,0.06909175880996105
28.746752,10.581734863395011,0.06846338410735894
28.75134,10.666386589846251,0.06781358418261392
28.755928,10.755124792944665,0.06714806772858056
28.760512,10.839199497642065,0.06647304104192385
28.7651,10.920820268424814,0.06580343587318542
28.769692,11.000109290007055,0.06513645286024916
28.774284,11.073224455169905,0.06448211710942169
28.778872,11.14004357919922,0.0638451282142196
28.783468,11.211071364589857,0.06319139261112255
28.78806,11.279645216065841,0.06253679294692399
28.79266,11.34421063416017,0.06187985416758815
28.797239999999995,11.401947130815753,0.06122365563912712
28.80184,11.458373497432623,0.06056077101613662
28.806428,11.511446495687196,0.0598985422149067
28.811032,11.553604095855844,0.05925570327913202
28.81562,11.58688953626216,0.05862247986638349
28.82022,11.614001120249085,0.057992299190011934
28.824812,11.630319490864238,0.0573754452459123
28.829408,11.633679225069884,0.056780293881702956
28.833991999999995,11.626900810923114,0.05619932990230052
28.838588,11.611128052299863,0.055623793747713444
28.843184,11.581907918410524,0.05508192571708772
28.847784,11.54357125533056,0.054548095891360456
28.852376,11.504090788374656,0.05401935202801674
28.856976,11.45578230310505,0.05351438478153121
28.861564,11.399012353664174,0.053021340322018995
28.866147999999995,11.338278112290268,0.05253690467804668
28.870728,11.268838037316806,0.05206981361587821
28.875319999999995,11.182108479858371,0.05163915792724211
28.879916,11.091414630466906,0.0512160038986198
28.8845,10.988705720562212,0.05082979490093482
28.8891,10.881788149296197,0.050458031491221675
28.893676,10.761956083069306,0.05012292923727636
28.898272,10.633828878833917,0.049819292671373534
28.902856,10.502270262970713,0.049533678474106405
28.907444,10.363560312974954,0.04927063192231413
28.91204,10.218598463294288,0.049030997071688114
28.916636,10.068161963662217,0.048818780036416515
28.921236,9.916092921297626,0.04862710783615821
28.925828,9.761247532324571,0.04846580073986172
28.930416,9.604525231190705,0.048334533513713425
28.93502,9.445393137590814,0.048222150687442664
28.939612,9.281441459058875,0.0481525039038476
28.944204,9.110216261680238,0.048117661143010686
28.948792,8.938991064301597,0.0480788909740416
28.953392,8.766910573923937,0.04806953817027322
28.957972,8.593319725527902,0.04808235404248945
28.962572,8.425247668531899,0.048085114924680185
28.967164,8.264371087117079,0.04808577179154049
28.971751999999995,8.101084713236235,0.048109660178462674
28.976332,7.9454825537931555,0.04811059535359091
28.980924,7.79065764408358,0.04811384225795631
28.985512,7.641473710488183,0.04810412804771649
28.990108,7.4958875146833766,0.04809426388347141
28.994696,7.3535325025267255,0.04810237417427728
28.999284,7.215308108465875,0.0481291366603733
29.003872,7.083257570824415,0.048163357767103135
29.008452,6.956481455154696,0.04820519535025874
29.013048,6.836490119475096,0.048221279352760306
29.01764,6.721484694890315,0.048212987466039574
29.022236,6.609421943076771,0.048192015031178044
29.026824,6.504676851558554,0.048165414648379805
29.031424,6.406838724744602,0.048107004543686646
29.036012,6.311943270701883,0.04803588584888775
29.0406,6.21860231612617,0.04797491114394836
29.045192,6.121419254331575,0.0479304266617767
29.04978,6.027178865308213,0.047871022511600754
29.054392,5.927586011047593,0.047862512951957065
29.05898,5.826971537625179,0.04786012556561331
29.063568,5.729299736974,0.04784258101200961
29.068164,5.6266420252280005,0.04785302501105274
29.072752,5.524639378501357,0.047879526995676255
29.077348,5.421370743184627,0.04792945858567456
29.081928,5.315403804524956,0.04798096539564633
29.086524,5.207105116664776,0.048010100187734134
29.091111999999995,5.09815136378524,0.048026386911188636
29.095712,4.985066992809901,0.04801442475251959
29.1003,4.866708199862822,0.04799546849873129
29.104892,4.739521388602038,0.04803538830099859
29.10948,4.606449231798785,0.04811898929624892
29.114076,4.466836664433703,0.04822972862386739
29.118663999999995,4.322971294258676,0.048315283765101025
29.123252,4.172565513521822,0.04842048537602132
29.12784,4.019461429442024,0.04853173621465641
29.132436,3.8607163692480473,0.0486891179787281
29.137024,3.7069572201488925,0.04880994029747136
29.14162,3.546779845202058,0.04895033673183361
29.146208,3.3882350129877445,0.04901974261875855
29.150788,3.2260924429828397,0.04909811048248162
29.155384,3.057165092987818,0.04929158228651905
29.159976,2.890158796602237,0.04949577810235308
29.164568,2.7205763815878585,0.04972284665255678
29.169156,2.548295663230536,0.050036838120095795
29.173752,2.3794904979496594,0.047603120930607146
29.178336,2.214283070459374,0.04517854696038666
29.182932,2.048298393235587,0.04275315221847431
29.187528,1.886566518821748,0.040348929357979776
29.192116,1.7294540013602933,0.037944446495148144
29.196712,1.5818245672319005,0.035502180832444726
29.2013,1.4407355436653335,0.03303058405230611
29.205888,1.3106841028988319,0.0305393269717589
29.210484,1.1838638457804846,0.028073430372631394
29.215076,1.061418576186231,0.02560293669355861
29.21968,0.9471904013349539,0.023127166952781303
29.22426,0.8450214284455358,0.020605957753000337
29.22886,0.7464501933467091,0.018098481989844015
29.233448,0.6578949218861545,0.015579783628054022
29.238048,0.5764129412926371,0.013098927401861266
29.242628,0.5029036860138046,0.01060883242467145
29.247228,0.4398991332298268,0.008012215625649256
29.251824,0.3840900560270319,0.005395596202326904
29.256416,0.3354764544054198,0.00274641696263983
29.261012,0.2961015666885775,0.0
29.265604,0.2614682206382658,0.0
29.270192,0.22581325542616057,0.0
29.274792,0.1989082652622426,0.0
29.27938,0.17842150094600515,0.0
29.283976,0.16141028970621352,0.0
29.288556,0.14517632819992407,0.0
29.293144,0.13482771223610437,0.0
29.297732,0.12231367323455196,0.0
29.302324,0.11454117589953014,0.0
29.30692,0.11318690441218898,0.0
29.311512,0.11171044821070215,0.0
29.316108,0.10639188479033256,0.0
29.320696,0.1034050705704695,0.0
29.325288,0.10107332136996296,0.0
29.32988,0.1006626257788978,0.0
29.334468,0.09935249574018479,0.0
29.339064,0.09947468045433046,0.0
29.343652,0.0961213120920304,0.0
29.348244,0.0966100509486131,0.0
29.35284,0.09595498592925658,0.0
29.357428,0.09709878980519576,0.0
29.362032,0.10441645010052425,0.0
29.366612,0.10928017648120053,0.0
29.371204,0.10568243869060912,0.0
29.375784,0.10273976591937423,0.0
29.380384,0.10286195063351991,0.0
29.384964,0.09853110455805447,0.0
29.389564,0.09738730068211528,0.0
29.39416,0.09432244319673473,0.0
29.398752,0.0873343219381231,0.0
29.403336,0.08124563512715932,0.0
29.407928,0.07895802737528093,0.0
29.412516,0.07740352790827656,0.0
29.417112,0.07270301440154335,0.0
29.4217,0.06595926257122306,0.0
29.426288,0.06113656435034416,0.0
29.430876,0.05553661639596308,0.0
29.435464,0.052512787070379874,0.0
29.440056,0.04654628497356178,0.0
29.444648,0.04160140203853721,0.0
29.449244,0.03473546549407126,0.0
29.453832,0.026192844768455275,0.0
29.458424,0.018427473776341477,0.0
29.463004,0.016303078898406126,0.0
29.467596,0.01442305344876212,0.0
29.472192,0.010377604961385399,0.0
29.47678,0.008497579511741394,0.0
