Time,Force,Position
23.188340000000004,2.505361465350478,0.04664681037467432
23.192928,2.38806843301382,0.04664980717203124
23.19752,2.2707754006771625,0.046627770599856566
23.202108000000003,2.157324475559388,0.046553217367960115
23.206688,2.043506996299176,0.04653370548979986
23.211296,1.9322656356677614,0.046521434199805714
23.215888,1.8284641200458216,0.046454469271296164
23.220476,1.7259285930139665,0.04626331134892193
23.225072,1.6300556612580832,0.04596528067931561
23.229660000000003,1.5419891286541114,0.04548761999544429
23.234264000000003,1.452900976888346,0.043131271235802
23.238860000000003,1.3663889437513785,0.040777524677371314
23.243456,1.2825752139573545,0.03840763787776354
23.248036,1.1928761386208608,0.0360761808218729
23.252632,1.1023998135508646,0.03374700705806803
23.257220000000004,1.0152768568431687,0.031423581106165346
23.261812,0.9308522034784164,0.02910454283948166
23.2664,0.8490036687424619,0.026813065898651713
23.270992,0.7690761876159488,0.02447917244568161
23.275584,0.6944231284611772,0.02214986332322418
23.28018,0.6252888607064383,0.019797144202553504
23.284768,0.558603492196152,0.017446924676009064
23.289356,0.49862989508066546,0.015134979964467157
23.293944000000003,0.4415939360662142,0.012866411829541907
23.298532,0.38917733400414795,0.01056941381311746
23.30312,0.34319423209170064,0.008281993234260208
23.307716,0.30036427056189113,0.0060408094656112694
23.312308,0.270835837398875,0.0039128764469592205
23.3169,0.2526539771763215,0.0018804516510847837
23.321488,0.24929424297067634,0.0
23.326076,0.2717942175820051,0.009405313433937629
23.33066,0.31990953158201635,0.018251514124323166
23.335252,0.3907755554649929,0.026766460295490985
23.339832,0.48541390839272813,0.035195426009788394
23.344428,0.6024364170609915,0.04350034607545857
23.349008,0.7408214623079896,0.05182063099087514
23.353612,0.9051103578205897,0.05998774584378468
23.358200000000004,1.0906837466464068,0.06815810674282115
23.362788,1.3037935284703481,0.07618075220185841
23.367384,1.5371220429970847,0.08415895491262435
23.371964,1.7889926060454668,0.09213690999956158
23.37656,2.0596546217139853,0.10011464974449319
23.38114,2.344845217852293,0.10811753105415096
23.38574,2.652180634973037,0.11604247857577636
23.390332,2.9802235236531596,0.123899331338075
23.394932,3.3177988420765105,0.13185538843566919
23.399524,3.6721071004944714,0.13971960748642837
23.40412,4.024938902710946,0.14757940845321196
23.408716,4.367489892597378,0.15544252222810126
23.413312,4.700004439582062,0.16325438808224363
23.417916,5.015531437512105,0.1616366310996745
23.422512,5.308507953538845,0.16058923197728597
23.427108,5.583885996940215,0.15986919704411537
23.431708,5.846040555240311,0.15921286248814015
23.436300000000003,6.0923955098103315,0.15867134464454857
23.440896,6.325727207258742,0.15806407201706593
23.445484,6.53568703162172,0.15757947663839514
23.450072,6.72382948236627,0.15710751120746994
23.454652000000003,6.891997569836318,0.15673167637860594
23.459244,7.038514609850708,0.15641068446849152
23.463828,7.1691879046863995,0.1560652883136694
23.46842,7.284139639057532,0.1556886076092681
23.47302,7.385168681859406,0.15524856901780515
23.4776,7.470598348910867,0.15479266298329294
23.482192,7.5374859674406816,0.15436115415539972
23.486788,7.59879017385836,0.15373575103240875
23.491376,7.638820126594559,0.15324472404948677
23.495972,7.675652797499494,0.15270931210102356
23.50056,7.716571945051605,0.15210550731468275
23.505164,7.753771170098977,0.15156197071992078
23.509752,7.79235856845058,0.15098728243555587
23.514344,7.836997638507426,0.15034947059899612
23.51894,7.88367994688786,0.1496811896009508
23.52352,7.930850994124876,0.14899510881051872
23.528116,7.9773669763425366,0.14831097666364515
23.5327,8.024904577721989,0.14762215832806116
23.5373,8.074285189445364,0.14695073301531195
23.541892,8.131516341769279,0.14620050382751054
23.546496,8.188503124664901,0.14547398954768306
23.551088,8.24949834094218,0.1447214753446615
23.555676,8.3149907294577,0.1439304592295576
23.560268,8.382937051887872,0.1431327057104582
23.564864,8.451416254623256,0.14235288302707974
23.569456,8.513643557673733,0.14168708231334426
23.574052,8.575259937153481,0.14105915186032145
23.57864,8.632545470557764,0.1405201236232172
23.583236,8.69649359923802,0.13989585467458793
23.587824,8.758887228451266,0.1392895311958645
23.592412000000003,8.818704739035718,0.1387178019147874
23.597,8.880565487943757,0.1381180325594498
23.6016,8.941648987118294,0.137532861126889
23.606188000000003,9.000933617397534,0.13697562629428345
23.610772,9.059563182657419,0.13642364732287504
23.615364,9.117293313469654,0.13588837735684856
23.619944,9.175512183138473,0.13533421786816882
23.624528,9.23295380307379,0.1347940702657365
23.629124,9.290761977151545,0.13424144728785542
23.633712000000003,9.345338967581146,0.13371588457204764
23.638308,9.395663155200797,0.133222407155511
23.642896,9.446065386085964,0.13269839881642895
23.647484,9.490782499408327,0.13221143144213574
23.65208,9.529814495167884,0.13175622641612367
23.656672,9.565082426974074,0.13130955800418428
23.661264000000003,9.602227270941079,0.13081128714135654
23.665856,9.63495298593536,0.13031604630137897
23.670452,9.664936256138072,0.12981465264515893
23.675040000000003,9.68935659349212,0.12933869210894525
23.679628,9.70976849746451,0.12888152177760423
23.684216,9.725394718321748,0.12844456922076858
23.688816000000003,9.737867798796346,0.12798792884631732
23.693412,9.745965891746849,0.12756514633987429
23.698004,9.750666474886426,0.1271326965511888
23.702588,9.74698363712025,0.1267470650651313
23.707184,9.736960616771912,0.12638300818637124
23.711772000000003,9.72509458607965,0.12600363053599847
23.71636,9.704067884748135,0.1256721345704384
23.72094,9.675679381672666,0.12537318830808664
23.725528,9.64238301076789,0.125095099126969
23.73012,9.611862986471577,0.1247573760423332
23.734716,9.57606854020352,0.12445588010277127
23.739312,9.536920725573165,0.12417047400026267
23.743892,9.500060518694687,0.12384693112849288
23.748484,9.464221930978002,0.12350889584698972
23.753076,9.42658447436602,0.1231830526439136
23.75766,9.397286297211162,0.12278099538761095
23.762244000000003,9.370153543094034,0.12234713066901695
23.766836,9.34392022342456,0.12190453073226998
23.771432,9.318586338202728,0.12145342316517574
23.776020000000003,9.299548494114433,0.12095378981041092
23.780616,9.28157641063656,0.12047135187514223
23.785212,9.26576975019642,0.11995838142788653
23.789808,9.253194273404432,0.11943443934808134
23.794408,9.249613141088924,0.11884257677977679
23.799,9.255026353249892,0.11818597821904159
23.803592,9.261383141307139,0.11755464108747865
23.808172,9.275101731108343,0.11689453554779697
23.812772,9.29732592652944,0.11618977831377288
23.817352,9.325357424227493,0.11546284754694928
23.821952000000003,9.351389825050585,0.11479185604043872
23.826544,9.38515058176007,0.11408308534605711
23.83114,9.424596456032365,0.1133581748465246
23.835724,9.464985906200933,0.11266225318263659
23.84032,9.509505974465302,0.11195679381808304
23.844908,9.561876583330216,0.11121527208421597
23.8495,9.607095858062571,0.1105580396881224
23.854088,9.654280327852998,0.10991984865933321
23.858684,9.70637266547273,0.10927343805168986
23.863276,9.761041121721256,0.10861898538672972
23.86786,9.811500916608468,0.10801861130613205
23.872452000000003,9.86747950289571,0.10738796526158337
23.877044,9.923746600059872,0.10678093405624403
23.88164,9.978625523919803,0.10620462145838919
23.886228000000003,10.032238459189648,0.10565556675212025
23.890824,10.081887102526466,0.10515018663989287
23.895404,10.13190230000572,0.10463373731729214
23.9,10.18342785550335,0.10409435734622581
23.904588,10.234053976553334,0.10356606021329788
23.909176,10.280060740650931,0.10306995938221875
23.913772,10.331175600557497,0.10252964132871542
23.918356000000003,10.377138223206467,0.10201439820282755
23.922956,10.419214597187924,0.10150232033256229
23.927548,10.460347395273105,0.10097027352228245
23.932136,10.499392813586073,0.1004346024881262
23.936732,10.52584614963197,0.09996416360179633
23.941324,10.55393202841039,0.09946117010970715
23.945928,10.577232224073652,0.09896343337053655
23.950508,10.593414987421248,0.09847078620960957
23.955112,10.602768829330097,0.09799867112411012
23.9597,10.611545649485109,0.0974893233811462
23.9643,10.611694679306078,0.09701091708519481
23.968884000000003,10.606280776278387,0.09653303604105129
23.973476,10.597224994011476,0.09604312781818965
23.97806,10.58326134391526,0.0955592340034071
23.982656,10.566066510170891,0.09507729315718964
23.987244,10.54666211194016,0.09458860562595622
23.991840000000003,10.523782160632983,0.09411160211879668
23.996428,10.497915395105943,0.09362701386052047
24.001028,10.471882303416129,0.09311670328893816
24.00562,10.436077617516334,0.09264270630996399
24.010204,10.398596247435389,0.09216939401968745
24.014796,10.363935365411534,0.09167828091231654
24.019388,10.326331810616445,0.091205265005719
24.02398,10.28410889886897,0.09075279030361262
24.028564000000003,10.246994082930465,0.09025505997096021
24.03316,10.211023070867897,0.0897425935724781
24.03774,10.176850927700624,0.08922027702391512
24.042324,10.145665598753215,0.08870386890362614
24.04692,10.122575179834634,0.08815374279215545
24.051508,10.098751652631183,0.08762876319476696
24.056124,10.077259874628236,0.08710468590630589
24.060708,10.062597018064036,0.08656503353228219
24.065316000000003,10.052064779595637,0.08602095020971515
24.069896,10.04909457085086,0.08543715121400797
24.074488,10.04870048073488,0.08484733704621453
24.079084,10.048961455638256,0.0842629479731078
24.083672,10.048855876399196,0.0836920703251814
24.088268,10.054024719131876,0.083109371624214
24.09286,10.065245233569799,0.08251656702520557
24.097452,10.085460092484203,0.08189340215849591
24.102032,10.109805569494407,0.08127015580292259
24.106632,10.132885057914525,0.08066618045092405
24.111224,10.161727707162969,0.08003444218249622
24.115812,10.194945343935508,0.07939389669380253
24.120400000000004,10.234991902146792,0.07875074840170568
24.124996000000003,10.279046893739734,0.07811870276680521
24.129596,10.328742861446853,0.07746927719008205
24.134196000000003,10.381381501925206,0.07680904431878831
24.138784,10.436596261032358,0.07615576981034275
24.14338,10.495408757930099,0.07549591946195756
24.147972000000003,10.554099070113695,0.07484180099107142
24.152556,10.61291156701144,0.07418957115064474
24.157148,10.674544551966271,0.07353376066193332
24.161736,10.73184669084564,0.0729189633618453
24.166328,10.792990936943886,0.07229399803530828
24.17092,10.859409605013878,0.07166740716232275
24.175512,10.929792565016898,0.07102591141159995
24.180096,10.994412364191593,0.07041409940007613
24.184684,11.055067871433257,0.06982792563667586
24.189264,11.117522247570221,0.06924678658299352
24.193852,11.18148698172556,0.06865045031317296
24.19846,11.244796650861542,0.0680507829354425
24.20304,11.306840331407438,0.06747194246187074
24.207628,11.371704500010424,0.06689080465674617
24.212224,11.432970930822819,0.0663236306077746
24.216812,11.489207309091764,0.06575926241443025
24.221416,11.542501014589476,0.06521437256350696
24.226008,11.592196982296596,0.06467915167878019
24.230612,11.639805570231497,0.06413679214430879
24.235192,11.688802331470631,0.06358346841213926
24.239792,11.744050992394671,0.06300205468130653
24.244384000000004,11.800687826622942,0.062410918426086946
24.248984,11.852827488612974,0.0618299980898995
24.253572,11.91019743112612,0.06122746464290864
24.258168,11.96384745113453,0.06063805475435069
24.262752,12.014144102780634,0.06005113362642526
24.267348,12.062641885531448,0.05947121267973016
24.271944,12.11534832964358,0.05887308286508848
24.27654,12.167644078164647,0.058263573120635265
24.281128,12.216708643037563,0.057652975433289774
24.285724,12.26193110069159,0.05705645803086619
24.290312,12.308175177507415,0.056458143170895043
24.294908,12.350699331818502,0.05586799144954124
24.299496,12.385905825834262,0.055288442446004546
24.304092,12.415837897878276,0.05470991515662499
24.308684,12.443482362170416,0.054146390572103735
24.31328,12.46049993925355,0.053607560916194175
24.317868,12.476618081889038,0.05306942606153456
24.322464000000004,12.480721164011296,0.052570387955960605
24.327060000000003,12.476118412533994,0.05209213828309223
24.331648,12.464486511638286,0.051638862336073024
24.336244,12.446602711057672,0.05121196014447429
24.340832,12.423610814668084,0.05080168840731177
24.345428,12.387049358298267,0.050421413602963
24.350024,12.341782068328888,0.05005765431264661
24.354612000000003,12.285765706436361,0.04971761256360469
24.359208,12.22067695680184,0.04940480721909315
24.363792000000004,12.144228211673445,0.049133651472922736
24.368396,12.063448620469584,0.048881286453480915
24.372984,11.968488545714761,0.04867373722564244
24.377568000000004,11.863434464056148,0.0484968941200817
24.38216,11.749185809941393,0.048350571777414766
24.386740000000003,11.631872298341257,0.04821234915011135
24.39134,11.510105755951509,0.04809739915265964
24.395932,11.385807236381591,0.048001072056067406
24.400532,11.257666609592793,0.04790924579880921
24.405120000000004,11.13234647086108,0.04781117255860611
24.409712,11.00142949746382,0.04774495938102076
24.414308,10.873210827409505,0.0476770105169747
24.418904,10.741560745727371,0.04763098174188696
24.4235,10.601082645731532,0.047606371734065026
24.428088,10.452143081564428,0.04759180897437436
24.432684,10.303325702111467,0.04757003523941933
24.43728,10.153120149354274,0.04756444763092229
24.44186,10.004346911349943,0.04757084707220757
24.446448000000004,9.861869714479143,0.04757628836079786
24.451036,9.718370898446553,0.04758663648002698
24.455624,9.57883637434699,0.0475846316806291
24.460216000000003,9.436236992762046,0.04759511375195139
24.464808,9.301321825614867,0.04758919081172886
24.469404,9.172169819296016,0.04757017956041917
24.473984,9.04559393160596,0.047557525269942065
24.478572,8.913909948106937,0.04756892609285764
24.48316,8.785290822093295,0.04756536324258473
24.487752,8.652707404146623,0.047577014911609955
24.492348,8.519757432057514,0.0476029592564246
24.496932,8.38644090582597,0.047643532440075104
24.50154,8.252591499289213,0.047670131678283684
24.506128,8.117598288876518,0.047707466261012306
24.51072,7.989512043168086,0.047718202535596714
24.515308,7.8669445888596865,0.04772471924665001
24.519896000000003,7.749651556523029,0.04773773490708953
24.524500000000003,7.62958217757791,0.04779704383799915
24.52908,7.515275959461115,0.0478412350109309
24.53368,7.402890794953762,0.04788120421669177
24.538272,7.283843035170437,0.04794041010674345
24.542864,7.169414632339497,0.047995498927847186
24.547452,7.05294299118497,0.04806362667743819
24.552048,6.9383924036398845,0.048127865498808334
24.55664,6.821798577771212,0.04820581535048708
24.561228,6.705326936616683,0.048275273956501066
24.565812,6.589344034318739,0.04832017208658501
24.570408,6.476548174220321,0.04834205880284252
24.575004,6.357744783865287,0.048399797809511286
24.579604000000003,6.242783500729135,0.04844751388763746
24.584184,6.12794440230713,0.0484906636037707
24.588784,6.0124502388657675,0.04852049073628934
24.593364,5.896589521281968,0.04857506835902803
24.597948,5.78097317312646,0.048615953515089794
24.602532000000004,5.660370913876132,0.0486858787767735
24.607124,5.537070351282858,0.048757944226741984
24.61172,5.413114723670229,0.04881575640709733
24.616300000000003,5.290669454075975,0.0488432220821363
24.620896,5.164504261976985,0.0488789250829754
24.625484,5.0365402009826985,0.0489162362635504
24.630076000000003,4.910619378311999,0.04894166984613507
24.634672,4.781345187278999,0.04894532349883331
24.63926,4.65039431206485,0.048943145858326015
24.643868,4.51776675266955,0.048929000810472766
24.648452,4.385383562702542,0.04889425344091829
24.65304,4.249935515250154,0.04888869774587025
24.65764,4.115264717531268,0.04888388657482674
24.662232000000003,3.9805939198123816,0.04887183432461902
24.666828,3.852707902083613,0.04881944029238807
24.671412000000004,3.720324712116605,0.048765422950316904
24.676004,3.58422159964486,0.04872793165268746
24.680588,3.445953064135382,0.048738454811356344
24.685184,3.3144693086160215,0.04869015283007757
24.689776,3.1810644994872206,0.04865018135543525
24.694371999999998,3.0421408989583862,0.04865049451402142
24.698952,2.906037786486641,0.04862590010956433
24.703544,2.7717335429101913,0.048583897321998755
24.708132,2.6357526151525925,0.04851064593876294
24.712731999999995,2.5014483715761435,0.048467592406127795
24.717324,2.3664890629803375,0.04834839435422658
24.721923999999994,2.231529754384532,0.048217920565742284
24.726512000000007,2.0971033260939365,0.048148804096170957
24.731096,1.9672962547557264,0.04570677276376002
24.735684,1.84018748676046,0.043275877831325096
24.74028000000001,1.714877587660489,0.0408572598148141
24.744864,1.5934097957794013,0.038423445080096125
24.749452,1.4736186880794628,0.03600322448085905
24.754048000000004,1.3574253181701164,0.033597369039666855
24.758636000000003,1.2403325138131218,0.03120705796975095
24.76322,1.135054541989695,0.028817448537086454
24.767812,1.0359504265856572,0.0264101873453547
24.7724,0.9444083409052398,0.023962359148113774
24.777008,0.845426410215348,0.021554389299322695
24.781600000000005,0.7527405206589912,0.019145668268480198
24.786188000000003,0.6719916483503479,0.016685853727215965
24.790780000000005,0.5921813172677809,0.014248932161849548
24.795376,0.5167459737093074,0.011837558998318384
24.799975999999997,0.44928335546551906,0.00945575318556448
24.804576000000004,0.3873395286217634,0.007041696006930756
24.809168000000007,0.33234680793089927,0.004701858900492085
24.813748,0.2845495628212179,0.002370935800053844
24.818347999999997,0.24317054355921713,0.0
24.82293600000001,0.20526707737366218,0.0
24.827536,0.17173859871220076,0.0
24.832124,0.14258510757483295,0.0
24.836724,0.11690716951391089,0.0
24.841308000000005,0.09392753479593238,0.0
24.845899999999997,0.07352401870675175,0.0
24.850492,0.05749549014166469,0.0
24.855088,0.039545907967136265,0.0
24.859676,0.02543843301149059,0.0
24.864268000000003,0.012108207789347092,0.0
24.868856,0.006872892596034259,0.0
24.873439999999995,0.0034364462980171293,0.0
24.878032,0.0,0.0
24.882628000000004,0.0,0.0
24.887216,0.0,0.0
24.891816,0.0,0.0
24.896408,0.0008264258523298784,0.0
24.900996,0.0008264258523298783,0.0
24.905588,0.0025522861523076083,0.0
24.910176,0.006077015347581042,0.0
24.914772000000006,0.008824494809352294,0.0
24.919363999999995,0.015414081490006296,0.0
24.923952000000007,0.02098204900886677,0.0
24.928555999999997,0.027449450975375104,0.0
24.93314400000001,0.033383972636672594,0.0
24.937732000000004,0.04021792874561793,0.0
24.942328,0.04975018819750683,0.0
24.946915999999995,0.06042625152533493,0.0
24.951512,0.0675045770625716,0.0
24.956104000000003,0.07061861066677987,0.0
24.96069600000001,0.07295539453748597,0.0
24.965284000000004,0.07811266646528128,0.0
24.969884,0.08351430782136794,0.0
24.97446,0.08981538362510245,0.0
24.97906,0.09215216749580854,0.0
24.983656000000003,0.09538838581416248,0.0
24.98824800000001,0.0986976127278344,0.0
24.992828,0.10487650381742324,0.0
24.997424,0.10740848099759295,0.0
25.002028000000003,0.10544328593952343,0.0
25.006620000000005,0.10335590616730825,0.0
