Time,Force,Position
23.314832000000003,0.2359266700195581,0.0
23.31942,0.22948159906505483,0.0
23.324008,0.24717541129774723,0.009394171956839219
23.328604,0.287087053108194,0.018110597973806705
23.333192,0.34255392922042316,0.026768489408236024
23.337784,0.41807321187267393,0.03518656847946367
23.34238,0.5176091929979748,0.04352960489536349
23.346968,0.6401402534345322,0.05167459685502946
23.351572,0.7827237204111113,0.05974074515109684
23.356160000000003,0.9483022666989469,0.06774441929176984
23.360752,1.1313179338997883,0.07580038375240361
23.365348,1.331976215174627,0.08384919887354103
23.36994,1.5516652838276945,0.09181825101536877
23.374536,1.7857657829066045,0.09983778432200954
23.379112,2.0370982004684475,0.10783004185530813
23.383712,2.30288121545435,0.11575123061926304
23.388288,2.5789009013216657,0.12374985992107887
23.392892,2.867733376699192,0.13175878475634595
23.397472,3.176485834270856,0.13965855830651763
23.402068,3.4954986249090823,0.14744949615694927
23.406659999999995,3.8150781976694095,0.15519256729088632
23.411252,4.129617478254548,0.1628900629881969
23.415844,4.432243403777123,0.16114323715780107
23.420428,4.719891116751755,0.16006716976574276
23.425016,4.998445962720914,0.15900135235543653
23.429607999999995,5.264676758036445,0.15811343064494962
23.4342,5.519116383003558,0.1572748297686602
23.438787999999995,5.759843784012814,0.1565968446524982
23.443372,5.9854266463113515,0.15599017466517526
23.447972,6.198929827384553,0.15538136232966598
23.452563999999995,6.401208620231436,0.15465493203338926
23.457148,6.584945364556675,0.15394718776934854
23.461744,6.752349624846628,0.1532847572435623
23.46632,6.908040758053683,0.15253787325648344
23.470908,7.050219895282542,0.1517668755685686
23.475516,7.172468810685524,0.15107116100356963
23.480104,7.287868325386285,0.15020973341485708
23.484696,7.393353581899439,0.14926519318913795
23.489284,7.484104995292943,0.14838195391186898
23.49388,7.562254086787638,0.14758070215827965
23.498472,7.632830908926975,0.1467942616556526
23.503072,7.698333537074234,0.14603350647650742
23.507664,7.760849351001629,0.145296796499951
23.51226,7.822421589032747,0.1445412107341307
23.516852,7.879741024253919,0.14383690328358176
23.521432,7.929742799179761,0.14323310835070974
23.526028,7.978023748475827,0.1426164393846735
23.530615999999995,8.023806622408614,0.14199270904225125
23.535212,8.066847051549827,0.1413671616434954
23.539808,8.101137505642852,0.1408383315423833
23.5444,8.132196776087723,0.14033982830252908
23.548992,8.166320904017974,0.13979185478015752
23.553588,8.196969478871782,0.1392814959270926
23.558176,8.222588001182137,0.1388146767270419
23.562768,8.2412554173396,0.13841855971757847
23.567356,8.263887125430095,0.1379641124559888
23.57194,8.278712434368678,0.1376265246515729
23.576528,8.289040571069021,0.13734264690341372
23.581128,8.297036958568857,0.13707174208051312
23.585716,8.302457227439897,0.13682445031140403
23.590308,8.30914348490102,0.1365506618476854
23.5949,8.31362017787578,0.13628089364606166
23.59948,8.316542371383537,0.13601842253585478
23.60408,8.318931684586083,0.13574770963798996
23.608668,8.323197909949442,0.13541881878599055
23.61326,8.329096678045325,0.13504166999483733
23.617856,8.334096011693557,0.1346757675897653
23.622444,8.335253238122906,0.1343596465379712
23.627036,8.338087148733408,0.13403172664011304
23.631628,8.348360904353381,0.13361865343865764
23.63622,8.358268105830918,0.13322595502071283
23.640816,8.366620807841452,0.13284089446514358
23.645404,8.374318444832628,0.13245140698743674
23.649996,8.387290503795548,0.1320150506412338
23.654584,8.408357472787294,0.1315003161084648
23.65918,8.42174022734128,0.1310807239524577
23.66376,8.441785577171233,0.1305818247765806
23.66836,8.460809307839394,0.13009825992274718
23.672948,8.477667615469821,0.1296517443728307
23.677547999999994,8.496446976709692,0.12918253320564083
23.68214,8.50999605742645,0.1287950172291486
23.686727999999995,8.52599907205786,0.12839529674820252
23.69132,8.542779336422774,0.12799453547603193
23.695916,8.559315231359394,0.12760813560304193
23.700516,8.570743030487048,0.12729489028829918
23.705112,8.588711240176528,0.12691472386398756
23.709708,8.602592973218831,0.12659112436255213
23.714304,8.619173009604081,0.12624269793386642
23.718892,8.634853611541683,0.12590372249356133
23.723479999999995,8.649512594317489,0.1255830782899654
23.728068,8.66441594652159,0.1252521145220155
23.732668,8.67870837515496,0.12495144648146778
23.737255999999995,8.69827522576007,0.12461061662326804
23.74184,8.717064826631681,0.12427529020822652
23.746432,8.728292397779672,0.12402109715964854
23.751016,8.746959813937137,0.12369246864734683
23.755607999999995,8.764727795646952,0.12337596784514178
23.760196,8.787115134309154,0.12301814863129232
23.764784,8.809502472971355,0.1226596092041546
23.769388,8.832789246081203,0.12229640224160036
23.773976,8.858241442228785,0.12189999307749184
23.778564,8.878952096709835,0.12155248784187206
23.783156,8.898763316743239,0.12121370641404547
23.787755999999995,8.917675102328994,0.12088355638413482
23.792348,8.943127298476577,0.12049142925864577
23.79694,8.961261834328829,0.12016746081927275
23.801548,8.98654770431364,0.1197546423705822
23.806132,9.01567568151733,0.11930714337272176
23.810736,9.049789569815843,0.1188076829358984
23.815316,9.079650655304404,0.11833423810771035
23.819916,9.108734491059467,0.11786454798257395
23.8245,9.13896213069047,0.11737811969169056
23.8291,9.163915348349732,0.11692957385684415
23.833692,9.189112935437281,0.1164742540431179
23.838288,9.21966298776209,0.11594825774429017
23.842876,9.24493861811516,0.1154578331094743
23.847468,9.263263142315338,0.11500965308504427
23.852056,9.278478667581508,0.11456965752171062
23.856652,9.295204550866053,0.11409668280658634
23.861239999999995,9.313074238026537,0.11361077862965248
23.865832,9.331432664043604,0.11310479075118118
23.870424,9.357064608907374,0.1125144233391309
23.875012,9.38216367346593,0.11191508658731317
23.8796,9.406485488290985,0.11131697480886044
23.884196,9.428475553915533,0.11072683027821359
23.88878,9.45099849984529,0.11014538860760084
23.893367999999995,9.46877990410852,0.10960854655163042
23.89796,9.479488017504709,0.1091164429367387
23.902539999999995,9.486598393110308,0.10865203663974314
23.907128,9.49665144148714,0.10816062312550026
23.911724,9.508747728187565,0.10764983364328927
23.916312,9.522354372906362,0.1071106467145423
23.9209,9.543889601491216,0.10650121751664197
23.925488,9.563625961180776,0.1059058563829467
23.930076,9.582995766727898,0.1053302120844436
23.934672,9.608128733103344,0.1047095653404613
23.939252,9.64135660950762,0.10404335728317118
23.943852,9.672052508731726,0.1034181525200536
23.948432,9.705202341870487,0.10279218551928282
23.953032,9.733855002771007,0.10219469109937249
23.95762,9.764306532566822,0.10159129353130536
23.962219999999995,9.790671585715463,0.10103256874952093
23.966804,9.820634376654695,0.10045793719645742
23.9714,9.852640405917514,0.09986576761976473
23.975984,9.884402065752043,0.09928700999789354
23.980571999999995,9.918573518052597,0.09867623519933216
23.985156,9.953644404800798,0.09806205226122731
23.989752,9.989248171854209,0.09745595882175254
23.994344,10.019743843098654,0.09689697227155245
23.998928,10.049750775486514,0.09636045102588287
24.003519999999995,10.07681503510314,0.09584986172459684
24.008112,10.104656544453269,0.0953450859578287
24.012699999999995,10.12456946993734,0.09490791557954234
24.017284,10.1473028834785,0.09445638304980494
24.02188,10.167337993676718,0.09401917116285359
24.026472,10.184430431103698,0.0936065299661964
24.031064,10.198580195759446,0.0932184833157344
24.035652,10.217838056224162,0.09278841897795581
24.04024,10.23529704779358,0.09236912755887043
24.044836,10.254310538830003,0.09195142585863408
24.049423999999995,10.272058041276344,0.0915538879739131
24.054012,10.289561174294388,0.09116629041881402
24.058608,10.307064307312437,0.09078232799824171
24.063196,10.32751011310172,0.09038180399802902
24.0678,10.344113811672118,0.09000484545480894
24.072376,10.362516379137812,0.08962368497525297
24.076972,10.381041131317655,0.08923915406574082
24.081551999999995,10.404551794592317,0.08882071183234697
24.086152,10.433703433981158,0.08837213605174148
24.09074,10.462322193064791,0.08791533414708012
24.095324,10.491596017167778,0.08746459128090435
24.099912,10.518826602947177,0.08703312871107396
24.104508,10.548633307355376,0.08659641865838136
24.109096,10.572676850935249,0.08619443071787587
24.113692,10.599663067286357,0.0857757250633024
24.11828,10.632534629179935,0.08532494616191902
24.122879999999995,10.666672179663598,0.08486107486813625
24.127472,10.699010861251965,0.08440758518427936
24.132064,10.730694477820975,0.08395078039972241
24.136655999999995,10.761723029370629,0.08348931507433771
24.141236,10.79197433118678,0.0830282213283262
24.145827999999995,10.82373599102131,0.08254480357817158
24.150416,10.847813436418072,0.08210187825321391
24.155007999999995,10.866782786005867,0.08169712195902462
24.159592,10.890860231402634,0.08125767677425932
24.164184,10.911995004028162,0.08083772780888245
24.168768,10.934928645548986,0.08041443488044
24.173352,10.957984471783956,0.0799911401419413
24.177944,10.980751787142006,0.07955230085191921
24.182531999999995,11.004540721661849,0.07910865731730786
24.187116,11.029962198914214,0.07863947797829085
24.191716,11.05370699198543,0.07817244377166055
24.196292,11.076386024446222,0.0776869650094746
24.200892,11.10315153355419,0.07717585342429929
24.205472,11.127873804338568,0.07668019012200492
24.210068,11.141191938180448,0.0762344718576993
24.214652,11.152711203127028,0.07579523913329547
24.219248,11.164230468073612,0.07535784199163645
24.22384,11.176771352181989,0.07491577463164795
24.228432,11.191355474613953,0.07446251374854883
24.233024,11.206306151188352,0.07399831335470358
24.237616,11.219335774153311,0.07354356529240613
24.242208,11.239761100679118,0.0730384805796833
24.246796,11.261818969937444,0.07250820884308623
24.25138,11.285142827785855,0.07196870218234312
24.255976,11.306012751719612,0.07142693318819572
24.26056,11.3274935992241,0.07086925266772423
24.265152,11.344355089776203,0.0703266668080802
24.26974,11.363259818651892,0.06977674565818762
24.274332,11.381753851936518,0.06921536247040326
24.278924,11.39947063548764,0.06865426047125917
24.283508,11.41845340762885,0.0680810907800735
24.2881,11.439235048665351,0.06750688633224003
24.292688,11.460016689701852,0.06693545524932408
24.297276,11.48128706959494,0.06635028170821024
24.30188,11.50946441419229,0.06573512130783837
24.306467999999995,11.536087259322633,0.06511625056162951
24.311052,11.559234551376534,0.06449987086606561
24.315648,11.579805724801632,0.06388516461677118
24.320236,11.602542321264465,0.06326089906801564
24.324839999999995,11.624623852707941,0.06263199325012003
24.329436,11.650791860798593,0.06198675540528502
24.334039999999995,11.675038815279805,0.06135132538088414
24.338632,11.697486900865718,0.06071922713266148
24.343236,11.713272391175659,0.06010692022016716
24.347824,11.733144358132778,0.05947692136711455
24.352424,11.747908229280927,0.058871286542519545
24.357,11.760995416247926,0.05826220168352107
24.361604,11.76525458490122,0.05768266235854618
24.366195999999995,11.76710396108849,0.0571233654874228
24.370796,11.766787914238027,0.05657669026636154
24.375376,11.76467299849227,0.056031413341233224
24.379971999999995,11.754996053022891,0.05550043309440799
24.384567999999994,11.738001447258185,0.0549758139752899
24.38916,11.715243680665152,0.054463293475994455
24.393747999999995,11.687744372405591,0.053959345796087056
24.398343999999994,11.656158587498856,0.05346874057442738
24.402919999999995,11.62060851065909,0.0529868955936416
24.407516,11.58162702219151,0.052525657457791614
24.412104,11.529975408191339,0.052096306935774855
24.416692,11.472316263934552,0.05168377071935084
24.421276,11.39610164860271,0.051318202752828154
24.425872,11.309915211081224,0.05098153354007387
24.430464,11.21772124330312,0.05066045694750851
24.435044,11.119275375840111,0.05036292988372903
24.439636,11.009836067025665,0.05009784092016957
24.444227999999995,10.892834728487601,0.04984095384693341
24.448816,10.771624728588213,0.049598878165426116
24.45342,10.648493675079386,0.049355467756491266
24.458003999999995,10.516778972685145,0.04912458429506169
24.462616,10.377135686424849,0.04891450000106436
24.467203999999995,10.226376774098968,0.0487421479376872
24.471792,10.07026539653583,0.04859609705738533
24.476388,9.908923738449579,0.04847064424654179
24.480979999999995,9.739775681211414,0.0483626210970058
24.485584,9.563476289840697,0.04828179255628085
24.490164,9.382068802661006,0.04822092374137554
24.494764,9.196697023548293,0.048169032349173496
24.499344,9.005029203302044,0.04811268954190034
24.503944,8.810296525570413,0.04806916309183167
24.508531999999995,8.611233001763319,0.048053413394609897
24.513132,8.423695799612872,0.048003572220207624
24.517724,8.234237543852984,0.047956733442669645
24.52232,8.037872323388834,0.047934986227305756
24.526908,7.83880879958174,0.04791279274819407
24.531492,7.636802603003409,0.047901880449489224
24.53608,7.43455203699679,0.047899648588625145
24.540672,7.227437744609492,0.04791453333776052
24.54526,7.017136410022668,0.047951967737028554
24.549856,6.804914021826402,0.047995464438100634
24.55444,6.588971711125399,0.04804995024668119
24.55904,6.369676032062099,0.04809773457607721
24.563628,6.15086909185538,0.04811682452967691
24.56822,5.934882639705751,0.04812578688921651
24.572812,5.72363772922265,0.048112394930928774
24.577392,5.512881557596135,0.048056858249431865
24.581984,5.302491940112055,0.04796725912475488
24.586564,5.090958518752036,0.04789102432330259
24.591152,4.875338620744842,0.04784886558628822
24.595748,4.660740341899443,0.047796687443632
24.600336,4.444709748301185,0.04770879106346771
24.604924,4.218174452208071,0.04765618931766963
24.60952,3.991639156114959,0.04759624463827307
24.614107999999995,3.771766455297818,0.04749265108484496
24.618704,3.552793188928325,0.04737388849578422
24.623284,3.336762595330067,0.04719982307444295
24.627883999999995,3.121509251465311,0.047035262172814056
24.632459999999995,2.9118968837147334,0.04680176827346179
24.63706,2.7033061351259495,0.04651194230527415
24.641648,2.500234177937199,0.04408951985291229
24.646248,2.3065231193673625,0.04165651793375246
24.650832,2.1265479469405357,0.03922105130829861
24.655428,1.9545454998283942,0.036804585728501094
24.660024,1.7839753674691112,0.0343982920264121
24.664615999999995,1.618557472367424,0.03201440736122176
24.669216,1.4570258259332478,0.02966728413580981
24.673808,1.3006464167566674,0.02734855286302411
24.678388,1.1542829712183587,0.02502193242906802
24.68298,1.0236986501466463,0.022672909165077887
24.687568,0.9001876199419712,0.020328080136150325
24.69216,0.7891464872902204,0.018006468691981498
24.696743999999995,0.6937622943909201,0.015674826384949665
24.701336,0.6112145531869809,0.013351027502490558
24.705928,0.532020180345342,0.011057866439891699
24.710508,0.4654178897707728,0.008779965744241386
24.7151,0.41140768146327356,0.006550047416123139
24.719684,0.36753562150819197,0.004310445210572501
24.72426,0.32701692991541054,0.0021315047644568388
24.72886,0.2983130708561968,0.0
24.733452,0.27938080600696386,0.0
24.73804,0.2618808559105895,0.0
24.742636,0.24569103585292815,0.0
24.74722,0.23297676887171256,0.0
24.751824,0.22680291245232326,0.0
24.75642,0.22242792492822963,0.0
24.761012,0.22279447907066663,0.0
24.765592,0.22753602073719725,0.0
24.770188,0.23137812795607998,0.0
24.774776,0.2317888235471452,0.0
24.779376,0.2388621144141823,0.0
24.78396,0.24029442916704102,0.0
24.788552,0.2376402672727256,0.0
24.793144,0.23065525930294478,0.0
24.797736,0.23417495382801867,0.0
24.802324,0.23769464835309256,0.0
24.806916,0.23953765869701638,0.0
24.811504,0.24048123459329243,0.0
24.816088,0.2432236793848641,0.0
24.820671999999995,0.2382819097386703,0.0
24.825264,0.22500086063535452,0.0
24.829848,0.2106981923702452,0.0
24.834436,0.19688426296171854,0.0
24.839032,0.1849913871626333,0.0
24.843612,0.17501956497298943,0.0
24.848208,0.16684661167864123,0.0
24.852799999999995,0.16341520005082363,0.0
24.857388,0.1592065386895039,0.0
24.861996,0.15691893093762552,0.0
24.866584,0.1580627348135647,0.0
24.871176,0.1580627348135647,0.0
24.875768,0.16664638369897805,0.0
24.88036,0.17547440201268275,0.0
24.884952,0.18875545111599853,0.0
24.889532,0.19320848190560963,0.0
24.894127999999995,0.19394159019048368,0.0
24.898716,0.18866716821874224,0.0
24.903312,0.1831483768187095,0.0
24.9079,0.18351493096114646,0.0
24.912507999999995,0.19001120007434463,0.0
24.9171,0.2022706300158669,0.0
24.921696,0.22221427439515465,0.0
24.92628,0.2417913646320054,0.0
24.930872,0.2538064251452363,0.0
24.935464,0.2617350090112932,0.0
24.940056,0.26786472398205435,0.0
24.944648,0.2682312781244914,0.0
24.94924,0.26949726671457624,0.0
24.953828,0.27064107059051545,0.0
24.958416,0.2744831778093982,0.0
24.963004,0.273705928075896,0.0
24.967596,0.2701081902853046,0.0
24.972192,0.2701081902853046,0.0
24.976768,0.2676983978192805,0.0
24.981352,0.26631022451505004,0.0
24.985928,0.26696528953440657,0.0
24.990508,0.2696635928773501,0.0
24.995112,0.27338351538208716,0.0
24.999692,0.27007428846841525,0.0
25.004296,0.266154137984015,0.0
25.008888,0.26019074917602764,0.0
25.013472,0.2484641995397162,0.0
25.018076,0.23788145377934392,0.0
25.022668,0.23293968413315014,0.0
25.02726,0.23232876056242177,0.0
25.031839999999995,0.23159565227754778,0.0
25.03644,0.2316397937261759,0.0
25.041024,0.22976288156536268,0.0
25.045628,0.2277637846904038,0.0
25.05022,0.21808047337767938,0.0
25.054812,0.21301651901733992,0.0
25.059396,0.20398827272397205,0.0
25.063992,0.19508221114474983,0.0
