Time,Force,Position
25.987992,0.12133851239517983,0.0
25.992572,0.13799987591034854,0.0
25.997172000000003,0.15261800110193022,0.0
26.00176,0.1672361262935119,0.0
26.00636,0.18095481703744573,0.0
26.010952,0.1931362037134505,0.0
26.015548,0.20171985259886382,0.0
26.020132,0.20556195981774658,0.0
26.024728,0.21018131677013152,0.0
26.029324,0.21570010817016427,0.0
26.033924000000003,0.22109671485605137,0.0
26.038512,0.22968036374146472,0.0
26.043108,0.2405957618273846,0.0
26.047696,0.24100645741844978,0.0
26.052284000000004,0.2444820104948955,0.0
26.056872,0.24705812912369338,0.0
26.061464,0.24861262859069777,0.0
26.066056,0.25400923527658487,0.0
26.070652,0.25388705056243915,0.0
26.075244,0.24992275862941077,0.0
26.079836000000004,0.24223854419164528,0.0
26.084428,0.23467651446802543,0.0
26.089008000000003,0.22748103888684262,0.0
26.093588,0.2200411938773685,0.0
26.098192,0.21145754499195515,0.0
26.102776,0.203651145840044,0.0
26.107364,0.19674418113578068,0.0
26.11196,0.1954781925456958,0.0
26.116548,0.1931905847938174,0.0
26.121152,0.19180241148958688,0.0
26.125736,0.19168022677544122,0.0
26.130328,0.1877159348424128,0.0
26.13492,0.1746351137187602,0.0
26.13952,0.16719526870928605,0.0
26.144108,0.15848943510972704,0.0
26.148696,0.14659655931064178,0.0
26.153288,0.13740198685450009,0.0
26.157884,0.12356111139642055,0.0
26.162468,0.11061967038598887,0.0
26.167064,0.1028132712340777,0.0
26.171652,0.09692792569160794,0.0
26.176248,0.08822209209204891,0.0
26.180836000000003,0.08581229962602487,0.0
26.185424,0.08479068046423134,0.0
26.190012,0.08479068046423137,0.0
26.1946,0.08286962685478999,0.0
26.199188000000003,0.08172582297885078,0.0
26.20378,0.07289780466514609,0.0
26.208376,0.0658686552467371,0.0
26.212964000000003,0.058961690542473785,0.0
26.217556,0.04998454146507055,0.0
26.222144000000004,0.04190682683531518,0.0
26.226736,0.04092934912214981,0.0
26.231332,0.04391616334201286,0.0
26.235920000000004,0.04600354311422805,0.0
26.240516000000003,0.05569709405869123,0.0
26.245104,0.06866597009993694,0.0
26.249692,0.0854699975927289,0.0
26.254288,0.1087805338304578,0.0
26.25888,0.1344841561163967,0.0
26.263476,0.16244148433732458,0.0
26.268064,0.19396264853195452,0.0
26.272664,0.22455047646204723,0.0
26.277252,0.2585799556516963,0.0
26.281852,0.3021808010716629,0.007850217140174398
26.28644,0.35330977439836,0.015550914237470003
26.291036,0.4074697033935482,0.023370466349967926
26.295620000000003,0.4759425402855846,0.030778382598744384
26.300216,0.5456474639508164,0.038429440778221725
26.304804,0.6141746819232198,0.04656813691512709
26.3094,0.690012604423615,0.054678085376805526
26.313988,0.7768542079071864,0.06237771571762091
26.318584,0.8647787674002548,0.07030123240622818
26.323176,0.9501374478962643,0.07849719767731196
26.32776,1.0444565710518625,0.08656734901706688
26.332348,1.1370990100263112,0.09460151499984155
26.336936,1.22609956976154,0.10269455065597455
26.341524000000003,1.31452310774293,0.11072108162597873
26.346116,1.3950519636751522,0.11890346558103669
26.350704,1.4714060600629444,0.12719420202394696
26.355292,1.5460393308209581,0.1354643251060808
26.359884,1.622505372291157,0.14353955573635313
26.364472000000003,1.6951632083593626,0.15164052551929583
26.369064,1.7640128390255745,0.1597200447680043
26.373672000000003,1.822513853727967,0.16004463515187484
26.37826,1.8737311099519203,0.16054125425538526
26.382856,1.9230612143833214,0.1607969327731597
26.387436,1.9631865067268424,0.16141294256229982
26.392024000000003,2.0050223850684024,0.16158093220178477
26.396632,2.0528996954834677,0.1609206748722103
26.40122,2.0956586704578264,0.1602205235293436
26.405816,2.124304965515,0.1599930920581623
26.410396,2.150653413188557,0.15949489360014407
26.414996,2.172250079563844,0.15879617778949645
26.419584,2.182798923507327,0.15829115810531352
26.424184,2.1910940615158205,0.1576991706302154
26.428768,2.197546189180391,0.15705695129460367
26.433368,2.199334818443948,0.1565326366393466
26.437964,2.2060652173536983,0.15555595786792992
26.442556,2.2132402136714036,0.1543402926065448
26.447152,2.219471634092833,0.15304924311702867
26.451748,2.2223496861519623,0.15190540355947285
26.456336,2.223917608172379,0.15073776353259002
26.460932000000003,2.2233981504205795,0.14956916944287307
26.46552,2.2221014429352786,0.1483952452433437
26.470116,2.2200274857164746,0.14722724219412653
26.474696,2.21267910652593,0.14629357688407324
26.479284000000003,2.205452912049531,0.14533215011693137
26.483876,2.193074480315536,0.14457960997793623
26.488468,2.173134018857921,0.14422600542756123
26.493064,2.1519275688102213,0.14398468681691431
26.497644,2.1311318143535867,0.14381687387429148
26.502236,2.1123792982205396,0.14349390718204505
26.506816,2.096325085430436,0.14304413374932462
26.511408,2.085300925183782,0.14241529958243593
26.515996,2.0734214719381088,0.14196295346381677
26.520584000000003,2.065917006216529,0.14132822202454584
26.525192,2.061643724143104,0.1406034228793243
26.529784000000003,2.0527952265659217,0.1402396834338266
26.534372,2.0447681201708696,0.13999330643618982
26.53896,2.0371517093668827,0.13980439460488256
26.543552,2.028635864115248,0.1396504207016916
26.548156,2.0234733872259136,0.13939414866458183
26.552736,2.0214199092705876,0.1390879970794936
26.557344,2.0256624724487966,0.13853090110706623
26.561932,2.035179457598747,0.137794904312759
26.566536000000003,2.0535686025110307,0.13674916503701556
26.571124,2.0703252046907923,0.13587524160363884
26.575728,2.090312990518708,0.1349404809753711
26.580316,2.1158195677466565,0.13379773438070922
26.584908,2.147988740250578,0.1324034975824999
26.589492000000003,2.1836334658309444,0.1308692837053192
26.594088000000003,2.2168683989452864,0.1295563404471969
26.598684,2.2498589626313374,0.12829827269970145
26.603284,2.279129603812651,0.1271988761618576
26.607876,2.3059463110793126,0.12611973209433344
26.612468000000003,2.3287987264129457,0.12525989033945117
26.617048,2.3545938145178136,0.12429982353715184
26.621640000000003,2.376546795403799,0.1234604083469012
26.626228,2.3968230921086344,0.12266066354413949
26.630816,2.416077769651676,0.12192013117540253
26.635412,2.437009131375868,0.12114526455376992
26.639996,2.454220570595323,0.12052394469334003
26.644584,2.468733706471834,0.12000209579031171
26.649164000000003,2.478749670110106,0.11964764208335361
26.653744,2.4805485390054023,0.11958709600876613
26.65834,2.4741303131577217,0.1198155822216227
26.662924,2.4691002606142716,0.11992857797986348
26.667512,2.4613719047278777,0.12012967925540685
26.672104,2.4471031382796578,0.12057735222554185
26.6767,2.4242507229460246,0.12135902487256424
26.681296,2.4008654273071808,0.122096131235777
26.685896000000003,2.3787461202584224,0.12273180647788255
26.690500000000004,2.3578928017997476,0.12326346205422377
26.695076,2.339859971398162,0.12369236513372911
26.699672000000003,2.3265686826631073,0.1239399740724407
26.70426,2.316464436127579,0.12401619721178239
26.70886,2.300064148458516,0.12427349591458818
26.713444,2.291836814083801,0.12414959017847009
26.718044000000003,2.284753283585025,0.12395575436367956
26.722628,2.2764818077616806,0.12370740368532547
26.72722,2.2664114630430423,0.12351098592023238
26.731812,2.2583843566479906,0.12321730054552525
26.736404,2.2497021852335823,0.1229057067458759
26.740992,2.2411421985333195,0.12256999670428965
26.745588,2.2391226223948832,0.121993736355728
26.750176,2.2420889573512683,0.12118948832938609
26.754768,2.2444002272882972,0.12036799633891083
26.759344,2.2459342474918245,0.11954224038992571
26.763944,2.250410940466586,0.11857619318411666
26.768532,2.2572974259073715,0.11742137331230666
26.773108,2.2613634232910678,0.11636599830193228
26.7777,2.259910629274732,0.11549843504791593
26.782280000000004,2.2575584008107477,0.11466539673439927
26.786872,2.2527522384321115,0.1138700534541042
26.79146,2.245247772710531,0.11316149763377424
26.796048000000003,2.2322245155889187,0.11263828159779579
26.800656,2.2211223120767474,0.1120271418505744
26.805244,2.20683306636505,0.11158761503676627
26.80984,2.191522201491559,0.11119430875660043
26.814432,2.1785430858185744,0.11078354173305062
26.819016,2.1667077740215297,0.11029544886016666
26.823624,2.155771896672132,0.10977831943568395
26.828216,2.148433757113326,0.10915662684273343
26.832808000000004,2.1437939208974637,0.10846099583025484
26.837396,2.137110846358014,0.10786247848718754
26.841996,2.12634129517139,0.10744587346114226
26.846576,2.1170040587376246,0.10704632703746472
26.851164,2.111508929522743,0.10650814009064077
26.855756000000003,2.1037261925559823,0.10610217186977582
26.860352,2.097131400913789,0.10575906997567314
26.864932,2.0969548351192766,0.10523522690086527
26.869524,2.103074310458299,0.10454412118556788
26.874124,2.1088272316548844,0.10392251019553513
26.878708,2.120754009270859,0.10318327671993051
26.883296,2.13333585190619,0.10246476255446069
26.887884000000003,2.1520915509609106,0.10161467740181064
26.892472,2.172157380054344,0.10081310989049326
26.897068,2.19017997082419,0.1000899701293745
26.901656,2.2110230496511263,0.09929055868854693
26.906256000000003,2.233009932354001,0.09845218667859222
26.910836,2.2573285642573824,0.09764020971210455
26.915424,2.280503392284825,0.09690134959620246
26.920016,2.29995829780753,0.09626934767691749
26.924604,2.3183915841684413,0.09569505016793393
26.9292,2.3360476207958505,0.09511696098988232
26.933796,2.3546030918709078,0.09450852849535155
26.938384000000003,2.371481878764815,0.09391925027803164
26.942984,2.386317427335135,0.09342252127907014
26.947576,2.4034405836573334,0.09279890883695768
26.952172,2.4219519132837624,0.09208991144301255
26.956768,2.4368655051196004,0.0914737710301016
26.961364,2.4538223352790247,0.09081241458397112
26.96596,2.4691024812572997,0.09015836170721098
26.970552,2.4789860205496876,0.08961596121264602
26.975148,2.490013363718014,0.08902506629632805
26.979728,2.499241837991045,0.08847634711721683
26.984324,2.509736300854161,0.08786647039072679
26.988904,2.5234178059168033,0.08713954801316103
26.9935,2.532357769312915,0.0865191690227773
26.998092000000003,2.5333691488429695,0.08611470695530751
27.002688000000003,2.527062868077696,0.08584123056602007
27.007268,2.523821444797802,0.08547089823250195
27.01186,2.5223788904132047,0.08507024666573325
27.01646,2.5172164135238697,0.08474207899208959
27.021052,2.51614041328171,0.08428598731266113
27.02564,2.5181292705249305,0.08373685936266893
27.030232,2.522161366091738,0.08312664928361786
27.034808,2.5273372655344843,0.08247194397651296
27.039396,2.5344342185866715,0.08178360052245859
27.04398,2.538588498867625,0.08117232621790173
27.048572000000004,2.538900671929694,0.08063633065579018
27.053164,2.528830327211055,0.08029854803925422
27.057744000000003,2.521336101121214,0.07994250710659355
27.062336,2.511798636707786,0.07964336695352263
27.06692,2.5004623033990616,0.07936533586497473
27.071508,2.485528232299747,0.07913181862111276
27.076104,2.4680180425716336,0.0789085491454652
27.080696,2.446665745624638,0.07876255005086655
27.0853,2.431976043953614,0.07847964182514766
27.089892000000003,2.4253371108627926,0.07797395027310511
27.094492,2.4226624697049997,0.07735455819974207
27.099088,2.4144690371471738,0.07682149939566592
27.103668000000003,2.406397789303494,0.07626819480992517
27.108272000000003,2.4033124525546357,0.0755821714190589
27.112852,2.3931979663873686,0.07508140422750292
27.117448,2.380140807448866,0.07464772965285243
27.122036,2.367738713529721,0.07424198833661272
27.12664,2.3531711965728426,0.07390833392405198
27.131232,2.3327183340734954,0.0737020777536716
27.13582,2.310344417964706,0.07353257256608599
27.140404,2.2937336626842404,0.07324436986203973
27.144996000000003,2.285584371575043,0.07280732419321594
27.149584,2.2758805809988405,0.07234956367792546
27.15418,2.2671984095844326,0.07185461675508074
27.158768,2.26031510706532,0.07133878494392522
27.163364,2.2590727806603854,0.07072733407024297
27.167952000000003,2.2573417153988684,0.07019052250572266
27.172536,2.2593305726420883,0.06959357051456079
27.177124000000003,2.2547790193234816,0.06910137058682359
27.181716,2.2499830965765844,0.06865390325718947
27.186308,2.2498065307820716,0.06815456121398528
27.190896,2.2532277027781507,0.06762336594261201
27.195492,2.2584477436695254,0.06708487559246265
27.200080000000003,2.260358557647228,0.06666350624270889
27.204676000000003,2.267788163024963,0.06617893817456015
27.209264,2.275217768402699,0.06569190384511998
27.213852,2.278028016828049,0.06525617896614418
27.21846,2.2798166460916063,0.06484071586532422
27.223048,2.29121054340237,0.06426811468579363
27.227652000000003,2.3064465479320173,0.06362736664533249
27.23224,2.320416563871578,0.06306326195755663
27.236828,2.333487145363492,0.0625182298287511
27.241424,2.3492560301983496,0.06196396159796164
27.246016,2.3695220872714464,0.06138764162317753
27.250612,2.3897881443445432,0.06082386168217479
27.2552,2.407111528646405,0.06032470140426811
27.2598,2.425700901538351,0.059766382493217966
27.264384000000003,2.443146470554358,0.059253942853481394
27.268988,2.4622687237515155,0.058743013604421905
27.273572,2.478570488891584,0.05827030939197158
27.278172,2.4892312779174737,0.057866109397882844
27.282764,2.5006693166768654,0.05748351787029531
27.287352,2.509164682665022,0.057149239948684004
27.291932,2.517004983633823,0.0567793841855604
27.296524,2.524434589011558,0.056350926573467686
27.301108000000003,2.532641444122796,0.055935755578923996
27.3057,2.5448125911670614,0.05545568319396536
27.310288000000003,2.5601707804108536,0.054897300717402946
27.314872,2.566945320769233,0.05444267529498008
27.319460000000003,2.570655003642231,0.05404581724178567
27.324056,2.5765301095529627,0.05360113183343116
27.328648,2.5774193043688713,0.05323067653685812
27.333236000000003,2.5756101958418376,0.05286819453502488
27.337828,2.5712249686860056,0.052497948973993055
27.342408,2.564796503206586,0.05216378951969114
27.347004,2.5554253649559313,0.05186440253563684
27.351596,2.5449104228293375,0.05159817489196056
27.356184,2.53758252290227,0.05126246018476692
27.360792,2.534218914908231,0.050874893688067135
27.36538,2.5295893183241076,0.05053424640891519
27.369972,2.5256147867593404,0.05022254439202183
27.374564000000003,2.514977659918601,0.04996677855943093
27.379152,2.501520045020772,0.04972826141320768
27.383748,2.4898612990182394,0.04948416496716451
27.388340000000003,2.473993891654387,0.04932782086202622
27.392936,2.455428180947591,0.049172819658839656
27.397512000000003,2.433675428041269,0.049088736430954225
27.402112,2.409757252097214,0.04905483073472858
27.4067,2.384939641705511,0.049021270903358165
27.411304,2.3640863232468368,0.048928142128102425
27.415896,2.3363260400839,0.04892936916550437
27.420492,2.314451102463432,0.04885277500554767
27.425072000000004,2.293109045148175,0.04882938850825382
