Time,Force,Position
25.374584,0.10375614771028947,0.0
25.379175999999998,0.10703147280707201,0.0
25.383764,0.10519870209488694,0.0
25.388364,0.10810747304923246,0.0
25.392948,0.10717413678469524,0.0
25.397535999999995,0.10906128857724724,0.0
25.402128,0.11875483952171041,0.0
25.406724,0.12947000962796712,0.0
25.411311999999995,0.14198404862951952,0.0
25.415907999999995,0.15727295678848846,0.0
25.420495999999996,0.17375128772306928,0.0
25.425084,0.18830856504820875,0.0
25.429672,0.20556414571629172,0.0
25.434259999999995,0.21783381528955276,0.0
25.438847999999997,0.23598883040528365,0.0
25.443431999999994,0.2515677268922166,0.0
25.448027999999997,0.27008929615038446,0.0
25.452616,0.2810488356849325,0.0
25.457212,0.28215873774398237,0.0
25.4618,0.2840458895365343,0.0
25.466387999999995,0.2900195179762604,0.0
25.470991999999995,0.29689258086363435,0.0
25.475579999999997,0.31055042374112596,0.0
25.480191999999995,0.32306446274267836,0.0
25.484779999999997,0.3428961620395593,0.0
25.489368,0.35900793883170307,0.0
25.493964,0.3731986620144055,0.0
25.498552,0.38661213546360573,0.0
25.503156,0.39924835917930385,0.0
25.507748,0.4117623981808562,0.0
25.512339999999995,0.4205565146776715,0.0
25.51692,0.43139386949807396,0.0
25.521519999999995,0.440310170709035,0.0
25.526112,0.45421238301481787,0.0
25.530716,0.46529410726351156,0.0
25.535304,0.47421040847447254,0.0
25.539903999999996,0.4791624177524051,0.0
25.544492,0.4896332184303704,0.0
25.549083999999997,0.5106087216031905,0.0
25.553679999999996,0.5276199328429823,0.0
25.558276,0.5359694519318431,0.0
25.56288,0.5482052196882148,0.0
25.567471999999995,0.5565208369601862,0.0
25.572059999999997,0.5641033459472835,0.0
25.576656,0.5671106394306241,0.0
25.581244,0.5756808657626257,0.0
25.585828,0.5851946679909034,0.0
25.590419999999995,0.5990054144777569,0.0
25.595012,0.6131488132901581,0.007771437243642025
25.599604,0.6327329602370746,0.015133241110903
25.604192,0.6575134858902151,0.022499139029659908
25.608788,0.6855693366401381,0.029868517698186003
25.613375999999995,0.715512339182613,0.03758361131069032
25.617971999999995,0.7464430590699922,0.04549273393272502
25.622556,0.7802825499117169,0.05357809318343221
25.627132,0.8213616577832524,0.06154779925820012
25.631732,0.8681700246662228,0.06963893778498957
25.636323999999995,0.9182537166459759,0.07759831200786424
25.640927999999995,0.9650723231606851,0.08572309643224868
25.64552,1.021828850048149,0.09366807607233335
25.650116,1.086802471678589,0.10152806090510433
25.654712,1.1544743966519724,0.10915564279761339
25.659308,1.2279094824536803,0.11662334498219941
25.663903999999995,1.30212181798889,0.12416736692799317
25.668488,1.3819751296382783,0.13156623274482698
25.673087999999996,1.4599073876782251,0.13903752597297114
25.677676,1.5395163298993222,0.14649924899421882
25.682272,1.620269075996358,0.15389172398629314
25.686856,1.7015105609499772,0.15355730927084096
25.691455999999995,1.7763338200559153,0.15377275091733175
25.696048,1.8490696993896383,0.1539813296758831
25.700639999999996,1.9193516448087091,0.15424862101540343
25.70522,1.9917548718168845,0.15407311840985832
25.709816,2.0606384042999863,0.15380871422070388
25.714415999999996,2.1306215992103987,0.15327322461647913
25.719012,2.1967185454533005,0.15288567204050363
25.7236,2.2627272087989456,0.15224176607784085
25.728191999999996,2.322395689562428,0.15180832678293676
25.73278,2.3825087677338646,0.15113025621309253
25.737364,2.4386914557891624,0.15051789010687092
25.741955999999995,2.4932755029288276,0.14988082881768927
25.746548,2.541274998058038,0.14949456582425388
25.75114,2.584733179500382,0.14922023925446967
25.75572,2.6273699697605952,0.14884040477391008
25.760312,2.663666577438645,0.14861668695562408
25.7649,2.700163413096358,0.14824485668743925
25.769488,2.7324854892096404,0.14787512962997137
25.774095999999997,2.7599777407591364,0.14751306563475228
25.778684,2.7868929705547925,0.14702507491197847
25.78328,2.81437498247255,0.14632607928180594
25.787868,2.8335957581987024,0.14580795492997517
25.792455999999994,2.8510515668464484,0.14512695723832267
25.797051999999997,2.864332615949764,0.14446070014595414
25.801644,2.8790798816228285,0.14356114569809214
25.806248,2.886954084408518,0.14275567828712388
25.810835999999995,2.8965388731922475,0.14169995058189133
25.815428,2.899416925251377,0.14081075698230602
25.820007999999994,2.9000412713755175,0.13981940686826422
25.824608,2.8952248693651423,0.1389020308581786
25.829196,2.8864000339731106,0.13805736704467603
25.833796,2.872667330751774,0.13730779769414417
25.838379999999997,2.852227890805838,0.13671166910937085
25.842975999999997,2.8277800174782457,0.13618160399797197
25.847567999999995,2.801366949092583,0.13561468126485832
25.852163999999995,2.7726221315064143,0.13507639086894374
25.856759999999998,2.7399910652527346,0.13457740257263345
25.861348,2.7037622612084635,0.13420804444059142
25.865939999999995,2.664590784392957,0.13397098707489535
25.870527999999997,2.62320974309109,0.13371788755161365
25.875119999999995,2.5799076481797814,0.13353440130567554
25.879715999999995,2.5442897677062386,0.13301569799957325
25.884303999999997,2.5052404756048783,0.13271537613048376
25.888895999999995,2.461982522142198,0.1326625931307853
25.893488,2.4169698412328504,0.13277808922893208
25.898076,2.3732672903622163,0.13292252124328682
25.902663999999994,2.3238457201118856,0.13344062708085705
25.907239999999994,2.2758564646144137,0.13398830264524006
25.911835999999997,2.230609653908514,0.13455943236023551
25.916419999999995,2.1891269071559782,0.1350907727941595
25.921007999999997,2.147932671280363,0.13570853760272342
25.9256,2.1088258151769623,0.13634089793859033
25.930187999999998,2.0803899877311904,0.13657170129642537
25.934776,2.0549409745052816,0.13678438446515792
25.939379999999996,2.0305577218897946,0.1370631134051728
25.943971999999995,2.009039098780025,0.13735685224089944
25.948576,1.9892413013000334,0.13774185346242965
25.95316,1.9754951755252859,0.13792071923572
25.957759999999997,1.9646136792562554,0.1381098748843786
25.96234,1.9553308239028573,0.13840846141724472
25.966944,1.9503007713594074,0.13855969279157415
25.971532,1.945437044978731,0.13881598770185316
25.976132,1.947646609465092,0.1388063022006706
25.980715999999997,1.9568072801043443,0.1385504091597417
25.985311999999997,1.9707094924101272,0.13807581269566055
25.989904,1.9897639419735058,0.1374500745947994
25.994499999999995,2.014459367651063,0.1365598978601696
25.999095999999994,2.0455730191763006,0.13543148848412465
26.003696,2.0786077243109795,0.13423198818611365
26.008284,2.1095991911220713,0.13314310855278308
26.01288,2.139446854057224,0.13210261414614924
26.017467999999997,2.1710933858876724,0.13100925243212633
26.022056,2.198775625785093,0.13016594830073508
26.026644,2.228256734577809,0.12927094089827268
26.03124,2.258759462532318,0.12833079741172193
26.035832,2.289750929343411,0.12729650038932785
26.04042,2.324951057515823,0.12605432309371187
26.045012,2.362438793440113,0.12473376266449754
26.049592,2.4018034415252165,0.12322093554175319
26.054171999999998,2.438714155695668,0.12173687885118321
26.058755999999995,2.4711276976278795,0.12042469819208776
26.063336,2.503130543969027,0.11908868431955527
26.067924,2.529981153052578,0.11790521317679085
26.07252,2.554500012935622,0.11676585063178932
26.077108,2.572600646970986,0.11584856594593115
26.081703999999995,2.5886139012341345,0.11494041900691841
26.086299999999994,2.5976760493443916,0.11418715601862847
26.090895999999997,2.5977438529781707,0.11367998994101915
26.095484,2.5954799074114425,0.11318651192346768
26.100083999999995,2.5949706892913826,0.11252859211132983
26.104664,2.5980150675132854,0.11165924927495603
26.109267999999997,2.59795044680118,0.11080501693460615
26.113859999999995,2.598741119088094,0.10981419021061567
26.118455999999995,2.5943795541174124,0.10891337923075828
26.123048,2.5893629241273746,0.10799839072935621
26.127644,2.583569044403834,0.10708290429782141
26.132231999999995,2.5726229274226977,0.10625913188767816
26.136824,2.5550142151655897,0.10563496280895295
26.14142,2.534096275994809,0.10516160564725122
26.146012,2.516365379023555,0.10454572476773413
26.150603999999998,2.500555535661743,0.1038658376031101
26.155187999999995,2.4827024539763425,0.10326025701673149
26.15978,2.4676698603480327,0.10257118550751003
26.164376,2.4528816361480135,0.10183887164496769
26.168963999999995,2.441691149738586,0.10102609224246059
26.173564,2.429112490024928,0.1003074173608133
26.178155999999998,2.4206644484070727,0.0995425997809507
26.182748,2.4192896976562537,0.09864036549901549
26.187344,2.4173040233347063,0.09783088475137232
26.191931999999998,2.413807990994783,0.09713664807964904
26.196527999999997,2.408801600636483,0.09656041295491921
26.201116,2.405105340316897,0.09602193464155459
26.205704,2.4006759717124364,0.09559971398598782
26.210296,2.400743775346215,0.09508410930871762
26.214887999999995,2.401466643999351,0.09459285863078871
26.219488,2.405542881014786,0.09407733874342752
26.224084,2.4104405092123513,0.09367912466411014
26.228672,2.4198353096481564,0.09319528064563473
26.233267999999995,2.4320505981410507,0.09263912209536271
26.23786,2.443777147777362,0.09217052494094212
26.242451999999997,2.454115524109443,0.09179327692532055
26.24704,2.464453900441524,0.09141385753319062
26.251639999999995,2.4746700920594593,0.09106269732944931
26.256232,2.4845197295349566,0.09077350813984958
26.260831999999997,2.4917932483816574,0.09051289520737492
26.265415999999995,2.4960019097429766,0.09035294828646695
26.270016,2.5031532438755315,0.09011206055636316
26.274612,2.506706840217495,0.0899352620269443
26.279203999999996,2.512425859597191,0.08967245259376003
26.283784,2.5192886828528263,0.08935680444492054
26.28838,2.53011579804149,0.08893622957495279
26.292967999999995,2.543108336267886,0.08843969684470618
26.297563999999998,2.5563452439225736,0.0879088388667295
26.302152,2.570481586024909,0.08737699679389732
26.30674,2.579876386460714,0.08694175457446074
26.311319999999995,2.586695068267721,0.08653618766223553
26.315915999999994,2.5934696086261,0.086016512810505
26.320508,2.5986896495174743,0.08549349486104559
26.325095999999995,2.60415405983714,0.0849417367163143
26.329691999999994,2.6071645362421534,0.08439003800675193
26.33428,2.6127069898273376,0.08370979549065308
26.338876,2.6192710625743145,0.08299953826343265
26.343464,2.622115212816554,0.08235104578343627
26.34806,2.627902035830029,0.08164276660209367
26.352647999999995,2.636509346900593,0.08088458992123217
26.357228,2.65034693849427,0.07996435995067784
26.361836,2.6605867922973556,0.07910013604237538
26.366423999999995,2.672869884424028,0.07818460698436212
26.371024,2.6853973459789926,0.07724933119168274
26.37562,2.696903188372163,0.07634110015415281
26.380208,2.702112989631799,0.07550893369422802
26.384803999999995,2.7036028683866973,0.07473293167171814
26.389391999999997,2.704071127979803,0.07398118685368284
26.393987999999997,2.7018410842299647,0.07325885207729378
26.398576,2.707539624346183,0.07237143458790748
26.403175999999995,2.711439295567106,0.07149722417696244
26.407763999999997,2.7170156509691785,0.07062837186237604
26.412372,2.718505529724077,0.06984716956391263
26.416963999999997,2.719095974031328,0.06907872764430396
26.42156,2.722384721681522,0.06828749785322463
26.426156,2.721709177398688,0.06757163227399335
26.430752,2.721810882849356,0.06686874521022175
26.435343999999997,2.727309194985911,0.06612618393550518
26.439939999999996,2.7271665310082875,0.06545811878661921
26.444531999999995,2.723836824831138,0.06487326077186932
26.449127999999995,2.7184638803304018,0.06433678266683439
26.453715999999996,2.7138681855631677,0.06380891817009006
26.458299999999998,2.705308198862905,0.06334916346999671
26.462888,2.6963816580202056,0.06293906144062006
26.467484,2.6903977899487406,0.06248161115247616
26.472072,2.687522920811284,0.062065500382035406
26.476664,2.6862025511408323,0.0616691830344586
26.48126,2.683738377594441,0.061306778293607526
26.485848,2.6828287035150544,0.06096713032528396
26.49044,2.6769331183408465,0.060718468328992824
26.495028,2.6745130862430835,0.06046765285225853
26.499624,2.6705826961269445,0.0603017770797891
26.504208,2.673437086000923,0.06004148005347521
26.508799999999997,2.675025487284817,0.059833290444554474
26.513395999999997,2.676491703854565,0.059642940696747485
26.517976,2.681555658214904,0.05943628642104798
26.522575999999997,2.6858423628417407,0.059219351577230475
26.527171999999997,2.6856318952303386,0.0590214344062817
26.53176,2.6899185998571755,0.058805880995556566
26.536364,2.699191215578835,0.058512216048984364
26.540944,2.7053989738151145,0.0582736437175248
26.545548,2.7117289167655394,0.05802065328836392
26.550135999999995,2.722800401382494,0.05772042386275627
26.554736,2.728885974904627,0.05749582317704977
26.559324,2.735748798160262,0.05729033446089287
26.563931999999998,2.7422009258248314,0.05702684048419797
26.568524,2.7487752382035473,0.05674822325310182
26.573123999999996,2.762256515286526,0.05637895936250964
26.57772,2.776104346511943,0.055969086163465305
26.582308,2.792772665794448,0.055541360509030344
26.586887999999995,2.8058432472863615,0.055124515562874704
26.59148,2.8174815140254164,0.05466246089344609
26.596072,2.825277673545589,0.054245024702096155
26.600663999999995,2.8339732675134095,0.053824224543283644
26.605251999999997,2.8391933084047847,0.0533946903961806
26.60984,2.845557153172098,0.052939562136080996
26.61442,2.85282043238706,0.05248662342000118
26.619015999999995,2.863026384373256,0.05200091208605413
26.623608,2.8715556521783023,0.05150795649005889
26.6282,2.876364997478612,0.051039296666488675
26.632796,2.881418712207212,0.05053179439143823
26.637384,2.8834075694504313,0.050067346935134226
26.64198,2.881676504188915,0.04962125322848415
26.646559999999997,2.8836212199835067,0.04904485770387207
26.651152,2.879025525216272,0.04850066872519504
26.655744,2.8694439193542163,0.04801056344122045
26.660335999999997,2.8570418254350707,0.047531336695070446
26.664924,2.8341350290210703,0.047126692946775656
26.669515999999994,2.807386125388188,0.04674488906529941
26.674108,2.774996245641127,0.04638660805376129
26.678712,2.7435058003417128,0.046021447814850416
26.6833,2.712015355042299,0.04564733916119134
26.687895999999995,2.6796254752952375,0.045264504829337505
26.692483999999997,2.647357780262322,0.04486340166865324
26.697084,2.6155007808204713,0.04452224606560096
26.701676,2.578657870283799,0.04423764549049405
26.706275999999995,2.538872286975892,0.04397742449868909
26.710863999999997,2.4950002270208103,0.04377276284776362
26.715464,2.4461422559709067,0.04362662708303456
26.720063999999997,2.3951188618832706,0.04352462518774523
26.724664,2.3476932055862254,0.04341967025974707
26.729248,2.3032102220604154,0.04328105094932782
26.733844,2.2604039227157555,0.043158792573089216
26.738432,2.21662014565793,0.04317440264463845
26.743027999999995,2.1755346719430486,0.04319364832753135
26.747612,2.1408674240758474,0.0432079073636659
26.752208,2.1060779914945007,0.043243131152856884
26.7568,2.0747641119895994,0.04331251184317032
26.761388,2.042961493628116,0.04347009162440455
26.765975999999995,2.012713374733637,0.043681441356722354
26.770568,1.9820987016967206,0.043961281977310675
26.775152,1.954182332002748,0.0442384109661137
26.77974,1.9288420809375735,0.044538052440677545
26.784339999999997,1.9006813418153095,0.04485624177719649
26.788928,1.873908775997276,0.045092409287575644
26.793519999999997,1.850978317398125,0.04529222309869796
26.798112,1.8271484243513265,0.04549439642100662
26.802699999999994,1.8040957810380298,0.045734198476826124
26.807295999999997,1.7859068641054094,0.0459177457524947
26.811884,1.7704162505157328,0.04611214075097384
26.81648,1.7519829641548212,0.0463523397421962
26.821068,1.7304848203085288,0.046669918242508636
26.82566,1.7051445692433538,0.047049682319148876
26.830264,1.682336295358349,0.047278340524020385
26.834844,1.656585348702109,0.04757183543036553
26.839436,1.625559980074127,0.04783516625515216
26.844027999999994,1.5974772842173808,0.0480496563866668
26.848615999999996,1.570660576950719,0.04819036922986893
26.853204,1.5470309118835834,0.04823221646266743
26.857803999999994,1.5235234315305937,0.04825974139481285
26.862388,1.4974398325488059,0.04827450754301476
26.866983999999995,1.4675141263481353,0.048353505419449216
26.871579999999994,1.43296906319508,0.04847858598712135
26.876172,1.4031655417085551,0.04852179548901982
26.880764,1.3738949005272412,0.048653381666251924
26.88536,1.3437248248982796,0.0487706521794959
26.889948,1.313554749269318,0.04889277208401961
26.894544,1.2856722813922346,0.04888388928278915
26.899128,1.256646009639212,0.04894146228858724
26.903712,1.2278641073144811,0.04893213218138675
26.9083,1.1992043897038955,0.04889549014430951
26.912896,1.1725879104168968,0.048802319522241504
26.917488,1.1491584733294242,0.048559286398621816
26.922076,1.1186998868235432,0.04853804087759434
26.926675999999997,1.0922055922506901,0.0484042362813453
26.931264,1.0709857196495791,0.04829831051824468
26.935855999999998,1.0487442278866739,0.048223876819406944
26.940444,1.0275243552855624,0.04808511731841994
26.945035999999995,1.0043834290750098,0.047973198039788015
26.949631999999998,0.9814868722927482,0.04556204074015826
26.95422,0.9635762266053087,0.0451769954796263
26.958808,0.9484860689749584,0.04475237939651732
26.963404,0.9363385841158431,0.04422357723494105
26.967991999999995,0.9212484264854929,0.04177230494418142
26.972596,0.9055032038357861,0.0392825351646813
26.977183999999998,0.8838726356436095,0.03683126287392166
26.981779999999997,0.8627749477566439,0.03437727841117047
26.98636,0.8378351526507953,0.03200374097672097
26.990951999999997,0.8112186733637967,0.02958981752011258
26.995532,0.7828033251815024,0.02721672739163313
27.000136,0.7534885425515603,0.02484458064014565
27.004727999999997,0.7244181293499095,0.022472931764588193
27.009324,0.6939595428440283,0.020188959814254587
27.01392,0.6704079210424104,0.017771865058701476
27.018516,0.6430141920219096,0.015404294073872796
27.023107999999997,0.6139437788202589,0.013035439175868118
27.027696,0.585772800066256,0.010667212870392746
27.032287999999998,0.556458017436314,0.008395151852427373
27.036876,0.5289421037016676,0.006128575402546434
27.041464,0.5041244933099648,0.006128575402546434
27.046052,0.4762420254328814,0.004066318782189394
27.050639999999994,0.4447618197652067,0.0020040621618323553
27.055235999999997,0.4148361135645362,0.0
27.059831999999997,0.3840109729162179,0.0
27.064423999999995,0.35114259394431246,0.0
27.069019999999995,0.32403737580073133,0.0
27.073612,0.30396130707555913,0.0
27.078204,0.2883824105886261,0.0
27.082795999999995,0.27550181744463675,0.0
