Time,Force,Position
25.569024,0.298669385366895,0.0
25.573612,0.3018564275664212,0.0
25.578216,0.29813650506168415,0.0
25.582804,0.2935171481092993,0.0
25.587408,0.28812054142341215,0.0
25.591988,0.28284611945167076,0.0
25.596588,0.27475120942284004,0.0
25.601168,0.26551249551807016,0.0
25.605764,0.25680666191851115,0.0
25.610356,0.2546412388807785,0.0
25.614956,0.24683483972886733,0.0
25.61954,0.23902844057695616,0.0
25.624136,0.2291788031014579,0.0
25.628727999999995,0.22035078478775322,0.0
25.63332,0.21344382008348994,0.0
25.63792,0.20334981317970036,0.0
25.642512,0.1922341871141173,0.0
25.647099999999995,0.18610447214335618,0.0
25.651688,0.17805370356315364,0.0
25.656268,0.17396722691597954,0.0
25.660868,0.1706580000023076,0.0
25.665451999999995,0.16068617781266373,0.0
25.670032,0.15762132032728315,0.0
25.674628,0.15136942064237635,0.0
25.679216,0.1405034291864133,0.0
25.6838,0.13466222509257164,0.0
25.688388,0.13331819323696928,0.0
25.692968,0.1329957805431604,0.0
25.697568,0.12895344534461445,0.0
25.702155999999995,0.12323442596491849,0.0
25.706748,0.11943646019466389,0.0
25.711336,0.11755954803385064,0.0
25.715924,0.11748150476833313,0.0
25.72052,0.11560459260751992,0.0
25.7251,0.11012994265611528,0.0
25.729688,0.10400022768535415,0.0
25.734276,0.0968488935527995,0.0
25.738876,0.08855375554430564,0.0
25.743472,0.08283473616460969,0.0
25.748064,0.07801515123256156,0.0
25.752655999999995,0.07319556630051342,0.0
25.757252,0.07041921969205234,0.0
25.761848,0.06764287308359127,0.0
25.766444,0.07201786060768485,0.0
25.771032,0.08088475518868905,0.0
25.775628,0.0865257313028675,0.0
25.780216,0.08959058878824808,0.0
25.784808,0.08905770848303723,0.0
25.789384,0.0926113048250005,0.0
25.793976,0.0952654667193159,0.0
25.798559999999995,0.09677582473769213,0.0
25.803152,0.09612075971833561,0.0
25.807744,0.0918679569083877,0.0
25.812324,0.09031345744138333,0.0
25.816916,0.08773733881258546,0.0
25.8215,0.08785952352673113,0.0
25.826076,0.08810389295502247,0.0
25.830672,0.089492066259253,0.0
25.835263999999995,0.0876543210966578,0.0
25.839852,0.0838955223246212,0.0
25.844444,0.07923728910493676,0.0
25.849036,0.07535630561875449,0.0
25.853632,0.06955426852313086,0.0
25.858208,0.060687373942126636,0.0
25.862808,0.051820479361122426,0.0
25.867388,0.04295358478011822,0.0
25.871987999999995,0.03498612464676186,0.0
25.876572,0.029716967856349058,0.0
25.881164,0.02330400718999706,0.0
25.885752,0.016768861809499394,0.0
25.890348,0.01227695475258877,0.0
25.894936,0.008928851571617342,0.0
25.899528,0.007379617285941616,0.0
25.904115999999995,0.004031514104970186,0.0
25.908704,0.0035038989810879835,0.0
25.913292,0.0020768494095579288,0.0
25.917888,0.001549234285675726,0.0
25.92248,0.0,0.0
25.92706,0.0004054304097365315,0.0
25.931652,0.0027319144289144376,0.0
25.936243999999995,0.007756701791035896,0.0
25.940828,0.013969434477724701,0.0
25.945412,0.02365772024085924,0.0
25.949988,0.03465613604270773,0.0
25.954584,0.045820878007330035,0.0
25.959171999999995,0.058173565296519694,0.0
25.96376,0.0735130668055724,0.0
25.968356,0.0935160667156382,0.0
25.972956,0.11511770754133649,0.0
25.977564,0.13766292426331078,0.0
25.982156,0.16348346608206762,0.0
25.98676,0.1937231368735462,0.0
25.991347999999995,0.23287910887598579,0.0
25.995943999999994,0.2753104059752079,0.006575178168205872
26.000524,0.3207726587429212,0.013424377552860954
26.005128,0.3686108021597692,0.020490063864226096
26.009716,0.420501520406902,0.02763496372929045
26.014316,0.47374651014137587,0.03509153934039572
26.018899999999995,0.5321931437634023,0.04252857951743735
26.023495999999994,0.5944479827874222,0.049907573973286046
26.028088,0.6598559621940788,0.057199712211969414
26.03268,0.7288616793913271,0.06431965773323049
26.037268,0.7977893533230576,0.07147518346013022
26.041864,0.8677827878652089,0.07874959194763871
26.046451999999995,0.9431728290932474,0.08585574108809423
26.051036,1.023592922864736,0.0928268806760686
26.055623999999995,1.1043015275131438,0.09986001337795292
26.060224,1.1821896441044626,0.10695556153217706
26.064808,1.2614659340000118,0.11401579108929992
26.069399999999995,1.3434405272385048,0.12105377728040842
26.073996,1.422672675685426,0.1281280007401145
26.078584,1.5004725093794886,0.13516983628664564
26.083175999999995,1.5707883566154488,0.1422082818288103
26.087756,1.6423260509928657,0.14248848045254053
26.092344,1.709444616397561,0.14262396864745885
26.096944,1.7783179092489239,0.1424344741445205
26.101532,1.8455925611846538,0.14210869640461543
26.106136,1.9118014525099623,0.14154817186825766
26.110724,1.9713816503761883,0.1410636467940688
26.115312,2.0213904820120967,0.14082637026914244
26.119916,2.064648435474777,0.1407134703403722
26.124503999999995,2.1010774674987114,0.14089773633846855
26.129107999999995,2.1362744127494504,0.14089792780988838
26.133703999999994,2.1697063909217826,0.14066238445621274
26.138296,2.1949993176166562,0.14068325401227413
26.142876,2.213541366138302,0.14080536063156704
26.147464,2.229296828419747,0.1407700747090151
26.152048,2.238057043099673,0.14085528911866055
26.156648,2.2454629862922584,0.14078776096787793
26.161232,2.2479169202069107,0.14072047564724774
26.165828,2.2491829087969952,0.14060574946107465
26.170416,2.2452525186808567,0.14053978671835168
26.175011999999995,2.237680249325498,0.14049429967611887
26.1796,2.219436951312511,0.1409063029154306
26.184196,2.206135422945717,0.1408671693294316
26.188787999999995,2.184694843101465,0.14103994821895524
26.193368,2.1556480920849648,0.14148919223584133
26.197956,2.1241032657051844,0.1418886638644944
26.202548,2.0944353514862173,0.14201944099203873
26.207139999999995,2.069997717790363,0.14179602489262286
26.211728,2.0432283348940024,0.1416308498530944
26.216324,2.0162926258348683,0.1413622500734986
26.2209,1.9867807981469359,0.1411654250150327
26.225483999999994,1.9520386899358904,0.14137606420283877
26.23008,1.9174187664389903,0.14159847259579322
26.234668,1.8827988429420905,0.1418071814616809
26.239276,1.847157300283397,0.1420631534474409
26.243863999999995,1.8198550370818258,0.14183571319780913
26.248452,1.787322493357141,0.1420126349623738
26.253044,1.7536461457565171,0.1423141637875483
26.257624,1.7190703637082454,0.14267414095721412
26.262215999999995,1.6868263308604803,0.14298025372589263
26.266804,1.6557702433372823,0.14336923978416874
26.271404,1.6338306850047086,0.14322835105698423
26.275991999999995,1.606538661434876,0.14352742102566243
26.280592,1.5839101362660566,0.1437370016264468
26.285172,1.5692543364119222,0.14351782400532992
26.289772,1.559750773815383,0.14304357573514828
26.294368,1.5480037449155941,0.14296996457840824
26.298952,1.5393657149498141,0.1428069742991842
26.303543999999995,1.5364128025468404,0.14247076372940184
26.308136,1.5391450077066733,0.14196687380639228
26.312724,1.5408997351533409,0.14170365087908648
26.317319999999995,1.5480510692858958,0.14113545941629843
26.321908,1.5610097056954026,0.1403545330318923
26.326491999999995,1.5749119180011855,0.13969458415139158
26.33108,1.590779325365038,0.13908496187318933
26.335671999999995,1.6029709516727815,0.13888995500140094
26.340264,1.6192931960763275,0.13852161132213617
26.344856,1.642077807776182,0.13795413645694815
26.349447999999995,1.6696481025911951,0.13726255190180472
26.354028,1.6995501466067149,0.13654761718515507
26.358619999999995,1.7328055589845346,0.135699678818425
26.363216,1.7636511788963307,0.13514614348326046
26.367792,1.795684744132694,0.1345995911790744
26.372408,1.8259194404737613,0.13412759696649018
26.376996,1.854888148224744,0.13383973850200792
26.381592,1.8833681171191436,0.1337188048501321
26.38618,1.9149129434989243,0.13336231215392738
26.390768,1.938895740155085,0.1334432946168191
26.39538,1.9604246028965935,0.13360173593139088
26.399968,1.9803989661710977,0.133807469108466
26.40456,2.004581990806922,0.1337192702041904
26.40914,2.0296644498903933,0.13360107945284377
26.413744,2.0543362133828,0.13345257320952705
26.418332,2.073977924331756,0.1334180373251452
26.422932,2.091532255508498,0.13336827006083576
26.427512,2.110596944703615,0.13314671015728427
26.432112,2.132193611078902,0.13271538530820234
26.436696,2.1482273446055284,0.13239830688650064
26.441292,2.1576765261217004,0.13224258451522086
26.445879999999995,2.1629950895420698,0.1321919310976236
26.450475999999995,2.1645495890090745,0.13217071164276947
26.455076,2.1649161431515114,0.13209634108508092
26.459672,2.1693250324924946,0.1316513056119251
26.46426,2.1781869526230886,0.13090999310570406
26.468855999999995,2.1870047313050542,0.1300528757738986
26.473436,2.19079245744357,0.1293194257250936
26.47802,2.1913489999339317,0.1286455945637377
26.4826,2.19648075792805,0.1276451850799295
26.487184,2.2030006892263985,0.12652744825616988
26.49178,2.202202960229419,0.12567656744708464
26.496368,2.194209755651256,0.1250844292506837
26.500964,2.1878490938056157,0.12432412606200495
26.505551999999994,2.173393521931144,0.12383992658674302
26.51014,2.1686654028180254,0.12289784523072145
26.514748,2.164714533438409,0.12194521347604963
26.519336,2.1589647951634965,0.12105433229103645
26.52394,2.1464302768984664,0.12047036940796436
26.528532,2.1365940619763797,0.11978988230844846
26.533136,2.1321544537401804,0.11891998742987252
26.537724,2.1295137143992773,0.11798207665504541
26.542311999999995,2.1256069864682887,0.11713209468854124
26.546907999999995,2.1224775082708027,0.11627185395484649
26.5515,2.1138733801219116,0.11576539652780818
26.556104,2.102082209773494,0.11544169806364732
26.560683999999995,2.086981812511405,0.11531992601804404
26.565284,2.075723522468199,0.1150292327897895
26.569863999999995,2.0671635357679365,0.11464717096275301
26.574468,2.057215375763443,0.11438391262154118
26.579056,2.0439579888452775,0.11432090551677218
26.583656,2.0399393158318824,0.11392713885453738
26.58824,2.0438933681331717,0.11329980671150212
26.592836,2.0454376279684374,0.11285988611009526
26.597424,2.052911374794801,0.11228503618438598
26.602011999999995,2.0570758947074927,0.11193201194446765
26.606592,2.0629170988013343,0.11155556673251264
26.611176,2.0726004101140587,0.11104352930853403
26.615772,2.088169066969253,0.1102868300654974
26.620356,2.10169448550086,0.10962936185390328
26.624944,2.111133427385293,0.10916121334520945
26.62954,2.118651315660285,0.10876079431854606
26.634132,2.1354079178400465,0.10808735521466996
26.63872,2.1542077583433947,0.10733985892166112
26.643311999999995,2.174273587436829,0.10648282578231569
26.647892,2.192296178206675,0.10570912226084035
26.652484,2.2119954531576718,0.10489492638782562
26.65708,2.228507685909142,0.10424760230222781
26.661668,2.2419550611752315,0.10374185218324689
26.666267999999995,2.2534813828318794,0.10330393645824042
26.67086,2.269871430869204,0.10267683503478439
26.675464,2.2825415564017915,0.10219153257196731
26.680048,2.288260575781487,0.10185179251991829
26.684648,2.289482422922944,0.10162514413295916
26.689252,2.2911930089209833,0.10131153253573218
26.693852,2.2866075537854877,0.10115983093173031
26.698443999999995,2.2778914805541897,0.10105670437611652
26.703036,2.265088930675718,0.10113341265675274
26.70764,2.2464010352547765,0.10144272018276447
26.712228,2.2289791284239193,0.10165682684303026
26.716828,2.216787502116176,0.10161421665710522
26.721416,2.2103590366367567,0.10136702777948019
26.726012,2.1949362266808583,0.10132820571174314
26.730596,2.173628071182491,0.10150448947641458
26.735192,2.1551404037412123,0.10158703605559373
26.739784,2.137796540175873,0.10161036101461254
26.744375999999995,2.1218408499147645,0.1015197038379512
26.748964,2.106129529081947,0.10138900147513881
26.75356,2.091684196839214,0.10117002687560997
26.758148,2.0790377334917776,0.10090788708101245
26.762744,2.0598508595825145,0.10084474356123214
26.767332,2.0397645512256033,0.10080151072812461
26.771919999999994,2.0259742840022277,0.10059794005994643
26.776508,2.0162704934260254,0.10020936747337532
26.781092,2.008365571745119,0.09977717044190253
26.785684,2.0061016261783915,0.09916628423022139
26.790271999999995,2.003348941755081,0.09863542146492876
26.794864,1.999941192312414,0.09807301907575347
26.799451999999995,2.0020522342697795,0.09734215515255853
26.804047999999995,2.004696156532356,0.09666639976901015
26.808632,2.003375786861904,0.09615905272181341
26.81322,1.9953928219154806,0.09587278189605467
26.817816,1.9879427372742677,0.09563384145795789
26.822404,1.986255813461379,0.09518708026163558
26.826992,1.983547270486697,0.09479115946458361
26.831596,1.9826375964073104,0.09435286942648555
26.836184,1.9804619337378389,0.09400815931233818
26.840776,1.982905628020752,0.09354092648709894
26.845368,1.9888248753801112,0.09302512020165211
26.849968,1.9938446882918226,0.09252615103974986
26.854548,2.001440619832332,0.09197413668573426
26.859148,2.0108354202681364,0.09138346596779963
26.863736,2.017287547932707,0.09091237822783854
26.868336,2.0221071328647544,0.09060060500431986
26.872927999999995,2.0228402411496287,0.09046212672122289
26.877524,2.0262716527774463,0.09027449085136237
26.88212,2.0353440405194423,0.0899353205223471
26.886716,2.0510790235374103,0.08942322237877841
26.891304,2.0670583759836694,0.08888491150543558
26.8959,2.0841815323058683,0.08830194912186638
26.900488,2.101060319199775,0.08775476935831669
26.90508,2.1207595941507713,0.08712759156307207
26.909668,2.142379922711209,0.08643341854078337
26.914252,2.1657991201669424,0.08574456121331082
26.918844,2.1874194487273804,0.08509240787136478
26.923435999999995,2.209161962001964,0.08443472430315702
26.928031999999995,2.2310266599906936,0.08375834297427621
26.932624,2.2500708699223333,0.08316524071261919
26.93722,2.2655173420633816,0.08263825248843404
26.9418,2.2868491597469,0.08197128409081873
26.946392,2.3113680196299446,0.08119349549788754
26.95098,2.3349874450653414,0.08043789216102605
26.955572,2.358073990195527,0.07963819550078848
26.960168,2.382426523915798,0.07875869484466069
26.964756,2.4079228615120076,0.07782097221140429
26.969344,2.426878788546391,0.07702233086515005
26.97394,2.4414597280566817,0.0762744258309493
26.978528,2.442837661729173,0.07578231623791172
26.983124,2.442661095934661,0.07527936416119481
26.98772,2.4359441195783216,0.07488784171726998
26.992312,2.4297158820785656,0.07441366121214678
26.9969,2.424509263740603,0.07390979823886677
27.0015,2.42351130676396,0.07327556992791526
27.006091999999995,2.4131524511684015,0.07279520720783324
27.010684,2.402016345839341,0.07229898043633455
27.015276,2.3861386988437494,0.07188663253999122
27.019872,2.3674405637910687,0.07152088238257545
27.024456,2.3459219406812992,0.07120319529119774
27.029052,2.32440331757153,0.07088127957783678
27.03364,2.2944232302904926,0.07070086141748227
27.038232,2.260601035790572,0.07058942002439243
27.042824,2.224979972395356,0.07049325048173663
27.047412,2.1880929204100554,0.07046342289033936
27.052,2.1504286186912527,0.07041297392626367
27.056596,2.1110876327912997,0.0703521597366978
27.061184,2.073789885214934,0.0702272090491431
27.065776,2.0402120601433054,0.07002678024518581
27.070372,2.019715056195329,0.06961217276950725
27.07496,1.9968082597813288,0.06931467253820928
27.079556,1.9796646241956528,0.06889178694025766
27.084143999999995,1.9659965416864227,0.06845267303694735
27.088736,1.9493857864059574,0.06807645773998189
27.093328,1.9277891200306698,0.06781455920249053
27.097916,1.9101567455884114,0.06745181055007499
27.102523999999995,1.8961221089367437,0.06705362280835586
27.107112,1.8860517642181047,0.06655222136541418
27.111716,1.877902473108907,0.06600544134890643
27.116308,1.8734731045044466,0.06540158769084534
27.120895999999995,1.8709647895094275,0.06476071874064233
27.125488,1.8748747003620891,0.06404577857636776
27.13008,1.8843034026147831,0.06327734583447417
27.134676,1.8983514618198623,0.062462047253957584
27.139272,1.9161194435296784,0.06159977711221708
27.143864,1.9385067821918796,0.06070986135816146
27.148447999999995,1.9652691083781741,0.059824325311384104
27.153048,1.9926864995838258,0.05897836159778503
27.157627999999995,2.018837902199392,0.05822559048446878
27.16222,2.039226143986635,0.05758884815476746
27.166812,2.064600296868698,0.05685441899607587
27.171408,2.09140676450362,0.05619524170599863
27.175992,2.1134716904720117,0.05560507121235517
27.180588,2.1392565389451406,0.05498184457636339
27.185176,2.1677396907612123,0.054355874731868224
27.189772,2.2005978301013775,0.05374403399613639
27.194364,2.2266711894514257,0.0532285556825298
27.198952,2.2542990482684777,0.05276244451999142
27.203544,2.284869579856765,0.052262039608239885
27.208132,2.316706100035137,0.0517228940507706
27.212723999999994,2.3484204354993636,0.05121695312416272
27.217316,2.375393229297059,0.05076618988713053
27.2219,2.3941489283517785,0.05035260273426008
27.226488,2.406364216844672,0.04998638774562906
27.231075999999995,2.4158812019946216,0.04962678201137991
27.235668,2.4175917879926603,0.04936700628567057
27.24026,2.4137835825906664,0.04912964880895844
27.244856,2.408176508293376,0.048891572901096525
27.249444,2.40077056510079,0.04865462649588061
27.254036,2.39348680662235,0.04839648913816987
27.258624,2.3814615064773808,0.04817569939744769
27.263224,2.3650612188083175,0.047936572075645764
27.26782,2.349560365586902,0.047694522995572725
27.272408,2.330583959289041,0.04742929429273811
27.277004,2.3042898926958513,0.04717449021239377
27.281583999999995,2.272354849988483,0.046955962346757384
27.286176,2.2463051528235845,0.04665758170191375
27.290764,2.217312782887451,0.04639823432775851
27.295364,2.1833345018564962,0.0462085404483104
27.299955999999995,2.142204886692986,0.04614971002795242
27.304556,2.0993985873483263,0.04605758020752717
27.309152,2.055570668841873,0.045986786769196646
27.313744,2.014973933983574,0.04598408107484779
27.318328,1.9751544488587776,0.046007455158704344
27.32292,1.9350905943056895,0.04607531194867324
27.32752,1.8998904661332774,0.04608273807211138
27.33212,1.8655897724085133,0.046090375710595745
27.336712,1.8324328825596883,0.04604375402408956
27.341304,1.7983765582632159,0.04599530721247412
27.345892,1.7612553764813623,0.04602051274397295
