Time,Force,Position
31.968803999999995,0.15759212449225693,0.0
31.973392,0.15166263750115896,0.0
31.97798,0.14561096579591531,0.0
31.982576,0.13788260990952167,0.0
31.987168,0.12990988459483668,0.0
31.99176,0.12385821288959309,0.0
31.996352,0.1194832253654995,0.0
32.00093199999999,0.12062702924143871,0.0
32.005528,0.1224258981367344,0.0
32.010116,0.13076517759385642,0.0
32.014703999999995,0.13346348093679997,0.0
32.0193,0.13796065317503922,0.0
32.023883999999995,0.14180276039392195,0.0
32.028471999999994,0.14384599871750903,0.0
32.03305999999999,0.1439681834316547,0.0
32.037651999999994,0.1429465642698612,0.0
32.042248,0.14078114123212845,0.0
32.046836,0.1384935334802501,0.0
32.051435999999995,0.13191081485976178,0.0
32.056016,0.1263139801942115,0.0
32.060616,0.11969552636686769,0.0
32.065203999999994,0.11229982280602167,0.0
32.069804000000005,0.11181108394943898,0.0
32.0744,0.11197741011221281,0.0
32.078996000000004,0.10842381377024955,0.0
32.083575999999994,0.1029491638188449,0.0
32.088172,0.09657507941979246,0.0
32.09276,0.0864810725160029,0.0
32.097356000000005,0.07765305420229818,0.0
32.10194799999999,0.06714835170744346,0.0
32.106544,0.062162440612621515,0.0
32.111132,0.056154910356006046,0.0
32.11572,0.05104681454703844,0.0
32.1203,0.04863702208101438,0.0
32.12489599999999,0.04916990238622521,0.0
32.129492,0.0517460210150231,0.0
32.13408,0.05624319325326235,0.0
32.138679999999994,0.060207485186290766,0.0
32.143272,0.06486915019733766,0.0
32.147864,0.06625732350156821,0.0
32.152456,0.06458063932041819,0.0
32.157044,0.06470282403456386,0.0
32.161648,0.05860884427065827,0.0
32.166236,0.05173761477325049,0.0
32.170828,0.046787438885284104,0.0
32.17542399999999,0.04388050132090475,0.0
32.180012000000005,0.04199518291831893,0.0
32.18461599999999,0.040109864515733104,0.0
32.189204000000004,0.03900179584664945,0.0
32.1938,0.037771542463420134,0.0
32.19838,0.03564185463254297,0.0
32.20297599999999,0.03588622406083431,0.0
32.207556,0.03600840877497998,0.0
32.21215599999999,0.03420953987968429,0.0
32.21674399999999,0.03216630155609724,0.0
32.22134,0.02820200962306882,0.0
32.225928,0.02525933685183392,0.0
32.23052,0.021950109938162005,0.0
32.235112,0.020073197777348784,0.0
32.239704,0.022160577549563982,0.0
32.24429599999999,0.023715077016568345,0.0
32.248887999999994,0.02244908842648348,0.0
32.25347599999999,0.0225355379337736,0.0
32.258072,0.022535537933773598,0.0
32.262648,0.02544247549815295,0.0
32.26724399999999,0.030026097243682322,0.0
32.27183599999999,0.0375523917604466,0.0
32.276432,0.046222490153150074,0.0
32.28102799999999,0.05975631492652981,0.0
32.285616000000005,0.07226852053811603,0.0
32.29020799999999,0.08285967254026086,0.0
32.29479599999999,0.09095458256909154,0.0
32.299384,0.0943079509313916,0.0
32.303991999999994,0.10162561122672009,0.0
32.30857999999999,0.10828820650269207,0.0
32.313192,0.11225249843572048,0.0
32.317772000000005,0.1122524984357205,0.0
32.32237599999999,0.1122524984357205,0.0
32.326967999999994,0.11159743341636398,0.0
32.33156,0.1129856067205945,0.0
32.336164,0.11760496367297944,0.0
32.340756,0.12414537423480573,0.0
32.34535199999999,0.13170740395842556,0.0
32.349931999999995,0.1404996870652747,0.0
32.35453199999999,0.14242074067471608,0.0
32.359120000000004,0.14074405649356606,0.0
32.36372,0.1369019492746833,0.0
32.368303999999995,0.12823185088197983,0.0
32.37289199999999,0.11469802610860008,0.0
32.377488,0.102272270004304,0.0
32.38208,0.09368862111889066,0.0
32.386672000000004,0.08739257998535571,0.0
32.391268,0.08481646135655782,0.0
32.395855999999995,0.07839823550887719,0.0
32.400448,0.07275725939469872,0.0
32.405036,0.07149127080461386,0.0
32.409628,0.07598844304285311,0.0
32.414216,0.08420553778582945,0.0
32.418808,0.09217826310051444,0.0
32.4234,0.0963088811963167,0.0
32.427988,0.0981077500916124,0.0
32.43258,0.10194985731049515,0.0
32.437168,0.10746864871052793,0.0
32.44176,0.11172145152047583,0.0
32.44633999999999,0.12288121903468706,0.0
32.450928000000005,0.13686147460598752,0.0
32.455535999999995,0.14916504599613792,0.0
32.46012399999999,0.164253370236522,0.0
32.464736,0.17729845615331907,0.0
32.469324,0.1901349078486803,0.0
32.473916,0.19835200259165664,0.0
32.478511999999995,0.2014610015256654,0.0
32.48309999999999,0.20943372684035041,0.0
32.487696,0.21626264827909622,0.0
32.492284,0.22219213527019416,0.0
32.496888,0.22284720028955068,0.0
32.501468,0.22080396196596364,0.0
32.506068,0.212342497794696,0.0
32.510644,0.20298159917578046,0.0
32.515248,0.19377862047786618,0.0
32.51984,0.18535289151345405,0.0
32.524435999999994,0.17525888460966446,0.0
32.529016,0.1620916139787217,0.0
32.533612000000005,0.14904652806192467,0.0
32.538212,0.13305876937389272,0.0
32.542807999999994,0.11617157623821288,0.0
32.5474,0.10018381755018092,0.0
32.551992,0.08509549330979681,0.0
32.55658,0.07205040739299975,0.0
32.561167999999995,0.059424423309040485,0.0
32.56575599999999,0.0524835567878878,0.0
32.57034,0.05453703474321363,0.0
32.574932000000004,0.051115862747134824,0.0
32.579511999999994,0.052602558580360455,0.0
32.584104,0.055565710615072914,0.0
32.588684,0.07104290165133778,0.0
32.593276,0.09057266751788735,0.0
32.59786799999999,0.12183922265248717,0.0
32.602459999999994,0.1581799717791652,0.0
32.60704799999999,0.1994369949769203,0.0068008485899086835
32.611639999999994,0.2448687777191058,0.013657890226361212
32.616232,0.29193493658377934,0.020899632228083064
32.620828,0.3424070115011537,0.028348167716964103
32.62541999999999,0.39464405349693443,0.03622708603242585
32.630011999999994,0.45158873534235633,0.044130782338511615
32.634592,0.5132410570374194,0.05205547264614042
32.639191999999994,0.5767805305250346,0.060277197825067866
32.643776,0.6449054591481453,0.06853711086844319
32.64838,0.71990345065863,0.07653898127729522
32.652964,0.7987792845948529,0.08450976741805362
32.657556,0.880641932750939,0.09233546130022949
32.662148,0.9626709070697989,0.1000575227934926
32.666743999999994,1.0458878267132259,0.10800647617975642
32.67133199999999,1.1324581147189532,0.11577230677010905
32.675928,1.219272772152972,0.12361418049908399
32.68052,1.3008130076152489,0.1314055403381742
32.685112000000004,1.382841981934109,0.1390792882895398
32.6897,1.4561209812047813,0.146907535046579
32.694292000000004,1.5275569701315301,0.1547023828142831
32.69888,1.597682829019566,0.1556703517721461
32.703472000000005,1.6639224392400909,0.15666196428170626
32.70806399999999,1.7284412238308378,0.1573483015603805
32.712656,1.7922608019535997,0.15776998032727826
32.717252,1.8584460310937576,0.15762346038519373
32.72184,1.9221331848706353,0.15742387293207485
32.726423999999994,1.9823006441224391,0.15723746146676726
32.73101199999999,2.0412360166010473,0.15675963537112764
32.73559999999999,2.095463749230014,0.1562660647230621
32.740196,2.14359566870511,0.1560136538378323
32.744784,2.1884522630834224,0.1557535271881896
32.749371999999994,2.225536360126713,0.15571666388316427
32.753968,2.2557473942826296,0.1558410339732251
32.75856,2.28869063359838,0.15553055498736756
32.76315199999999,2.310141453074371,0.1556188041704863
32.767731999999995,2.329582936043664,0.15555577732518683
32.77233199999999,2.340230302516142,0.15575146584211252
32.776912,2.344004606101246,0.15610063903361748
32.78151199999999,2.349000756827807,0.15619540433325785
32.786096,2.3513766474769415,0.15626853331249
32.790696,2.350599397743439,0.1562873452866672
32.79527999999999,2.349245126256098,0.15614555317559273
32.799876,2.3483354521767112,0.1557762151960515
32.804464,2.3431288338387484,0.1554425775075704
32.80906,2.3321929564893513,0.15514792086005286
32.813655999999995,2.3154056354143733,0.1549171812876095
32.818252,2.2955873586709044,0.15460032584727143
32.82284,2.2757249404788067,0.15414596568506259
32.82743599999999,2.2528757080668464,0.15373783084405201
32.832024000000004,2.225362977253873,0.15343869431823437
32.836612,2.194741247506891,0.15320821998362558
32.8412,2.161787768559402,0.1530643360237643
32.845792,2.1301002782019984,0.15279288872519806
32.850387999999995,2.0957144845016513,0.15260739720388855
32.85497599999999,2.071955578010304,0.15176598060902038
32.859568,2.048851736538314,0.15091596794692355
32.864148,2.0303672520187086,0.14981687228877635
32.86874,2.0085735405854312,0.1489836959900413
32.873328,1.984614406114421,0.1483184291698499
32.877916,1.9620875863962697,0.1476283414866636
32.882504,1.9408708967168316,0.14694057019550139
32.887096,1.9230075753996934,0.14610982082820922
32.891684,1.9033895266358873,0.14550010736592797
32.896280000000004,1.8854923035018594,0.14497065582786628
32.90087199999999,1.8706260360363227,0.14453656911266255
32.90547599999999,1.862755016172306,0.14394958229156454
32.910056,1.8564826372239218,0.14346972253911186
32.914655999999994,1.851276018885959,0.14306504201851317
32.91924399999999,1.8536755717202442,0.14239372561512775
32.92384799999999,1.862293122422547,0.14159461132480475
32.928432,1.8735309332022758,0.14082894789167807
32.933032,1.892252730440107,0.13980328595211203
32.937619999999995,1.9125731685935705,0.1388975126677925
32.942212,1.932693378767371,0.13819807686050492
32.946808000000004,1.9448069618095971,0.13818430669691076
32.951404,1.9578641207480991,0.1382760555063589
32.955991999999995,1.9746853436399658,0.13833097378003809
32.960584,2.0033213990654013,0.13784095472569866
32.965176,2.035843703158347,0.13727350106779415
32.969764,2.065834030071123,0.13692907989227382
32.974352,2.0935367492320207,0.1367642573518244
32.978932,2.118463121784458,0.13690118349087152
32.983524,2.1486639163086356,0.1368382839373626
32.988112,2.1814408294616117,0.13668353629408828
32.99270799999999,2.214462112042879,0.13648948707416392
32.997288,2.242086787938259,0.13651948946821635
33.00188,2.2708552677095786,0.13646167513208315
33.006463999999994,2.2966810747096633,0.13655758983478658
33.01105199999999,2.316988090309715,0.13690689864544056
33.015664,2.33496335670926,0.13729188989952673
33.020252,2.3554706002889754,0.13747109019367085
33.024860000000004,2.3727466602205363,0.13772443694576778
33.02945199999999,2.389079144255821,0.13788579938154613
33.034040000000005,2.404345867680684,0.1379736597921508
33.038636,2.4225111224281535,0.13777399799944523
33.043223999999995,2.4378117476699055,0.13757414954899821
33.04782,2.4483266897964984,0.13747406505072005
33.052408,2.4520127104843463,0.1375848964878844
33.05700399999999,2.4541000902565613,0.13759725551221527
33.061592000000005,2.461251424389116,0.1372278589719067
33.066192,2.4701574859683384,0.13667468287210144
33.07077199999999,2.476809841612572,0.13600536331555493
33.075372,2.475200961065201,0.13552494336308177
33.07996,2.4748139276592864,0.13484450536033724
33.084552,2.470785015014152,0.13416454743539993
33.089144000000005,2.4685108298156853,0.13330042770770875
33.09373599999999,2.4639048954167118,0.1324602167556623
33.098336,2.461298057892698,0.13139672731455443
33.102936,2.4576254597582623,0.13025148336892253
33.107528,2.4527649162992593,0.12905241295160116
33.112120000000004,2.443651570030308,0.12796249187064987
33.11671199999999,2.4369480162273804,0.12671504823847715
33.121296,2.426891094062153,0.1255240248511499
33.125884,2.418466714629447,0.12417238648661037
33.13047999999999,2.409509454891531,0.12278041925455252
33.135071999999994,2.401573814315409,0.12132646419682715
33.139664,2.394004727881723,0.11978975122081116
33.14426,2.384514587838596,0.11831162108422223
33.14883999999999,2.3708157864341493,0.11703888375633617
33.153431999999995,2.3491884011636457,0.11611222353673457
33.15801999999999,2.3244961584077615,0.11532692143493503
33.16260799999999,2.3017691107099467,0.11457975967352074
33.167204,2.283294865822081,0.11372169439734679
33.171792,2.2559926026205095,0.11324815375749041
33.176379999999995,2.2298782847435055,0.11282184166991668
33.180976,2.2050740969052143,0.11241625387608187
33.185564,2.182968212409867,0.11191313732790546
33.19015999999999,2.1575531010008477,0.11159929015502834
33.19474,2.136146422973485,0.11122684653597056
33.199336,2.1179709285942763,0.11080175299732047
33.20391599999999,2.1031488025773677,0.11030781048293317
33.20851999999999,2.084895264932642,0.11001857899162464
33.213104,2.0734706487266616,0.10958985747583665
33.217704,2.0608241853792246,0.1093814233979212
33.222300000000004,2.049365667356355,0.10923070327982302
33.226896,2.0403610832481376,0.10904926635495038
33.231488,2.0340989439314923,0.10892718963994763
33.236076,2.032744672444151,0.1087547937762166
33.240663999999995,2.0378086268044906,0.10839772316899052
33.24526,2.0518669256413085,0.10781068433945518
33.249848,2.0703002120022203,0.10712616992297938
33.254436,2.0913096169919294,0.10640583952099614
33.259024,2.1137513367344978,0.10571780545751461
33.263604,2.144043597077605,0.104845470401689
33.26819999999999,2.174624368297632,0.10404400744732742
33.272791999999995,2.204960770089368,0.10330036663264264
33.277388,2.2366073019198165,0.10262931411755719
33.281976,2.275327124617302,0.10181229692529163
33.286576,2.3148241970482903,0.1010330549518438
33.291163999999995,2.3510120425656065,0.10042856204559954
33.295756,2.384912280331044,0.09996158222373046
33.300352000000004,2.4206113869917774,0.09945234428973283
33.304931999999994,2.451813321414271,0.09906671064421287
33.309528,2.4833818099792024,0.09861057049183523
33.314111999999994,2.5148281138299877,0.09818074499202904
33.31869999999999,2.5472960368425666,0.09774058830316394
33.3233,2.578331645102287,0.09728466805064023
33.3279,2.6081793080374402,0.09678696706615024
33.33249599999999,2.6344292331820016,0.09637406297312369
33.337084000000004,2.652462063583587,0.09614345068797345
33.34167599999999,2.66804096007052,0.09593146832201294
33.346267999999995,2.6825540959470313,0.09565342185665862
33.35086799999999,2.6955127323565384,0.09537474896751487
33.355456000000004,2.7062618042796847,0.09507807196141793
33.36004799999999,2.720031592239583,0.09457722138216697
33.364636000000004,2.7324912501607685,0.09403779565607098
33.369232,2.7417197244337994,0.09351113026486248
33.373824,2.7429754733921454,0.09310190334595356
33.378423999999995,2.7380573659311023,0.09277613393413409
33.38302399999999,2.7339945514690784,0.09232463189025689
33.387624,2.7296432261301353,0.0917977535558784
33.392212,2.72283796687654,0.09127770206203266
33.396804,2.7189753803941796,0.090679939368424
33.40139599999999,2.713924848587252,0.09001847945948006
33.40598,2.708585805903405,0.08928483197001118
33.410568,2.6978501565336708,0.08863249183053523
33.415167999999994,2.6894021149158154,0.08788590849955458
33.41975599999999,2.6754352818979266,0.08722520059775499
33.424356,2.6635116872036253,0.0865018012282746
33.42894799999999,2.65645181889,0.0856547755825811
33.433527999999995,2.6513130041858157,0.08476488541025656
33.43812799999999,2.6390228553490767,0.0840744037064162
33.442708,2.623501522864184,0.08337084941031003
33.4473,2.606836386503351,0.08271102112680322
33.451896000000005,2.5868620232288477,0.08217163241844497
33.456484,2.5668876599543435,0.08162357363611156
33.461096,2.54409280862275,0.08112084813806802
33.465684,2.526938933405335,0.08050400245451463
33.470271999999994,2.511706111797362,0.0798330785552781
33.474868,2.4990494088181863,0.07914217068353264
33.479456,2.4834500330677756,0.07851133889380423
33.48405199999999,2.468627907050867,0.07788028275239794
33.488648,2.448942054653282,0.0773593012245262
33.49324,2.4327317553321435,0.07680232660671096
33.497820000000004,2.4146004024015633,0.0762755972359463
33.50242,2.3981457336521332,0.07573848484291729
33.507000000000005,2.376582969093735,0.07534134018773204
33.5116,2.36221568011652,0.07485555840308263
33.516184,2.3459273375298637,0.07440384003910677
33.52078,2.328495191067268,0.07399596247905935
33.525368,2.311840294338175,0.07359459382015893
33.52996399999999,2.30503503508458,0.0729707152304975
33.53456,2.302116024498495,0.07238901143542967
33.539159999999995,2.3020175019695,0.07176521192871166
33.543747999999994,2.3028184138881524,0.07113113641547175
33.548344,2.3059510750073122,0.07053097351685651
33.552932,2.3155019619741517,0.06985385459223246
33.55752,2.3251750336551376,0.06917712928166159
33.562107999999995,2.3404890814503014,0.06843342381464682
33.566692,2.351594467884146,0.06780886983526549
33.57128399999999,2.3680964610038773,0.06713902512005651
33.575875999999994,2.3884405613424917,0.06641811768668283
33.580472,2.410705715290547,0.06565397032313468
33.585064,2.4312161417919356,0.06503404717990427
33.58965599999999,2.454957751941478,0.06444678467125978
33.594244,2.482297099881612,0.06384332458151105
33.59883599999999,2.5133563703264823,0.0631922803676332
33.603448,2.541595152714264,0.06259435604008617
33.608036,2.5706111848355477,0.06201209011359035
33.612632000000005,2.599505032242686,0.06144978822052107
33.617228,2.622757903535646,0.06095678530714682
33.621832,2.6388594406960504,0.0606314025594607
33.62642,2.655449716713038,0.06024244494434612
33.631007999999994,2.667298451063495,0.059913752596684786
33.635604,2.679025000699807,0.05960326111722714
33.640184000000005,2.6881754317073203,0.059292096634579045
33.644784,2.6925843210483027,0.059040461492201754
33.64936399999999,2.689841876256731,0.05893824495932263
33.65396,2.6821135203703372,0.058925000148062685
33.65854399999999,2.6747517186263807,0.05886098271191178
33.663144,2.666612667148922,0.05878298771417886
33.667739999999995,2.652466085414848,0.05881346126924226
33.672332,2.6412621764520083,0.058794844937934444
33.67692,2.6260498341075125,0.05872943493704352
33.681516,2.61018242674366,0.05863206092491068
33.686104,2.59173890075101,0.05852582508158222
33.69069999999999,2.57161869057721,0.058406118607468256
33.695288000000005,2.5505990459557615,0.05828694917126581
33.699876,2.528435597458374,0.05820430046345366
33.704464,2.508193202570428,0.05809749979433507
33.709059999999994,2.492692349349012,0.05793919826588506
33.713652,2.481400157488917,0.05768331685050027
33.718244,2.4689641617528824,0.057461787935280534
33.722840000000005,2.461269707683378,0.057191659040386415
33.727428,2.452142938861015,0.05687347689924803
33.732024,2.445059408362239,0.05651568964504227
33.736616,2.4407963659205523,0.05613303499523803
33.741208,2.4434402881831288,0.055645322770741724
33.745791999999994,2.4460842104457057,0.05515406039020672
33.750384,2.4506491863177233,0.05463870715583051
33.75498,2.455091977475596,0.05414573609517269
33.759568,2.463743429994788,0.05355588989607403
33.764156,2.46818622115266,0.05306038293824274
33.76875199999999,2.477126184548771,0.05255058018787678
33.773340000000005,2.4839007249071505,0.052097055209960094
33.777936,2.4856893541707077,0.051714509103361714
33.782516,2.486089810130034,0.05140025951947636
33.787116,2.4862458966610683,0.0511192497123425
33.791708,2.4885674062298357,0.05078122600739547
33.7963,2.4871689932938663,0.05046860921280939
33.800884,2.4846267764819583,0.05019424923068153
33.80548399999999,2.477753713594584,0.05003134126944657
33.81007199999999,2.4660169243265346,0.04992954312889069
33.814668,2.4492942239636624,0.04990978598012255
33.819256,2.4349032728012965,0.04993619761145274
33.823852,2.4172030947252594,0.05005856166850465
33.828452,2.395782994144485,0.05020578258679585
33.83304799999999,2.37129803607833,0.050410918212221
33.83763999999999,2.3486119469074698,0.05061278991411591
33.842232,2.325681488308319,0.0508478175357545
33.846819999999994,2.300829976099727,0.05110228808509404
33.85140799999999,2.2738130408534016,0.05140842338892286
33.855996000000005,2.249083713358955,0.05164013666144346
33.86058799999999,2.221533897807419,0.051893066619004724
33.865184,2.1962716900077615,0.05206454599815262
33.869776,2.174851589426987,0.05220249994522783
33.874368000000004,2.154575292722152,0.052306414931814434
33.878952,2.1354427998932555,0.05237081643510047
33.883544,2.111324395969538,0.05252178408877092
33.888127999999995,2.085529307864669,0.05265772044699592
33.89271599999999,2.0557699278267725,0.05287402892401406
33.897312,2.0294419594166935,0.05296231483597575
33.9019,2.0116976398920277,0.05295249724378055
33.906488,1.9931760706338597,0.05292954381208713
33.911084,1.9726112630521047,0.0529585268974882
