Time,Force,Position
28.42258,0.7713225951291782,0.024238659448951327
28.427176000000003,0.7392756073394033,0.022025546989660295
28.431772,0.7116816503392395,0.01971189420570473
28.43636,0.6908724733291932,0.017280998345831647
28.440952000000003,0.6739054035380297,0.014755445129136693
28.44554,0.6551394648515705,0.01227764410771294
28.450132,0.6380502103462613,0.009843555655295565
28.45472,0.6245586936315435,0.007357330039431762
28.459308,0.607225069697943,0.004921777827647782
28.463896,0.5928341185355772,0.0024355522117839802
28.468488,0.5765221137637703,0.0
28.473084,0.5671170736962267,0.0
28.477672,0.5624535752952136,0.0
28.482272,0.5558690232847592,0.0
28.486852,0.5549254473884833,0.0
28.491444,0.5557807403875029,0.0
28.49604,0.5592121520153206,0.0
28.500628,0.5644085307215454,0.0
28.505224,0.5735794409925374,0.0
28.509812,0.5892229581915771,0.005542467895967892
28.5144,0.6108944849107099,0.012395913729721836
28.518996,0.6480432026661074,0.01974322708489198
28.523596,0.7094293261376957,0.027362207750450514
28.528188,0.7975848325056446,0.03493971441263222
28.53278,0.9117324720364518,0.042556660915416746
28.53738,1.0534267441971217,0.050189186289113646
28.541972,1.2211911927861676,0.05775546153853686
28.546568,1.4134713183365848,0.06527960552077745
28.551148,1.633498304496528,0.07280342130364265
28.555748,1.8733435673999406,0.08041932230618523
28.560344,2.1382815290185637,0.08808326925585651
28.564944,2.4319099271429887,0.09565884084785642
28.569528,2.748421459496263,0.10324618669860447
28.574124,3.095255971087861,0.11079903064189775
28.578728,3.4676719202512523,0.11832209082936382
28.583324,3.865913676414728,0.12584060979472134
28.587928,4.294312085653754,0.13328123544940673
28.59252,4.745949943632327,0.1406849725808498
28.597112000000003,5.2190622832720415,0.14801121354636312
28.601712,5.702523238875576,0.14979590048874303
28.6063,6.198976732705509,0.15017813976654937
28.610888000000003,6.686293218081339,0.15002958543134515
28.615472,7.14740710268291,0.14958419614308888
28.620068,7.5763108562536035,0.1491882642598005
28.62466,7.980444323802896,0.1487039321441155
28.629248,8.358130821149638,0.14816298022991933
28.633844,8.709092077048647,0.14768624370696617
28.638424,9.034349710661715,0.14723983552499892
28.643008,9.333370841683637,0.1467896399435486
28.6476,9.610730685618163,0.14621595920185856
28.652188,9.863442428245435,0.14555582226161462
28.656792000000003,10.079979747908801,0.14499843182761998
28.66138,10.271013673265893,0.14440520913370508
28.665968,10.434623150707266,0.14381471982394864
28.670564,10.568109876889979,0.14324507953706997
28.675152,10.674294339871121,0.14265834540039485
28.679744,10.744715075479425,0.14215341838820375
28.68434,10.787755504620641,0.1416610854138539
28.688932,10.799006737953782,0.1412730688546749
28.693524,10.792737541927071,0.14085672365412152
28.698124,10.766870776400031,0.1404964967525026
28.702712,10.734497502128054,0.1401426845520626
28.707316,10.703556542608935,0.13978619416934174
28.711908,10.676868385899768,0.13939893681954718
28.7165,10.644827763953339,0.13908371025997635
28.721084,10.61139896870268,0.13879424641263627
28.72568,10.573595185927926,0.13853801262510904
28.730268,10.533992534257878,0.13829639728680487
28.734864,10.498354174520857,0.1380069914291512
28.739464,10.463370879803193,0.13771805123048764
28.744056,10.427532292086507,0.13746227675542652
28.748636,10.39455833387554,0.13720494712790854
28.75322,10.361750701827349,0.13696904692088302
28.757808,10.325389473437193,0.136790927700856
28.7624,10.292914493714548,0.13659823474778277
28.766996,10.263181958783477,0.13640898680608085
28.771584,10.23942305229213,0.13620809339306367
28.77618,10.217917851735773,0.13603149446544763
28.780768,10.203774452923371,0.1358151928865265
28.78536,10.195726867264842,0.13558312588350485
28.78994,10.188789183665362,0.13539422768259857
28.794528,10.181773456800364,0.13523853028432495
28.799136,10.176356370850998,0.1351058443899754
28.803728,10.172782295245556,0.13498606076988026
28.808316,10.175382076059506,0.13481823181471908
28.812912,10.17868106334144,0.13468083880986223
28.817500000000003,10.194205578748004,0.13445369924602193
28.822096,10.214393592555583,0.13421208960838704
28.826684,10.232582509488203,0.1340251122639652
28.83128,10.250693383155305,0.13387178861139
28.83586,10.273712124651713,0.13369527760665126
28.84046,10.305969580052892,0.133437816090167
28.845048,10.343990196282393,0.13312515104543868
28.849656000000003,10.389450657521369,0.13274570092439916
28.85424,10.43670998765564,0.1323560520399501
28.858844,10.484091502504056,0.13196410017412039
28.863436,10.531062321761407,0.13156122366549883
28.868032,10.581586737360723,0.13110684298631015
28.872616,10.635420379873711,0.1306129161690214
28.877208000000003,10.68638939288098,0.1301241386290136
28.8818,10.737558633867911,0.12960028445938593
28.886392,10.789949721996301,0.12903156654789621
28.890984000000003,10.841885973084997,0.12842714425310137
28.895568,10.893367387133999,0.12778774472441312
28.90016,10.945826278896169,0.12711731732834375
28.904756,10.999218506922873,0.1263841448995757
28.909344,11.041240499823964,0.12569860588062498
28.91394,11.083296394541945,0.12496147596942016
28.918524,11.124120202486731,0.12418829434511418
28.923104,11.166776781143701,0.12334978067464225
28.9277,11.205380784970385,0.12250200389728111
28.932288,11.23674517176726,0.1216846064616898
28.936884,11.259726137658387,0.12090709857388793
28.941468,11.278532344005082,0.1201235277840475
28.946048,11.29189780221726,0.11935012333909199
28.950648,11.306362922856751,0.11853949325766626
28.955236,11.317841229276379,0.11772802399917391
28.959824,11.325311102314348,0.11692970732853966
28.96442,11.327995292237162,0.1161454056288717
28.969016,11.326426679350025,0.11537909164600312
28.973612000000003,11.32342575171003,0.1146101568925757
28.9782,11.31694927099359,0.11385822032593006
28.9828,11.310594974991295,0.11310291050185428
28.987376,11.303096875113061,0.11236211588259437
28.99198,11.288691810530565,0.11167874116668047
28.996572,11.27649631043443,0.11099855208015677
29.00116,11.27443895869071,0.11025461558790528
29.005752,11.271892868090408,0.10953084771144249
29.010344,11.271145646385405,0.10879763035378939
29.014952,11.269787501109668,0.10808873898350035
29.019548,11.272682158643882,0.10736708796808765
29.024148,11.27905236925454,0.10663321364910912
29.028744000000003,11.29045263240865,0.10588417563108624
29.033332,11.302796471459034,0.10515707610795642
29.037928,11.320170363052867,0.1044169182801816
29.042520000000003,11.336033896628324,0.10370569808820315
29.047104,11.359092905784964,0.10296242246131293
29.051696,11.384483664142113,0.10222147295542301
29.056288,11.412083986985621,0.10148716264267527
29.060884,11.446635415982021,0.10073097327694516
29.065472,11.486827821092598,0.09994759281775341
29.070068,11.533194082622567,0.09914494580952175
29.074656,11.583035897228982,0.0983385738001013
29.079248,11.636719819054278,0.09751485067580225
29.083836,11.699231759193278,0.09663588832105947
29.088424,11.76084426488463,0.09576820459492535
29.093020000000003,11.816204870891077,0.09495921926060549
29.0976,11.869522238573934,0.09416980188092816
29.102188,11.923372486562004,0.09339408310318514
29.106784,11.974402246492986,0.09263594736212086
29.111372000000003,12.022078638061668,0.09188982098323369
29.115976,12.06386968408788,0.09118195858390446
29.120556,12.106027284256527,0.09046713274098443
29.125152,12.149450873015263,0.08974111904960179
29.129736,12.190542712573492,0.08901715740003939
29.134332,12.230080052664714,0.08829362611892534
29.138916,12.266141839679491,0.08758469637215244
29.143516,12.299749692779615,0.0868797063091128
29.148096,12.328205308622145,0.08618504163125545
29.152692,12.350731437473577,0.08550226381115794
29.157288,12.364673917439596,0.08486209562679871
29.161884,12.372564725700371,0.08423597636316058
29.166472,12.374037308113465,0.08363441356989876
29.171064,12.369746729698232,0.08306107249012706
29.175652,12.357894121559385,0.08252040559097225
29.180236,12.341544341182296,0.08199153013582156
29.184824,12.32478386521414,0.08144906086882397
29.189424,12.306346705064838,0.08090632696928253
29.194008,12.28353455739144,0.08037083130545397
29.198596,12.26276564804163,0.07982208881858674
29.203188,12.240364195959296,0.07929697591971659
29.207768,12.2216826663817,0.07875722657310785
29.212352000000003,12.201735148214018,0.07823127110282227
29.216936,12.182687064493987,0.07770401131717622
29.221524,12.162250807469725,0.07719263397770332
29.226124,12.14234743075067,0.07668907612356048
29.230716,12.123998553498623,0.07618924650564719
29.235316,12.10773705601879,0.07570132021257654
29.239908,12.097405045530055,0.07520942603624316
29.244496,12.08646211147059,0.0747341797971713
29.249088,12.07797311132578,0.07425828510448346
29.253668,12.070549871791393,0.07379968707173719
29.258268,12.062637893400419,0.07335424570167436
29.262856,12.05910090253354,0.07290304079508086
29.267448,12.0626372025337,0.07244130432120138
29.272036,12.070181935915517,0.07198489153446153
29.276636,12.079036799336047,0.07153993185962208
29.281224,12.092022280852374,0.07109785269506198
29.285816,12.113757737416892,0.07064787140048807
29.290408,12.137580573753626,0.07021365272749967
29.295,12.164878963166807,0.06977753274545219
29.299596,12.194631286494635,0.06934641298413242
29.304188,12.222995436518236,0.0689323191130553
29.308776,12.247805990199872,0.0685498492803833
29.313364,12.278912585015044,0.06815910561145759
29.317952,12.314516352068457,0.06776353341989709
29.32254,12.347588141941698,0.0673943077585644
29.327128,12.379393943224853,0.06703839520665193
29.33172,12.40837925645092,0.06669184414360227
29.336316,12.443538426096378,0.066340682522759
29.340892,12.486137440751309,0.06597469094672248
29.34548,12.527959205672737,0.06560695404962004
29.350068,12.57440032754655,0.0652303665296423
29.354656,12.618020961363275,0.06486319540833535
29.359248,12.655878434351678,0.06451614992526229
29.363840000000003,12.691281973425426,0.0641667879733462
29.368428,12.725786078051526,0.06381962805898064
29.373016,12.757591879334683,0.06347744143035751
29.377604,12.78040333614136,0.06314821890161047
29.3822,12.795119882919206,0.06282868944121059
29.386776,12.8066052460489,0.06250376054116685
29.391376,12.815758859978086,0.0621730689375139
29.395952,12.825401212763852,0.06182870405705839
29.400556,12.83091294745382,0.06147751486148493
29.405144,12.829229206562603,0.06113495478401604
29.409744,12.818306751766618,0.06080822747105783
29.414328,12.806318536360209,0.060462240960548475
29.41892,12.790321887572144,0.06010567812192812
29.423528,12.778289530717112,0.05973583607259902
29.428124,12.757507198813888,0.05936682518001437
29.43272,12.73055101049128,0.05900073923984151
29.43732,12.702817572435164,0.05863036027676142
29.441912,12.669809712407307,0.05825997260490884
29.446504,12.633448484017151,0.05788341753251043
29.451092000000003,12.59643219060764,0.05749882249493212
29.45568,12.561336950807569,0.05710818994940014
29.460268,12.524687211540494,0.05671020966780439
29.464872,12.48521698421633,0.05631555343418435
29.469464,12.449344494682757,0.05591671939400051
29.474052,12.418335731529865,0.0555022615650407
29.478644000000003,12.386305349215172,0.055089746778304985
29.483232,12.347490186910367,0.054691909543541424
29.487816,12.308675024605558,0.05429255820922333
29.492404,12.273701969519633,0.05388150113485056
29.496996000000003,12.234886807214826,0.053475575454009106
29.501592,12.200935371290692,0.053054454517615444
29.506172,12.160976405109945,0.052649435932501584
29.510772000000003,12.122694123110346,0.05224410574284832
29.515364,12.070842281130513,0.051868651474664185
29.519952,12.021444373065332,0.051495837199377656
29.524556,11.963873511705806,0.051150287904488584
29.529148,11.908101519241573,0.05080158144193268
29.533744,11.850164103739603,0.05046036691731871
29.538324000000003,11.793414633562207,0.05013353658024254
29.542924,11.732334317309343,0.049826030367895305
29.547504,11.66332541719042,0.04953871634947246
29.552100000000003,11.589985670996032,0.049270429780935716
29.556684,11.51292600229691,0.04900246141994999
29.56128,11.426138880836435,0.04875467822226137
29.565864,11.332200425243403,0.048530379067747535
29.570452000000003,11.231110635517819,0.04832957593156266
29.57504,11.130309356669152,0.0481449360092642
29.579636,11.021335124526138,0.04798835144863512
29.584224,10.905087373536423,0.047859803480911074
29.588808,10.788473068404272,0.047739627269598975
29.593400000000003,10.66266419081598,0.04765242508563287
29.597996,10.53840981269469,0.047570397646884616
29.602584,10.407126285154995,0.047510092372386695
29.607176000000003,10.277519441796446,0.047453424010779705
29.611772,10.142149437609577,0.04740603061281145
29.61636,10.00587999897506,0.047357755521427965
29.620944,9.859516553436748,0.04734608304435847
29.625532,9.713930357631941,0.04733538753921806
29.63012,9.562947555141248,0.04732143567803181
29.634728000000003,9.40848919957411,0.04730152661313043
29.639308,9.255052463168761,0.04727434324205456
29.643896,9.100594107601621,0.04725034582920825
29.648488,8.946790817053838,0.047232128442257264
29.653080000000003,8.795808014563146,0.04720796526428129
29.657672,8.644047962338952,0.04717711355430874
29.662252,8.49330952927655,0.047141180954193784
29.666848,8.336275055080613,0.04710493449007466
29.671428,8.177686081417672,0.047056548242581146
29.676028,8.018197673307082,0.0470085461598549
29.680616,7.857687646034702,0.04696353710185804
29.685216,7.698443607352403,0.046901359573019705
29.689808,7.535601830879514,0.046834347212567094
29.694404,7.374925477444357,0.04674663277089881
29.698984000000003,7.214615678151638,0.046636760026175755
29.70358,7.051363206087682,0.046534424903097484
29.708176,6.889010168471375,0.04642867498954376
29.712776,6.727023684997507,0.04630332030979175
29.717364,6.556331367924077,0.04620664926987482
29.721960000000003,6.382574193365269,0.046124072410151574
29.726548,6.210493702987608,0.0460433613563045
29.731136,6.033427301515126,0.04598737210851785
29.735724,5.851619358376116,0.04594672650038989
29.740316,5.666990927180014,0.04590801521401257
29.744912,5.474800466260294,0.045891784311015475
29.749504,5.281710570892925,0.045865924106150174
29.754096,5.087843425792055,0.04582298282642378
29.758676,4.896141703728917,0.04574085326766741
29.763272,4.699454070570958,0.04569656948356857
29.76786,4.503910241288937,0.04562365784506198
29.772448,4.303502685626239,0.04559118810892168
29.777044,4.101051891639956,0.04557672034413917
29.781628,3.900155597120675,0.04558553510728392
29.786216000000003,3.6970938795636625,0.045625350359872335
29.790812000000003,3.4927661734165656,0.04570068416720924
29.795396,3.2911367706124115,0.045796290257520675
29.799992000000003,3.0904068022559055,0.04589181366221218
29.804572,2.893396756404137,0.045952070711874834
29.809172,2.7030493058283405,0.04598400967936461
29.81376,2.5161774083289896,0.046092251960407886
29.81836,2.3311043797249345,0.043817627779547744
29.822952,2.1497512736256157,0.041529725790293834
29.827548,1.9749385780881235,0.03922751998802278
29.832136,1.8046230547888706,0.03692987729169213
29.836732,1.6462445487373316,0.034616468858049865
29.841312,1.4922410302098856,0.03232001274882832
29.8459,1.3424903144923876,0.030042395974585218
29.850484,1.2041878771660204,0.027800554006000275
29.855088,1.0835856179156909,0.025529387998023415
29.859676,0.9692793997988962,0.023282724287127177
29.864272,0.8644562650151625,0.020997431918513065
29.86886,0.7689940288503447,0.018703054224522717
29.873452,0.6781511496379118,0.01639508554674786
29.87804,0.5916832579495723,0.014072853572857733
29.882632,0.5152313298995052,0.011733083108895755
29.887228,0.451615853544799,0.009370754641348365
29.891808,0.39339698387598004,0.007012555302951343
29.896404,0.3403303514647568,0.004694917094347762
29.900992,0.2966246176724491,0.002387227579743492
29.90558,0.259337109727822,0.0
29.910176,0.22936726207852337,0.0
29.914764,0.20671507472455325,0.0
29.919352,0.1904811132182638,0.0
29.923948000000003,0.17567946646483298,0.0
29.928536,0.1617772541590501,0.0
29.93314,0.15032897576791934,0.0
29.937732,0.14529892322446925,0.0
