Time,Force,Position
32.45254799999999,0.2826002200640941,0.0
32.457136,0.25582491797132845,0.0
32.461744,0.22904961587856285,0.0
32.466331999999994,0.201130509909858,0.0
32.470924,0.1730892192270075,0.0
32.475516,0.14709116686774404,0.0
32.480115999999995,0.12403578727971555,0.0
32.48472,0.10290146130112839,0.0
32.489312,0.08458762337963044,0.0
32.493916,0.06705103519163465,0.0
32.498504,0.05437817338431516,0.0
32.5031,0.041827496291141325,0.0
32.50767999999999,0.030298438359761027,0.0
32.51228,0.021712053199615618,0.0
32.516859999999994,0.013902917772972393,0.0
32.521463999999995,0.007770466527479198,0.0
32.526056,0.005480122500868749,0.0
32.530652,0.0022903440266104492,0.0
32.535236,0.0,0.0
32.53982799999999,0.0,0.0
32.544428,0.0,0.0
32.54902799999999,0.0,0.0
32.553616,0.0,0.0
32.558212,0.0,0.0
32.562788,0.0,0.0
32.567372,0.0,0.0
32.571963999999994,0.0,0.0
32.576556,0.0,0.0
32.58114,0.0,0.0
32.585728,0.0,0.0
32.59032,0.0,0.0
32.594908,0.0,0.0
32.599495999999995,0.0,0.0
32.604091999999994,0.0,0.0
32.60867999999999,0.0,0.0
32.613268,0.0,0.0
32.617864,0.0,0.0
32.62246,0.0,0.0
32.627064,0.0,0.0
32.63166,0.0,0.0
32.636256,0.0,0.0
32.64083599999999,0.0,0.0
32.64543199999999,0.0,0.0
32.65002,0.0010582572534149493,0.0
32.654619999999994,0.001994329792684227,0.0
32.6592,0.010536573504201481,0.0
32.663799999999995,0.02247632702664695,0.0
32.668392,0.04092258929402935,0.0
32.672988,0.06465351316489197,0.0
32.677564,0.09821041232610223,0.0
32.68216,0.1443357315692318,0.00781251343836062
32.686747999999994,0.20593824184862627,0.01596367861173098
32.691343999999994,0.28915789776678547,0.024280546643849196
32.69593199999999,0.39914693658130523,0.032451069090341025
32.700523999999994,0.5351281085586834,0.04054962647127616
32.70511199999999,0.6968570442706286,0.048633735585259685
32.709712,0.8809803753548408,0.05678797988976936
32.714299999999994,1.0860657870584611,0.06500711091162133
32.718895999999994,1.3128905291149917,0.07326819697826474
32.723488,1.566073958476818,0.08144804783305751
32.728075999999994,1.8470483898967984,0.08955519718995618
32.732668,2.154014954479637,0.09763583326133389
32.737247999999994,2.4851747833300384,0.10572483651041256
32.74184,2.837792935013437,0.11384215874840153
32.746436,3.216236893696921,0.12191409635257668
32.751023999999994,3.6051721323218477,0.1300331453537467
32.75561999999999,4.010606181144832,0.13817036414644623
32.760208,4.429141530354948,0.14630395099369245
32.764796,4.8611786359115206,0.15440780977583649
32.769392,5.299800293478549,0.16246853653383045
32.773984,5.739888167615326,0.16266093879339402
32.77858,6.172804228356071,0.1624755591183757
32.783159999999995,6.589744119572229,0.16205332388468469
32.787755999999995,6.980647736176901,0.1617443203594747
32.792348,7.346947392922945,0.1614755175699832
32.79694799999999,7.687988024791005,0.16119923260963112
32.801536,8.008799684324531,0.1608171819225851
32.806135999999995,8.308649263238646,0.1603702445181968
32.81072,8.58802550038994,0.1598555102406972
32.815316,8.840387985216578,0.1594206600616826
32.819908,9.062872088212847,0.15905989049875627
32.824504,9.257276678274044,0.15872702482302753
32.8291,9.430142165961993,0.15832855883153596
32.83369999999999,9.5830230507437,0.15785053470033691
32.838292,9.709789617648404,0.15740560703661283
32.842884,9.818170222562495,0.15689586266011885
32.847472,9.907754169894913,0.15631949084029811
32.852059999999994,9.977808351360778,0.1557129340944262
32.85664799999999,10.028499093122866,0.15510062287113055
32.861239999999995,10.063878970011466,0.1544832984980101
32.865835999999994,10.084158449637973,0.15390760616741242
32.870428,10.096088410175621,0.15334255438614158
32.87501999999999,10.100778753683459,0.15282718245746796
32.879611999999995,10.102115728828995,0.15233756905925677
32.884204,10.10034370504052,0.1518633644274081
32.888791999999995,10.098649724517568,0.15135536104313319
32.89337999999999,10.093313864755393,0.15085557896486956
32.89797599999999,10.09022147129647,0.15028813510651218
32.902564,10.085163882779476,0.14971565112772503
32.907152,10.081328141403938,0.14908906480724418
32.911739999999995,10.080146561922717,0.14840577106369487
32.91632799999999,10.08251857878346,0.14765765406092385
32.92092399999999,10.083336096177195,0.14691943750185865
32.925507999999994,10.079778626046842,0.14622001703619553
32.930111999999994,10.076832079487213,0.14549364455486952
32.93469999999999,10.075029336803524,0.1447482735687791
32.939296,10.07502546301513,0.14398867590075873
32.943884,10.074122154779088,0.14323695803544742
32.948488,10.074895530724197,0.1424740993427732
32.95307999999999,10.072359679755632,0.141761751769549
32.957671999999995,10.072766501558302,0.14101451172429075
32.96225999999999,10.075749441989773,0.14024982398284905
32.966852,10.08184138135525,0.1394736032153962
32.97145199999999,10.093984992425973,0.13865227927052173
32.976043999999995,10.11038140630664,0.13780268138461432
32.980624,10.127599211369441,0.13698166039949128
32.98522,10.150502133995047,0.13613515892748787
32.989808,10.173204828640989,0.1353326535670486
32.994392,10.199671587240298,0.13452587533388596
32.99898,10.228514236488738,0.13374465245412148
33.003575999999995,10.25793390749102,0.13300241333000642
33.008168,10.288585665266503,0.13230380465878064
33.012764,10.320058814224112,0.131634649518422
33.01735599999999,10.359260319068117,0.13092033683410936
33.021944,10.400182649541897,0.13022790816197932
33.02654,10.445113413397333,0.1295269990589343
33.031127999999995,10.488289449806105,0.12887333951927493
33.035715999999994,10.535107365454094,0.12822271146460654
33.04031199999999,10.584423356465363,0.1275946228705123
33.0449,10.64081263834367,0.1269209163985749
33.049488,10.700066549727694,0.1262582495789772
33.054084,10.760874960578724,0.1256008952817663
33.058671999999994,10.825036739792052,0.12493535564022071
33.063267999999994,10.886910911253501,0.12430798695574462
33.06786,10.949317963020162,0.12369576475223469
33.072455999999995,11.01045902619674,0.1231063458794076
33.077043999999994,11.067757982154431,0.1225567808450686
33.081644,11.127344545864004,0.12198360230785231
33.086223999999994,11.18549879482072,0.1214145809963243
33.090824,11.240299675415132,0.12086354054986029
33.09541599999999,11.294445490990189,0.12031172884202636
33.10001199999999,11.346626111507176,0.11975409910175576
33.104595999999994,11.396719352251946,0.11919388263750709
33.10919199999999,11.440516551863183,0.11867931000450488
33.11378,11.484025240597502,0.1181515224418013
33.118371999999994,11.523525495950164,0.11763925469721842
33.122964,11.56057181738817,0.11713541939317708
33.127551999999994,11.592954640425168,0.11663967664603649
33.13213999999999,11.620796149775295,0.11614816301951701
33.136723999999994,11.641930922400824,0.11568490776198119
33.14131199999999,11.655459523854104,0.1152538103869241
33.145903999999994,11.664857507211579,0.11483830529926571
33.150499999999994,11.66857037300625,0.114439554448852
33.15508799999999,11.671217478190501,0.114025744621949
33.159684,11.668179465811944,0.11362650549745575
33.164275999999994,11.665219496698903,0.1131978649140219
33.168856,11.660949397547151,0.11276182404616952
33.173452,11.648462203652421,0.11237543160034118
33.17804,11.632377271967101,0.11200849284312536
33.182652,11.617558328871866,0.11162324722702832
33.18724,11.602084320757273,0.11123397608063702
33.191827999999994,11.583134759566239,0.11085891600928688
33.19642,11.564429567803492,0.11047442023220573
33.20101999999999,11.547112549344977,0.11006738613145657
33.20562399999999,11.529140465867105,0.10965654641670305
33.210212,11.509125144065647,0.10926296124019204
33.21481599999999,11.492174679749569,0.10884189064114132
33.219396,11.480743006833523,0.10838837308058052
33.223992,11.47200963726042,0.10792079708504534
33.22857199999999,11.46879505908735,0.10742191270005902
33.233172,11.47007765315252,0.1068997107583186
33.237759999999994,11.47021644334175,0.10638995635311901
33.24236,11.470643744407901,0.10589624116474823
33.246956,11.472625544941057,0.105402817585716
33.251552,11.480659017179455,0.10488744663603697
33.256131999999994,11.490002619456567,0.10438131076412678
33.260724,11.504620643705417,0.1038555781885989
33.265316,11.52565689380195,0.10329554200543069
33.269907999999994,11.55401080419381,0.1027003234160331
33.27449599999999,11.581098725995588,0.10212299513262167
33.279084,11.611784385587956,0.10153207389346496
33.283672,11.653263258552096,0.10089692238239435
33.28827199999999,11.694131207945514,0.10028339900457502
33.292852,11.73066831126346,0.09971034154153753
33.297436,11.768637729334266,0.0991451907048298
33.302032,11.808650385728662,0.09856513209362769
33.306611999999994,11.849318107142414,0.0979934448007538
33.311195999999995,11.89076307828967,0.09742891234055982
33.315788,11.931064245560982,0.09687911001496577
33.32037999999999,11.969322174508708,0.09634948025328778
33.324971999999995,12.003737996237552,0.09584321686658964
33.329559999999994,12.041873740471132,0.09532036202509706
33.334152,12.08151984272309,0.09477548428288356
33.338736,12.120510879955688,0.09422933675209792
33.34332799999999,12.1559041793977,0.09370034067513652
33.34792399999999,12.191541848267999,0.09316649396024233
33.352515999999994,12.223826148775998,0.09264260508705968
33.357116,12.251735461759905,0.09213295776728173
33.361695999999995,12.274125983343781,0.09165032552355212
33.366296,12.297127428498383,0.09114904575341003
33.370887999999994,12.31612044027133,0.09065053553844724
33.37548399999999,12.323298619510709,0.09019883970226092
33.380067999999994,12.334030395092048,0.08971244040167341
33.384663999999994,12.351136255072444,0.08917751056922284
33.38925199999999,12.366032550566475,0.08863821469058578
33.393848,12.382849899669951,0.08809161830140712
33.398436,12.398601488163003,0.08753068564314469
33.403032,12.408057035522518,0.08699139785516957
33.407619999999994,12.42016674477635,0.08642260996774456
33.412204,12.428023651220238,0.08585998405393663
33.416796,12.444053510958472,0.08524825864302826
33.421384,12.456852187048549,0.08463756144955892
33.425971999999994,12.471694101462212,0.08401701015863369
33.430564,12.484737146980581,0.08340225025117075
33.43516,12.499046181089037,0.08277496314130608
33.439747999999994,12.51000184683519,0.08215085599064428
33.444348,12.519036458971902,0.08153571140679435
33.448936,12.53101374387985,0.08090608893674084
33.453532,12.542458148482584,0.08026785454663182
33.458124,12.55672304114241,0.07962137470168897
33.462703999999995,12.5706213796598,0.07898564980205641
33.467299999999994,12.5897499987003,0.07831632675013316
33.47188,12.605280879950211,0.07765811500789074
33.476468,12.619012892304825,0.07700728885045716
33.481064,12.63274490465944,0.0763573330268993
33.485656,12.642101929489959,0.07571512710247309
33.490255999999995,12.6483940968351,0.07508988167376704
33.494848,12.65390901444674,0.07446096333331104
33.499444,12.652272597925823,0.07387049740268496
33.504031999999995,12.653334484747853,0.07327314504024242
33.508627999999995,12.645812722684468,0.07270810734863027
33.513212,12.63804659119279,0.07214919001215439
33.51781199999999,12.626438352482232,0.07160490395561073
33.522408,12.618550036276408,0.07105067202978269
33.527004,12.609640100908795,0.07050177761445582
33.53159599999999,12.60522733777942,0.0699450367195609
33.53619199999999,12.602857812973632,0.06937799646366312
33.54079599999999,12.601265537901345,0.06881418315727894
33.545384,12.60045051256256,0.06825206382428817
33.54996799999999,12.596570629738395,0.06770600629865262
33.55456399999999,12.594611800523671,0.0671535349247573
33.559155999999994,12.591797678309929,0.0666262653310499
33.56374399999999,12.591315305296693,0.06610586879260996
33.568332,12.58956694369337,0.06559759542396212
33.572928,12.586552593499967,0.06510053062008327
33.577524,12.583171689164125,0.06461236883675776
33.582111999999995,12.579424230685843,0.06413306142186952
33.586704,12.581073378893448,0.06364681643764435
33.591288,12.588607872643527,0.06313933246519574
33.59587199999999,12.596020181679458,0.0626356279130928
33.60046,12.607807478239483,0.06213009800927889
33.605048,12.621393643694804,0.06162293687384899
33.60964,12.63665649333127,0.06111782360148182
33.61422,12.646933431872917,0.06063213408556743
33.618812,12.658109804862216,0.06014638841619196
33.623416,12.664544636184981,0.05967271332187339
33.628004,12.6708572827936,0.059203534496895256
33.63259599999999,12.674471626059276,0.05873735504228341
33.637176,12.676942165449011,0.05827851166008058
33.64176799999999,12.680189954572251,0.057822693247277526
33.646348,12.685236612590785,0.057367016845142595
33.650952,12.68860658642817,0.05690923075576583
33.655536,12.690177691370259,0.056453414777439107
33.66012799999999,12.692770415474143,0.0559940459929919
33.66472399999999,12.69446370513038,0.055534208957482956
33.669315999999995,12.69909966755785,0.05506576254363158
33.673916,12.70655611804241,0.05459207654158934
33.678512,12.709148842146293,0.054131340979423216
33.6831,12.707532904888856,0.05368917377733971
33.687695999999995,12.701053241250742,0.05325739342712134
33.692283999999994,12.689709851231953,0.052836993139667804
33.696867999999995,12.67452435399428,0.052423688826967005
33.70145599999999,12.651532457604695,0.052027636041255855
33.706056,12.629317810948615,0.05163305856954058
33.710643999999995,12.59995183015998,0.051262205612240715
33.715239999999994,12.568953306638821,0.05090995156480862
33.719832,12.527616406785581,0.05059541741629192
33.724419999999995,12.481582106714441,0.0503106250136684
33.72902,12.428640841939039,0.05004192637168944
33.7336,12.366993743564075,0.049790079280491256
33.738192,12.295497007713612,0.04956230124112177
33.742788,12.218892176054185,0.04935032934828708
33.747376,12.133214956652758,0.04916545040831316
33.75198399999999,12.039364783956982,0.049007442583794615
33.756575999999995,11.939262711576303,0.048872887610326925
33.761171999999995,11.830743316472981,0.048773192237957896
33.765767999999994,11.713273718341812,0.048697927178362764
33.77036,11.589674405239881,0.048643481767291975
