Time,Force,Position
27.407664000000004,2.070221998115169,0.04737515270549133
27.412256000000006,2.0636815875533427,0.04741581808009957
27.416844000000005,2.054198504220281,0.04749460252100324
27.42144,2.0516223855914832,0.04747337330707465
27.426027999999995,2.0471252133532443,0.04747285291408873
27.430632,2.0427502258291503,0.047451229301199244
27.435232000000006,2.0355547502479676,0.04745190283139993
27.439836000000007,2.023373363571963,0.04753692140119862
27.444427999999995,2.012457965486043,0.047560163873575215
27.449031999999995,1.9959015912859444,0.047628228415553205
27.453619999999997,1.9821657051429356,0.04767273805614262
27.458220000000004,1.9591911050951565,0.04776299441552587
27.462808000000003,1.9359721356190864,0.047899954722817766
27.467403999999995,1.9145520350383118,0.04803777990746738
27.471991999999997,1.8941535536193308,0.048144708032530376
27.476588,1.8768199296857302,0.04818282715884902
27.481176,1.8602635554856317,0.048241674098351194
27.485768,1.8466498540567682,0.048257374992076496
27.490356,1.8361010101132855,0.04820810280117706
27.494952000000005,1.8218322436650658,0.04818078685336397
27.499540000000003,1.803721369997963,0.04819942634806772
27.50413200000001,1.7859770504732972,0.04814931930265942
27.508720000000004,1.7624695701203077,0.048180444008305526
27.513308,1.7370410361578763,0.04822549024065533
27.517896,1.7146773596808258,0.04819432868942566
27.522496,1.6875721415372444,0.04821103230237566
27.527083999999995,1.6636539655931897,0.04812727664511594
27.531676,1.6401023437915716,0.0479673809702528
27.536272000000004,1.612708614771071,0.04785522590870441
27.54086,1.5918552963123964,0.04768983868304488
27.545452000000004,1.5683036745107786,0.04751427389764973
27.550040000000003,1.5530913321662827,0.04728773353406834
27.554632000000005,1.5380011745359325,0.04703024019508158
27.559228,1.5211121480102863,0.046768110465318924
27.563816,1.499359395103964,0.04657983101709786
27.568428000000004,1.473886719692905,0.04640229787297141
27.573016000000003,1.4409741992723712,0.04627650353424174
27.577611999999995,1.403486463348081,0.04645827439248138
27.582196000000003,1.3670644880342124,0.04686545155131721
27.586784,1.3369826953025066,0.04755665481399603
27.591388,1.3108312926869414,0.04871443511027837
27.595968000000006,1.2851788685596974,0.050537823793635805
27.600559999999994,1.2697970171307555,0.05292385290839966
27.60514,1.2572900348392697,0.056131796439694064
27.609739999999995,1.2478242478480142,0.060203175428335434
27.614327999999997,1.255013357585852,0.06448842155719085
27.618928000000004,1.2723610949395847,0.06927050874092976
27.623520000000006,1.3056747621861653,0.07434316408562765
27.628111999999994,1.3607616616025457,0.07953037951245188
27.632704,1.4301039049137338,0.08504180381790476
27.637296,1.5193866096825372,0.09081273234255677
27.641888,1.6273437873188707,0.09671605536428644
27.646483999999997,1.7654237162138644,0.10254623376182134
27.651072000000006,1.9282297896816316,0.10845417578238821
27.655668,2.119604114941055,0.11434685198631683
27.660256,2.3345607808973132,0.12036096254340839
27.664840000000005,2.5836044900452597,0.1262877732587023
27.669428000000003,2.861538863678672,0.1318984857960455
27.674007999999997,3.1587586337503417,0.1373779794654557
27.678592,3.475996908545144,0.14257699825227677
27.68318,3.8136982854710326,0.14727768694482937
27.687763999999994,4.168220885288788,0.15137618576247006
27.69236,4.536411567615774,0.15482555037551896
27.696948,4.922190482936391,0.15742135085239872
27.70154,5.322282306153856,0.15915802477951188
27.706132000000004,5.721885390514738,0.16067021916795657
27.71072,6.12324320232229,0.1617410052136551
27.715304,6.519727048117427,0.16255267492982925
27.719896,6.906751472764654,0.16320077351173556
27.7245,7.286926496709656,0.16349776097722407
27.729080000000003,7.654156306798564,0.16354324147984206
27.73368,8.0041439587728,0.1634427525108579
27.738260000000004,8.324908293936025,0.1634294270381128
27.74286,8.624544222317066,0.16332376464861065
27.747448,8.90010907114469,0.16320603694051744
27.752047999999995,9.151725025133043,0.16303516879610427
27.756644,9.378614834548623,0.1628753964787406
27.761239999999997,9.57963469551549,0.16274175181144757
27.76582,9.760792138290261,0.16251153659670473
27.770412,9.922742227892291,0.16220568736065152
27.775004000000003,10.066672909646147,0.16184267981446668
27.779596000000005,10.19683698636178,0.16137392048049976
27.784184000000003,10.31340078420196,0.16083409366768162
27.788772,10.408435719300629,0.16033634957532666
27.79336,10.484928605877656,0.15986323722584564
27.797952,10.549830550085927,0.15933860292369406
27.80254,10.6037966169448,0.15876625504938946
27.807132000000003,10.650224316265199,0.15814539569335567
27.811727999999995,10.688136170333966,0.15751673970799426
27.81632,10.714878017256785,0.15693365458676653
27.820916000000004,10.736501528738895,0.15634006393190406
27.825495999999998,10.749208739010044,0.15580486355107787
27.830088,10.76121674281321,0.15524022207301524
27.834672000000005,10.772769909576683,0.1546395365963127
27.839264000000007,10.782602250710378,0.15402478694872168
27.843852000000005,10.797498546204412,0.15331383846041421
27.848448,10.81079620078281,0.15258585194700144
27.853036,10.826748017255525,0.1518065716048457
27.857628,10.84408800703247,0.15100139024918344
27.862224000000005,10.860240051484846,0.15019269851246284
27.866815999999996,10.870995489251337,0.14943731936593946
27.871407999999995,10.87893043896074,0.1487161920920634
27.87600800000001,10.878526109213022,0.14808078189681717
27.880596000000004,10.876078541141712,0.14746970162004458
27.885196,10.873386603642114,0.14686831897430414
27.889784,10.86889579724722,0.1462832460507777
27.894383999999995,10.863916251995743,0.14571876937801662
27.898964,10.857915087582471,0.14516835405743128
27.90356000000001,10.850525749864971,0.14464496497230814
27.908156,10.846734149938062,0.14408912570880505
27.912752000000005,10.845274299211658,0.1435253805615791
27.917340000000003,10.851909358514085,0.14288975625920777
27.921932000000005,10.861897786178817,0.14223298647220695
27.926508000000005,10.871930355292172,0.1416050959466447
27.931104,10.884783412462617,0.14095030384726098
27.935684,10.895226677167038,0.14033825256824967
27.940276000000004,10.907879506357819,0.13972535222888838
27.944868000000007,10.916079304758991,0.13917666963283343
27.949448,10.921991495408287,0.1386634474791239
27.954035999999995,10.926804023630268,0.13819451184356474
27.958623999999997,10.936890973823992,0.13768752592239197
27.963208,10.947510804322926,0.1371891946357466
27.967803999999997,10.964304491241249,0.13664475676581084
27.972392000000006,10.98649478484546,0.13605729774245023
27.976988,11.0126493703827,0.13543038707330576
27.981576,11.039581205653443,0.1348014514628028
27.986163999999995,11.068067540391189,0.134171118841634
27.99076,11.09720894014829,0.13354622690246964
27.995352000000004,11.130436816552567,0.13287711824396536
27.999956000000005,11.162520889080904,0.1322275588519476
28.004535999999995,11.192028842980445,0.13159707858583203
28.009136000000005,11.219737927984687,0.13098499450297033
28.013715999999995,11.243482721055901,0.13041412517662615
28.01831600000001,11.265673014660116,0.1298488148800068
28.022907999999997,11.288762742711974,0.1292811733141798
28.027504,11.31299627463977,0.12870037208465795
28.032087999999995,11.332610449615187,0.12815733083166495
28.036684,11.356188916523626,0.12757518716596683
28.041276000000003,11.380911187308007,0.12697886614983908
28.045872,11.406366566377262,0.1263568374359281
28.050472000000006,11.430389630693657,0.12573868791807324
28.055068,11.455023618580784,0.12510134574546644
28.059656,11.477570226695692,0.12446283865418539
28.064252000000003,11.500727758381329,0.1238068629486811
28.06884,11.51848868338108,0.12318873682160962
28.073424,11.540336085028004,0.12253302886894636
28.078004,11.558297238007418,0.12188542967402419
28.082600000000006,11.575070445662265,0.121229300962554
28.087191999999995,11.590166969135959,0.12058344688386963
28.091780000000007,11.607018220056323,0.11990429899945275
28.096371999999995,11.62603489401442,0.11920349105759584
28.100959999999997,11.643086372914446,0.11849492432687801
28.105556,11.66638975149938,0.11772614596647486
28.110148,11.689160249779103,0.11695016274731017
28.114736,11.70731139110644,0.11620658925216791
28.119332000000007,11.723252967947417,0.11546342428540056
28.123920000000005,11.742503771702069,0.11468344821603302
28.128508000000004,11.760688814846295,0.11389080021636666
28.133104,11.778340977685314,0.11309226965066312
28.137691999999998,11.794438641057324,0.11229649931154621
28.142288,11.807715816372248,0.11152147892471985
28.146876,11.82021574195367,0.11075017546794853
28.151484000000004,11.834514536430387,0.10997180623658974
28.156063999999997,11.846115027564162,0.10921079398920337
28.16065200000001,11.860536006755023,0.1084318019543462
28.165236,11.87123706344115,0.10767902361522767
28.169836,11.885780227346158,0.10690098750697158
28.174420000000005,11.899179587375226,0.10613611229167957
28.179016,11.912578947404295,0.10537348922623019
28.183603999999995,11.919848592462603,0.10466149922406873
28.1882,11.925974433644969,0.10396432689854339
28.192788,11.934309839313698,0.10327211962017416
28.197380000000003,11.939458202782902,0.10261201219174232
28.201968,11.948204304042696,0.10193710278528365
28.206556,11.961814131683166,0.10123105566634483
28.211144,11.977755708524144,0.10052680377742536
28.215740000000004,11.996395588708067,0.09981508386873207
28.22033200000001,12.021209325311377,0.09908675530606317
28.224923999999994,12.045656507772247,0.09837168703985469
28.22952,12.072557624147771,0.09765553640177958
28.234100000000005,12.10240141329453,0.09692282129906774
28.238691999999997,12.1302019641177,0.09620696242100046
28.243272,12.156736526350786,0.0955097207123219
28.247852,12.183803968889084,0.09482273468232938
28.252447999999998,12.211526476446737,0.09414314450224315
28.25704,12.239126799290247,0.09346892738972204
28.261636000000003,12.264561699096022,0.09281588171910496
28.266224,12.292817086958888,0.0921510700488749
28.270816000000003,12.320950290107607,0.0914927244722904
28.275420000000004,12.357667142141738,0.09079228850677554
28.280012000000006,12.391563506118782,0.09010608546816987
28.284608,12.423538816486383,0.08943251030350198
28.289188000000003,12.455758496282277,0.08875396643662821
28.293788,12.484258253573435,0.08809404102938234
28.298371999999997,12.511369837560359,0.08745621154799589
28.302975999999997,12.537459802385492,0.08682772059495726
28.307556,12.560362725011096,0.08622641926047551
28.312152000000005,12.576480867646584,0.0856638468162921
28.316731999999995,12.596441117500955,0.08508564234881504
28.321324,12.616156997927035,0.08451729515288504
28.325911999999995,12.634484705048887,0.08396842030991247
28.330508,12.654244726923597,0.08342591712487545
28.33508800000001,12.676703052141251,0.0828786735512863
28.339679999999998,12.700060811806553,0.08233102366786901
28.344268000000007,12.723296386757708,0.08178939200134588
28.348868000000003,12.747064842014073,0.08125728676934009
28.353456,12.773165046470947,0.08073084525951457
28.358051999999997,12.794812220138205,0.08023940286532046
28.362648,12.814171786053588,0.07976744566074247
28.367228000000004,12.828301071445857,0.07933065562020705
28.371820000000007,12.846805344362224,0.0788870532706428
28.3764,12.868007920621528,0.07843855853663384
28.380987999999995,12.889743377186047,0.07800040860562135
28.385584,12.915731636560512,0.07756057542259935
28.390172,12.939021592592033,0.07712795593318768
28.39476,12.96014612558582,0.0767104622558249
28.399352,12.977550736074875,0.07630436745842668
28.403944000000003,12.993567173259699,0.07591430614550967
28.408536000000005,13.005497133797347,0.07554785256961054
28.413132,13.016649844601492,0.07518096810112988
28.417736,13.02575931708205,0.07482498710466343
28.422324,13.0358904087244,0.07446454838278506
28.426924000000007,13.042956642881373,0.0741214913989748
28.431512000000005,13.049001257876549,0.07378460272517154
28.436112,13.053491373404723,0.07344500151701482
28.440704000000004,13.058880923380546,0.0731043430539517
28.445304,13.062715973889365,0.0727612568389329
28.449900000000007,13.071903489635439,0.07238604763987169
28.454500000000003,13.08403367815275,0.07199935702661728
28.459084,13.100128158603086,0.07159724893299217
28.463680000000004,13.1122583471204,0.07121246742370782
28.468276,13.118625374809385,0.07084752565886512
28.472872,13.12115029527949,0.07049558414324544
28.47746,13.11815642434956,0.07015661030555684
28.482055999999996,13.117983041476721,0.06980984992629395
28.486644000000005,13.121896135251056,0.0694440913332746
28.491228,13.132471824301362,0.06905846351460632
28.495816,13.143536252208252,0.0686588524094681
28.500412000000004,13.157543352886377,0.06824939715242746
28.505004000000007,13.167830531059764,0.0678485668949891
28.509595999999995,13.179383697823237,0.06743612508523697
28.514183999999997,13.187461311510262,0.0670258851458787
28.51877200000001,13.192307741549133,0.06661021720198246
28.523363999999997,13.197154171588004,0.06619516273661838
28.527956,13.200856797750935,0.06578791394348767
28.532543999999994,13.202105489999216,0.06537787254134997
28.53714,13.199634259742757,0.0649753317902616
28.541720000000005,13.195897040896215,0.06458523804040371
28.54632,13.191504757030318,0.06419023201968689
28.550915999999997,13.176974324812,0.06381278749500383
28.55550400000001,13.164975869773855,0.063412736045962
28.560108000000007,13.159884379439973,0.0629886850668818
28.564696000000005,13.156058877696177,0.06255249238273884
28.569300000000005,13.153254995114171,0.06211082865190157
28.57388,13.146609005313286,0.06167949888378494
28.57848000000001,13.137142527455307,0.06125491371741663
28.583068000000004,13.121912888769007,0.06084583924247738
28.587668,13.10733831510206,0.060441702699484
28.592248000000005,13.086223330873292,0.060049303226405455
28.596848,13.067806649987464,0.05965295585611301
28.601436,13.048368349939846,0.059259806239456425
28.60603200000001,13.031628353235169,0.058863409426442914
28.610620000000004,13.016809410139935,0.058460554957329304
28.615216,13.00223483647299,0.058051083614953064
28.619812000000003,12.986760828358397,0.05764093031479833
28.624412,12.974107308300898,0.05722524492797427
28.629004,12.96492934131984,0.05680931824675018
28.633592,12.950476952367042,0.05639273221831631
28.63818,12.93308189064301,0.05598364296253122
28.642764000000007,12.924026108376097,0.055561015510458826
28.647355999999995,12.913826522233247,0.05514549298401503
28.651952,12.891978429719604,0.05475741844844648
28.656544000000004,12.867964914168226,0.05437843620010215
28.66113600000001,12.844850833064498,0.053997935721139444
28.665727999999994,12.821858936674914,0.0536122811737233
28.670316000000007,12.795024933066447,0.053232968291588724
28.674912,12.76537044140089,0.05285544555977642
28.6795,12.730974408068805,0.052484231818509426
28.684088,12.698377243632013,0.05210974879630992
28.688692,12.66385902558578,0.05173764401664761
28.693279999999994,12.628197003663606,0.051370724811993354
28.697883999999995,12.587549070646613,0.051016762220681765
28.702471999999997,12.53962761878292,0.05068844461151191
28.70706000000001,12.479813291120141,0.050390305801469394
28.711656,12.415912486810189,0.05010363665234655
28.716255999999994,12.34126261057709,0.04984015607594117
28.720848,12.258029085458574,0.04958940022507229
28.72544,12.172263583159891,0.04935627540214256
28.730044,12.079346746728651,0.04914578703809313
28.734627999999997,11.973759784764827,0.04896251249834552
28.739228000000004,11.857179381449564,0.048810032146626776
28.743816,11.742397847029599,0.04865419073135561
28.748416,11.624795824552544,0.048498599047898466
28.753008,11.49644473015234,0.04836677510984483
28.757603999999997,11.360042867171936,0.048258623270973945
28.762196,11.219432342830213,0.04816650531509156
28.766783999999998,11.074490972413026,0.04809594040079452
28.771372000000007,10.92672911393875,0.04802606175026507
28.775968,10.770261421864912,0.04797291015767999
28.780556,10.603944092315576,0.04794601681572235
28.785148,10.429820363614331,0.04793767953370815
28.789736,10.24878967020882,0.04794974079871095
28.794332000000004,10.068780595965105,0.04795698368813619
28.798920000000003,9.891714194492623,0.04795565102611491
28.803515999999995,9.716446661915437,0.04795115628663673
28.808108,9.539135891014665,0.04795557078567685
28.8127,9.362724554561538,0.04795834938492289
28.81729600000001,9.184269979784828,0.04797045158717803
28.821884000000004,9.006059774436409,0.047973252220157796
28.826476000000007,8.83067005714508,0.04797219251780955
28.831056,8.659244631786775,0.047957193463091005
28.835643999999995,8.487697021714327,0.04794400249725881
28.84024,8.311041315832911,0.04795506617486622
28.844828,8.138105532456233,0.04796219472796225
28.84942,7.968234606564935,0.04795217749930145
28.854015999999994,7.797464246225989,0.04794179200679498
28.858591999999994,7.630902547248363,0.04790199381872369
28.863188,7.464218663556591,0.04786314517793006
28.867776,7.301010332941264,0.0478304804556822
28.872368,7.141644109544821,0.04778743070486936
28.876956,6.980479017253081,0.04774541521218947
28.881556,6.821234978570783,0.047700047289506796
28.886136,6.6599477015648985,0.04766665704169407
28.890736,6.496617186235427,0.047645882077540266
28.895328,6.323559218144602,0.04767102063002922
28.89992400000001,6.154221172558515,0.04769161988287851
28.904508,5.982062638915338,0.0477186802490168
28.909104000000006,5.80912685553866,0.0477413120557381
28.913692000000005,5.6408104291143655,0.04774913270711924
28.918284000000007,5.472494002690072,0.047757221460850124
28.922872000000005,5.301234903494543,0.04778311178857608
28.927460000000004,5.124989893204193,0.04785317002990003
28.932048,4.951687555685076,0.04791398550610615
28.936643999999998,4.774665295661223,0.04799285015304358
28.941232000000007,4.596377047047286,0.0481037736812438
28.945832000000003,4.41886604816685,0.04823644308123262
28.950411999999996,4.239311810962827,0.048379839301329094
28.955000000000005,4.059635389044659,0.04853837504622663
28.959596,3.8809805862882847,0.0486971509204941
28.964184,3.704246837141351,0.048844389796200614
28.968764,3.5291897721755676,0.04903994083567739
28.973360000000007,3.3580969991428122,0.049192204757789966
28.977944,3.1899468988812925,0.04932175738369901
28.982536000000003,3.0255167211245095,0.04945219075395266
28.98712800000001,2.8688929425196372,0.04952832098380574
28.991719999999997,2.7122691639147654,0.04961444598249638
28.996312,2.55912093838634,0.04974632362117417
29.000908000000003,2.4068721473055614,0.049901618589621576
29.005515999999997,2.2496374451299617,0.05021563738594922
29.010104000000005,2.0979215343543944,0.04781173211339264
29.014704,1.9499255460835636,0.0453960240712586
29.01928400000001,1.8088365225169967,0.04294235227840598
29.023884,1.6741657247981103,0.04048595433882071
29.028472,1.547834206536346,0.03801158322814124
29.033072,1.4253447954934642,0.03551825591060378
29.037659999999995,1.3074747414029675,0.03300366205612471
29.042252,1.1911591867794753,0.030499052361545428
29.046844,1.0808953038612263,0.027987302464978794
29.051440000000007,0.9734519090000671,0.025469294178716063
29.056028000000005,0.8702613169488554,0.02296395806844386
29.060619999999997,0.7810509804689443,0.02040439669566263
29.065208000000005,0.6942945779036854,0.017881379259733356
29.069796000000004,0.6098699245389332,0.015373845679211382
29.074375999999997,0.532885116183655,0.012857714608595323
29.078968,0.4610525450859725,0.010360282867344698
29.083552000000005,0.3991137529124164,0.007852137401333299
29.088148,0.34371537130068663,0.005297171344306476
29.092735999999995,0.29833295332722887,0.0027177271179581785
29.097323999999997,0.263865933439691,0.0
29.101916,0.2289101746955704,0.0
29.106503999999997,0.20012827237083916,0.0
29.111092000000006,0.17469973840840802,0.0
29.1157,0.14914901973183117,0.0
29.120287999999995,0.12719603884584568,0.0
29.124892,0.10937367605566248,0.0
