Time,Force,Position
29.016352,0.7080113997685873,0.0
29.020951999999998,0.7128751261492636,0.0
29.02554,0.7125085720068265,0.0
29.03014,0.7096100406842197,0.0
29.034732,0.7031137715710216,0.0
29.039331999999995,0.6993158058007669,0.0
29.043916,0.6965394591923059,0.0
29.048511999999995,0.6900431900791077,0.0
29.053104,0.687877767041375,0.0
29.057696,0.6896766359366707,0.0
29.062296,0.6882884626324403,0.0
29.066896,0.680482063480529,0.0
29.071487999999995,0.6779059448517312,0.0
29.07608,0.673408772613492,0.0
29.080668,0.670466099842257,0.0
29.085255999999998,0.6713655342899049,0.0
29.089844,0.6645807542997871,0.0
29.09444,0.655097670966726,0.0
29.099031999999998,0.6435713493100778,0.0
29.103624,0.6324115817958664,0.0
29.10822,0.616388087900979,0.0
29.112807999999998,0.6022856476155328,0.0
29.1174,0.5904708150819652,0.0
29.121987999999995,0.5780009175290409,0.0
29.126576,0.5682293233190603,0.0
29.131172,0.5583355443949338,0.0
29.13576,0.5467650812896574,0.0
29.140356,0.5389145406891181,0.0
29.144952,0.5259559042796111,0.0
29.149539999999995,0.5108318448323714,0.0
29.154143999999995,0.496851589261071,0.0
29.158736,0.4883901250898033,0.0
29.163332,0.47698598814730075,0.0
29.167911999999998,0.4705677622996201,0.0
29.172512,0.46553770975617004,0.0
29.177088,0.4575649844414851,0.0
29.181695999999995,0.4594418966022983,0.0
29.18628,0.46185168906832236,0.0
29.19088,0.4683479581815205,0.0
29.195476,0.47345605399048807,0.0
29.200072,0.4802408339806057,0.0
29.204668,0.48911299374293865,0.0
29.20926,0.4998281638491953,0.0
29.213852,0.5168835165376151,0.0
29.218447999999995,0.5370920096086718,0.004545687321106732
29.223036,0.5590654697581348,0.009671441053042077
29.227639999999997,0.5852578309006563,0.015302458856774994
29.232228,0.612071355245645,0.021436422301333725
29.236816,0.6480896916785142,0.027712058177643946
29.241404,0.686650244923292,0.034432282927345244
29.245996,0.733271806380011,0.041159281710379025
29.250592,0.7820690305062015,0.04811206346089752
29.255184,0.8401152081689005,0.05507977785110191
29.25978,0.902180058844995,0.06222957051488189
29.264368,0.970717516449137,0.0695728008676206
29.268956,1.0551326210488703,0.07687585396262656
29.273543999999998,1.1450869963121142,0.08442973969555657
29.27814,1.253372952485601,0.09188675541954429
29.282736,1.3739049160471988,0.09948874531364596
29.287324,1.5133454822728787,0.10711350916502531
29.291936,1.6724277594475152,0.11465899846138602
29.296516,1.839747610628606,0.1224429217030412
29.30112,2.0216010769496853,0.13029061895656713
29.305716,2.213979725029097,0.1382120012947641
29.310303999999995,2.419293347332865,0.14158920055132013
29.314899999999994,2.6394629974704302,0.1444002543603108
29.319492,2.8787414782517415,0.14664283741254033
29.324088,3.1372951158395725,0.14838201259458678
29.328672,3.4153682796622142,0.14989549268272906
29.333264,3.7146376539008163,0.15094206232053026
29.337844,4.030361696888849,0.15196229765574062
29.342451999999994,4.364172951358834,0.15273097724935564
29.347044,4.71218516864326,0.153447241955883
29.351631999999995,5.0706342847887615,0.15399910325203325
29.356227999999994,5.4413972119561524,0.1543237957180615
29.360816,5.810649781105168,0.15470792913658252
29.365412,6.185010446063153,0.15481792835546299
29.370008,6.558060980982423,0.15499220319874168
29.374612,6.931634156575167,0.15497751030377346
29.3792,7.301066474440369,0.15489038337056543
29.383788,7.6629265229502135,0.15485691056557935
29.388375999999997,8.032782958959894,0.15446436907351824
29.392964,8.393668712678245,0.15398640328767196
29.397555999999994,8.748937152467569,0.1533984459333956
29.402144,9.095767790270775,0.15277670544013383
29.40674,9.432684169886377,0.15209296126757238
29.411328,9.749626186227477,0.15145518389452825
29.415916,10.04920385973976,0.15075838441431536
29.420511999999995,10.319113619033075,0.15015900902159346
29.425104,10.56278687573524,0.14957499246557432
29.429683999999995,10.782266868169843,0.14898031949234788
29.434292,10.977842107213803,0.14839003772298973
29.43888,11.148779484582242,0.14783179451296838
29.443487999999995,11.304728409771002,0.14721507123244704
29.448076,11.439559167809321,0.1466239135087808
29.452664,11.56010068013594,0.14599639961775115
29.457255999999997,11.665331327589069,0.145354752468905
29.461856,11.752186252683321,0.14473348752656065
29.46646,11.823407900210277,0.14413447443420585
29.471052,11.879162596332707,0.14357469738680617
29.475656,11.92329244826949,0.14301175845431377
29.480252,11.947013579155556,0.14256782086679426
29.484843999999995,11.963040255972116,0.14212559556885798
29.489424,11.968019110356872,0.14170451022543043
29.494024,11.961705772881533,0.14131183414473292
29.498611999999994,11.945821069175876,0.14096092825153486
29.503212,11.924495617335703,0.14062784943059525
29.507808,11.897529189381354,0.14034545813252094
29.512408,11.874038314503448,0.14003843351431738
29.516991999999995,11.85365643855955,0.13972020600409782
29.521584,11.833196519350137,0.13943002469987348
29.526171999999995,11.812902926303495,0.13915904958414735
29.530767999999995,11.79584051690501,0.1388730061412139
29.535356,11.777512118916441,0.13860734501859606
29.539952,11.762414904576026,0.13832724603223429
29.54454,11.752225558064914,0.13802396171418865
29.549124,11.742735418021788,0.13774701497198472
29.553715999999994,11.740362710294326,0.13744498006772096
29.558308,11.742653500967876,0.13713001408494785
29.5629,11.749485605328292,0.13680627877841042
29.567484,11.756772546728403,0.13651799549105756
29.572084,11.768600801815381,0.13622095926907934
29.576671999999995,11.78574762032273,0.13591476905835484
29.581264,11.809767501717452,0.13559514148160406
29.585852,11.84282586903728,0.1352368306827749
29.590444,11.881080615063334,0.13487339426090839
29.595036,11.927352227852701,0.1344821111343745
29.599628,11.97714353516714,0.13409438039191454
29.604228,12.030698906434944,0.13370277337324274
29.608824,12.089162145532056,0.1332948243215693
29.613412,12.150856568277318,0.1328760349584541
29.618004,12.216559424404238,0.13244490289421315
29.622595999999994,12.283328041141582,0.132029472416551
29.627191999999997,12.350507353469988,0.13162730042391307
29.63178,12.419241165265401,0.13122561073877997
29.63638,12.487852792346668,0.1308344745499147
29.640967999999997,12.559162722770878,0.13042895050533584
29.645564,12.624953861795055,0.1300660959107358
29.650156,12.688046697476288,0.12972475894361132
29.654756,12.747786164795224,0.12940017897403494
29.65934,12.80748149066553,0.12905336081786764
29.663936,12.86545599090606,0.12869361938517648
29.668516,12.918111927726219,0.1283449701293395
29.673112,12.966226550859512,0.12800555123967575
29.677699999999994,13.007512252554058,0.12770230088079945
29.682295999999997,13.046299878885323,0.1273872759677232
29.686876,13.080790560958013,0.12707249392843292
29.691464,13.11392697154336,0.12673216533501794
29.69604,13.14366587231778,0.1263851408451874
29.700636,13.168741274691186,0.12604961268680526
29.705228,13.193117470596608,0.12569151383134694
29.709816,13.214340526119392,0.1253185904255519
29.714408,13.234209310154835,0.12492006461333491
29.718999999999998,13.253256703008146,0.12450216488250346
29.723592,13.26698553244109,0.12409057687804215
29.728176,13.273108190701784,0.12371012102806699
29.732764,13.271624677790234,0.12336041192350009
29.737359999999995,13.268298154534758,0.12299802209246158
29.74194,13.263905870668857,0.122622873028435
29.746528,13.263844432878425,0.12220501624049374
29.751124,13.264804614249787,0.12177890926298243
29.755716,13.266542045354647,0.1213524016478222
29.760316,13.269833975926513,0.12092407096408335
29.764908,13.273248091212524,0.12049245649184553
29.769507999999995,13.274086087869739,0.12007065096907125
29.774083999999995,13.27480189981281,0.11965312365301776
29.778676,13.274251723165793,0.11925209342247817
29.783268,13.275011676557487,0.11885758429427022
29.787864,13.277326129416188,0.11846154000093155
29.792448,13.280417832008395,0.11806527333083223
29.797044,13.284164599619952,0.11767330750950016
29.801632,13.290120931717873,0.1172833410045282
29.806224,13.29481127522571,0.1169096338042612
29.810816,13.30027886846705,0.1165359700393046
29.815416,13.30591278787116,0.11617934878307999
29.820004,13.319641617304104,0.11578213311736148
29.824592,13.341831910908313,0.11533369840118143
29.829179999999997,13.369174441770122,0.11486621085840781
29.83378,13.397172037651286,0.11440296713341873
29.838368,13.420428091865917,0.11397132675869233
29.84296,13.443395635203633,0.1135274584434725
29.847556,13.46505304850263,0.1130789224129257
29.852135999999994,13.48474526674356,0.11262218328110356
29.85672,13.501983551069845,0.11217111540956913
29.861307999999998,13.521875997290437,0.1116848709967415
29.865896,13.539681063738815,0.11119320239404158
29.870492,13.55564311984327,0.11068781580755702
29.87508,13.565142808651416,0.11019356640920155
29.879672,13.574842725439224,0.10967205155484004
29.884263999999995,13.57795809021658,0.10916396422877364
29.888856,13.57526615271698,0.10866964056272048
29.893452,13.566111847921075,0.10818507562543994
29.898032,13.553315663885948,0.10769318054073654
29.902628,13.535978166163956,0.10719859478950584
29.907208,13.51932963527821,0.10665853715549505
29.911804,13.494419868200858,0.1061353567518609
29.916391999999995,13.459982876341815,0.10564295807839694
29.920992,13.420227321062406,0.1051466644419311
29.92558,13.37556389795369,0.10465643481077558
29.930176,13.329956898948698,0.10414531409229764
29.934756,13.279974912419613,0.1036467479445976
29.939352,13.22549575365229,0.10316404376582552
29.943943999999995,13.168196106827873,0.1026930634138836
29.948536,13.111918079165255,0.1022118204747665
29.953115999999994,13.058216170131434,0.1017206436392646
29.957708,13.004392076383468,0.10123003414902933
29.962295999999995,12.953266285978444,0.10072526412730301
29.966891999999994,12.906637667811658,0.10019907282991963
29.971488,12.85363496524582,0.09972093592833473
29.97608,12.80770555354702,0.09921497072339772
29.980675999999995,12.76410789104873,0.09870655117971619
29.985256,12.72680626968397,0.09817076958293823
29.989852,12.695189765882017,0.09762688177661184
29.99444,12.666437891585785,0.09708901803569275
29.999028,12.64018409265283,0.096569772704382
30.003636,12.618593792120889,0.09605040487450235
30.008219999999994,12.605631281922989,0.09550738331796853
30.012828,12.600930007916695,0.0949540886037649
30.017416,12.60510089367273,0.09437210511959335
30.022003999999995,12.6108704203444,0.09381284344100664
30.026596,12.621303445417084,0.09325615773072832
30.031192,12.639342641662013,0.09268571078446584
30.035788,12.663066955469754,0.09211180981433434
30.040367999999997,12.689123018477998,0.09154105774164766
30.044964,12.716489211524955,0.09098281527405486
30.049552,12.748885457115362,0.09041949150429991
30.054151999999995,12.785045766659133,0.08986699876165984
30.058732,12.822394021527472,0.08932916779081293
30.063332,12.870413305053441,0.08876206539476798
30.067916,12.920764337779914,0.0882025877719573
30.072516,12.97728922692578,0.08763117850742887
30.077096,13.033613888091983,0.08709343958835691
30.081692,13.091248679296898,0.08656850206259556
30.086279999999995,13.151093034988175,0.0860522769350304
30.090872,13.21375787873654,0.08552973236416866
30.09546,13.279121025827848,0.08500346423667524
30.100047999999997,13.339376077110188,0.08451032609468045
30.10464,13.394889586725997,0.0840412499032894
30.109236,13.448770553609284,0.08360046552568201
30.113823999999997,13.506371442997306,0.08314901594492856
30.118416,13.565893385994773,0.08269308233644346
30.123012,13.621817591201648,0.08224920482410103
30.127599999999997,13.680151588874546,0.08178847082510686
30.1322,13.739262836280947,0.08133211567099333
30.136779999999995,13.79555359563026,0.0808889938690772
30.14136,13.850944920531923,0.08045205614360207
30.145968,13.901961257909493,0.08002544946067522
30.150555999999995,13.953221964715356,0.07959484352685581
30.155159999999995,13.996509946206531,0.07918229117137854
30.159748,14.030559213792941,0.07879742427472006
30.164351999999997,14.057413005798162,0.07843051380869544
30.168948,14.080380549135878,0.07805765866632154
30.173536,14.100239093539582,0.07768091971224378
30.178135999999995,14.11404596623804,0.07731100517201533
30.182716,14.122334047536466,0.07695710274719793
30.187312,14.123304468539562,0.07662154554777022
30.191896,14.12680686672283,0.0762626830422647
30.196487999999995,14.128510396010801,0.07590741510814344
30.201076,14.122485569412381,0.07555837943423488
30.205676,14.112085755289865,0.0752154514194973
30.210272,14.093468846424372,0.07489115762456888
30.214872,14.075218491701317,0.07455655738742639
30.219468,14.04838448809285,0.07424998544072288
30.224059999999994,14.018441485550374,0.07393671725772648
30.228655999999997,13.987965602702687,0.0736147090621943
30.233252,13.951970928454966,0.07330492726688022
30.237848,13.914055200597804,0.07300035960405923
30.242448,13.874218419131202,0.07270139837718484
30.247035999999994,13.836058321845748,0.07240119786364647
30.251624,13.808402927055148,0.07206692808391682
30.256215999999995,13.780503162836261,0.07173764819287792
30.260808,13.75415789808438,0.071410624656133
30.2654,13.72985587165608,0.07107367571272649
30.269991999999995,13.715036928560844,0.07070896840749041
30.274587999999994,13.69907418158967,0.07035100881191646
30.279176,13.69055127962797,0.06997475931771391
30.283772,13.685137376600279,0.06960689122275361
30.28836,13.682666146343822,0.06922856068351776
30.292956,13.684692088325603,0.06884212132323855
30.297543999999995,13.691337387259772,0.06844664701218468
30.302139999999994,13.70632196565106,0.0680328924555489
30.306728,13.723760477957002,0.06762296394354647
30.311308,13.74941608500592,0.06719915043977079
30.315895999999995,13.780101744598289,0.06677955783574942
30.320484,13.810543034762366,0.06636719195022212
30.325076,13.844948616859469,0.06594084143302997
30.329671999999995,13.887815663127842,0.06549715395525059
30.334267999999994,13.934402631900952,0.065048259089351
30.33886,13.983277208425939,0.06458665026039802
30.343452,14.026266439408458,0.06414724354044206
30.348052,14.07730643897118,0.06368054925323628
30.352636,14.12949024240984,0.06320814632116183
30.357236,14.18053024197256,0.06274571611059311
30.361816,14.2277281343164,0.0622974850761929
30.366412,14.279134688021557,0.06183150923403744
30.370991999999998,14.325144635040829,0.061372861541929544
30.375584,14.368045583126092,0.060908558665523256
30.380176,14.412334704515585,0.06043463057801264
30.384767999999998,14.459688683390457,0.059951659990114814
30.389356,14.503567109188886,0.05947137981335317
30.393944,14.546912654682101,0.05898666182114172
30.398532,14.587926450974813,0.058497275937721215
30.403119999999998,14.622111325828776,0.05800594955453784
30.407712,14.649222909815702,0.057517981795458
30.412296,14.67747829767857,0.05702454465925771
30.416892,14.705611500827292,0.05653554406478312
30.421479999999995,14.722707121175947,0.05606012269336317
30.426072,14.733262330962777,0.05559468187128752
30.43066,14.741896487140165,0.055134131809055034
30.435252,14.746400025221748,0.05466571483809555
30.439843999999997,14.743097164151424,0.05421662088698177
30.444432,14.73889486863345,0.053768069427804446
30.449023999999994,14.72815216255365,0.05332634061250521
30.453616,14.709969611464373,0.05289177417567997
30.458203999999995,14.686023899546777,0.05246682435660545
30.462799999999994,14.664776490972123,0.05204005430279225
30.467392,14.631880576026674,0.05163394355763659
30.471996,14.587869035015641,0.05125797753135989
30.476583999999995,14.535029475690903,0.05089993950840413
30.481184,14.476426755537846,0.05054923664359693
30.485764,14.407730028480996,0.05022481492779989
30.490368,14.3308603481298,0.04992246963941821
30.494952,14.25337974420787,0.04963186623727166
30.499551999999998,14.171934848352917,0.04934708297748372
30.504135999999995,14.083582987793696,0.049075214559353125
30.508731999999995,13.983826990291973,0.04881597259001034
30.51332,13.878962896981283,0.048568274133056435
30.517916,13.766536773946978,0.048326265039844586
30.522504,13.645038263170672,0.04810603135843573
30.527088,13.51806510244296,0.04790665887255208
30.531668,13.380465054506255,0.04772262589347198
30.536252,13.231338684912897,0.04755359115637756
30.540844,13.08298956505304,0.04738306942304644
30.545435999999995,12.929654534098361,0.04722102833831485
30.550031999999995,12.770067603458779,0.047078239697194976
30.55462,12.594212809496016,0.04695707819358229
30.559216,12.416192592495522,0.04684313380274498
30.563807999999995,12.234452452990286,0.04672979578423287
30.5684,12.047848587104378,0.04662331850497924
30.572987999999995,11.852294518190618,0.04653765911154786
30.57758,11.647623920086234,0.04645190943479431
30.582184,11.438333965029464,0.04636673078870088
30.586772,11.218539307477842,0.04629580554106889
30.591359999999995,10.992737119669602,0.04623978833934121
30.595952,10.757451848528305,0.04619516312953443
30.600544,10.520123339063419,0.046154900587762455
30.605135999999995,10.279319276522088,0.04610478585643091
30.609731999999997,10.034673106761872,0.04605813419571253
30.614332,9.780788223096888,0.04601818549342911
30.618911999999995,9.525348839964897,0.045963653324720084
30.623512,9.267988403223464,0.045911382264914695
30.6281,9.008829097586736,0.045852329235734304
30.6327,8.73417917836033,0.045834034912458944
30.637288,8.453766098305604,0.04582944578824201
30.641887999999994,8.169100215440928,0.045809453852307065
30.646472,7.886477570899839,0.04577393095913971
30.651067999999995,7.605898164682337,0.04572236993812579
30.655663999999994,7.321721020674245,0.045663089118971635
30.660259999999997,7.033046704427912,0.04559458724135395
30.664848,6.743717323162224,0.045507437833908954
30.669444,6.458107864401272,0.04540002860268822
30.674024,6.170821721459172,0.04526594930058998
30.678611999999998,5.8799378407264795,0.04511752561060306
30.6832,5.584434603041402,0.04496629453957966
30.687796,5.289708615089826,0.04481803306218114
30.692384,4.997680930481193,0.04465120494962529
30.696976,4.709906048682508,0.044475255857409184
