Time,Force,Position
35.711,1.964744807843201,0.0662677368074197
35.715588,1.833936596606675,0.06375923983810347
35.72018799999999,1.7108125998079144,0.06120462222826789
35.72477599999999,1.5932073944091867,0.05861345328458271
35.72936,1.483941468467581,0.055963251610682094
35.73395599999999,1.3810937683736557,0.053283369256947294
35.738544000000005,1.285030848269848,0.05056027852983775
35.74314,1.193054404813215,0.04774668067426819
35.747727999999995,1.1105610446896423,0.044849367256610144
35.75231599999999,1.0349746492703333,0.041830273032127004
35.756919999999994,0.9678497180222924,0.03869729143223563
35.76150799999999,0.9057106978690732,0.03541516217042374
35.766116,0.8520331418871215,0.03196338527127676
35.770703999999995,0.8012982586764049,0.02839135035873067
35.77530399999999,0.7578810357610166,0.02473005533070432
35.7799,0.7075568481413653,0.021084612177243882
35.784488,0.6656941246929814,0.017188219305387085
35.78908,0.6284507581969825,0.013200490927068907
35.793676000000005,0.5986472367104576,0.009009618071755501
35.79826799999999,0.5774273641093463,0.004606430863373771
35.802859999999995,0.5626257173559155,0.0
35.80745999999999,0.5570627845072544,0.0
35.812048000000004,0.5540759702873914,0.0
35.816648,0.5539096441246176,0.0
35.821236,0.5548871218377831,0.0
35.825835999999995,0.5548429803891549,0.0
35.830423999999994,0.5499351125598505,0.0
35.83502,0.5504238514164332,0.0
35.839608,0.5462932333206308,0.0
35.844196,0.5448609185677723,0.0
35.848783999999995,0.5416297349196179,0.0
35.85338,0.5404417895950505,0.0
35.857968,0.5364333562133939,0.0
35.86256399999999,0.5303816845081503,0.0
35.867152000000004,0.5213873400316718,0.0
35.871731999999994,0.523264252192485,0.0
35.876328,0.5224428610103545,0.0
35.88092399999999,0.5198226009329286,0.0
35.88551199999999,0.5142596680842677,0.0
35.890100000000004,0.5007681513695499,0.0
35.894696,0.4855999504736821,0.0
35.899283999999994,0.4697766845584578,0.0
35.903876,0.45497503780502696,0.0
35.90845999999999,0.44197225994689193,0.0
35.913048,0.4315456007175547,0.0
35.917655999999994,0.4222627453641567,0.0
35.922252,0.4159225627819936,0.0
35.92684,0.40790569601868043,0.0
35.93143599999999,0.401687698150663,0.0
35.936024,0.3916275930637629,0.0
35.940628000000004,0.3824669224245105,0.0
35.945207999999994,0.3739613168046147,0.0
35.949804,0.37019725285124944,0.0
35.954392,0.3741174033356497,0.0
35.958991999999995,0.37726030408654776,0.0
35.963572,0.3770939779237739,0.0
35.968172,0.38064757426573725,0.0
35.972768,0.383179551445907,0.0
35.977360000000004,0.38775476694966377,0.0
35.981944,0.398337512710036,0.0
35.98653999999999,0.40458941239494284,0.0
35.99114,0.40585540098502765,0.0
35.995735999999994,0.4016025981750797,0.0
36.00032399999999,0.3959174806122731,0.0
36.00492,0.38957729803011,0.0
36.0095,0.3870792226668296,0.0
36.014088,0.3834373434276101,0.0
36.018676,0.37991764890253626,0.0
36.023268,0.37897407300626024,0.0
36.027863999999994,0.38342710379587136,0.0
36.032456,0.3911113182336369,0.0
36.037052,0.3979402396723827,0.0
36.04164,0.40366949868381746,0.0
36.046232,0.407521845534439,0.0
36.05082399999999,0.4165705710912843,0.0
36.055412,0.43249235953550375,0.0
36.060008,0.45365466813457517,0.006563796827590838
36.064596,0.4854541035743859,0.013065439321302
36.06918399999999,0.5242929280643442,0.019539818936187968
36.07378,0.5663290343855676,0.02619592382784646
36.078372,0.6212898752994087,0.032797286117112245
36.082964,0.687665092787491,0.03949418416733829
36.087544,0.7652103174215233,0.04627067179096005
36.09214,0.8459969653354489,0.05336781534785963
36.096720000000005,0.933256220177422,0.06064771992821685
36.101316,1.0266215278050057,0.06805216926126013
36.105908,1.1354537868371155,0.07536416768815878
36.110508,1.2561213576662704,0.08286841501610978
36.1151,1.3929550863679365,0.09029832283450089
36.119688,1.5410912465614368,0.09782263397026833
36.12428,1.7047826410567195,0.1053357685476211
36.12887599999999,1.8893817350910433,0.11275686672082498
36.133476,2.0912907908738174,0.1201732998538623
36.138072,2.308510711530082,0.12766320905157105
36.142664,2.5433291048117166,0.13513679712297186
36.147248000000005,2.787118180384679,0.14268392246643744
36.15183999999999,3.041877035123928,0.14365607699938912
36.156424,3.3058068001341683,0.14468905636024787
36.161016,3.582549354654619,0.14574175427886862
36.16560799999999,3.875702436475872,0.14660081476799205
36.170204,4.18489949145549,0.14747750211469376
36.174792,4.510384889021765,0.14824378427171128
36.179376000000005,4.849338141117606,0.148955273364449
36.183956,5.205845724390189,0.14936256053690936
36.188536,5.576099433437521,0.14956000422441165
36.193144,5.955435769858586,0.14962312992689422
36.197728,6.335593497461784,0.14977882322525707
36.202316,6.722325537443697,0.14965774991052033
36.206912,7.101651634233026,0.14961158583514111
36.2115,7.4794571333722395,0.14945023909671856
36.216104,7.844616169164016,0.14930550669550505
36.220692,8.19508550328477,0.14925330271866796
36.22528799999999,8.536994850705259,0.14915895955168704
36.229868,8.867313255756995,0.14896065636200964
36.23446799999999,9.176924189249355,0.1487944154143615
36.23905599999999,9.477231788124838,0.1484968678541385
36.243656,9.760962533536745,0.14820474181120682
36.24824,10.025784676284568,0.1479214299077773
36.25283999999999,10.263148469299786,0.14768298800319157
36.257424,10.475219335620134,0.14746197720678014
36.262012,10.653858223768143,0.1473115020172269
36.2666,10.804295414266937,0.14715426818300087
36.271192,10.93217188323069,0.146921806620431
36.27578,11.037365445945255,0.14662218399905855
36.280376,11.117388266679091,0.14633351497172947
36.284964,11.173716801633688,0.14607548371353668
36.28956,11.208316245867113,0.1458516287170299
36.29414799999999,11.22013107840068,0.1457379034045437
36.29874,11.218522197853309,0.14563126435147428
36.303336,11.203489604225,0.1455315761456448
36.307928,11.18292797956492,0.14540122978308728
36.31251999999999,11.157614573606569,0.14523712475713932
36.317108000000005,11.119787128646665,0.1451543180222796
36.321704,11.079217238895193,0.1450675011846671
36.326284,11.044121999095122,0.14490203016997352
36.330872,11.005306836790314,0.14477074849143226
36.33546799999999,10.967391108933153,0.14463165535460448
36.340056,10.936426487228884,0.1444410104943703
36.344644,10.918098089240312,0.14416992992907043
36.34924,10.907664373300909,0.1438658066347094
36.35382799999999,10.910932641687625,0.1434939098568992
36.358424,10.921773179429698,0.14312882429439497
36.36301999999999,10.936343879308248,0.1428112621266488
36.36762,10.957465229380364,0.14251572864629677
36.372204,10.98922370629322,0.1421943352153134
36.37680399999999,11.032596787759982,0.1418088804241192
36.381384,11.090282777123589,0.14133804202695796
36.385988,11.155330568231152,0.14082852847808527
36.39058,11.23313676776856,0.14024504377810088
36.39518,11.316139346012193,0.1396567573153052
36.399764000000005,11.401884369047398,0.1390772759307586
36.40436,11.488328598550584,0.13852938580418991
36.40894,11.586832030015632,0.13788204794746295
36.41353599999999,11.6856239723576,0.1372577215346911
36.41814,11.785070979718924,0.13665106793301202
36.422732,11.88505086738546,0.13605696928506872
36.427324,11.98515293976614,0.1354632095342069
36.43190799999999,12.082801078232167,0.13489071831904215
36.4365,12.177995282783545,0.13433878999615917
36.44108799999999,12.276376529534446,0.1337621965536979
36.445672,12.375124330427786,0.13318351844685714
36.450268,12.477303542948944,0.1325708815102677
36.45486,12.582014732650272,0.1319274427071352
36.459452,12.684638542579384,0.131289661888917
36.46404799999999,12.780799985212186,0.13068255144806043
36.468628,12.872830809749187,0.13010093754957164
36.47322,12.960198135885175,0.12954032764538806
36.477816,13.048665124448474,0.12895062927146064
36.482404,13.126050388763076,0.12842226205109591
36.48701199999999,13.205024054361576,0.12785134236653814
36.49159999999999,13.283420698206235,0.12725805202409968
36.49619199999999,13.362384124172998,0.12662795891798545
36.500784,13.430632380033499,0.12604414394066263
36.505376,13.497770733834953,0.12543098708577136
36.509972000000005,13.555748416997156,0.12485609537325042
36.514568,13.609018460309715,0.12426971179999169
36.51916,13.655659810163193,0.12368400680430361
36.52374,13.698492954614677,0.12308283896640693
36.52834,13.739316762559463,0.12245698296906211
36.532928,13.767626531502696,0.12187827320584878
36.537532,13.788652541967489,0.12129910226682886
36.542124,13.797941763164234,0.12076330140850977
36.54671999999999,13.803300594244837,0.12021422469354957
36.551312,13.802563612171568,0.1196698034208902
36.555908,13.797407501125578,0.11912257419908667
36.560504,13.7899976841446,0.11855375768421739
36.565096,13.77534825013381,0.11800048892862677
36.5697,13.751660330197916,0.11747156325467911
36.574296,13.724330531022801,0.11693708324790093
36.578884,13.687106952923559,0.11645246349330207
36.583476000000005,13.639090161452543,0.11602061371792007
36.588064,13.583345014095134,0.1156163626091737
36.592652,13.526944801718367,0.11520623030501563
36.59724,13.464248548208063,0.11482504088376912
36.601832,13.401019414392552,0.1144342856277005
36.606428,13.337790280577039,0.1140403685316337
36.611008,13.280735003180917,0.11361552378488639
36.615608,13.22012612944283,0.11322753992153586
36.62019599999999,13.15146648712454,0.11289875896068195
36.624792,13.088081266777994,0.11254387770225359
36.62938,13.025273068185289,0.11221498466968208
36.633968,12.967372737421888,0.11187217536111181
36.638564,12.904408452298144,0.11159054250847637
36.643148,12.845208231127767,0.11130737133588685
36.647752,12.79463580029143,0.11098920238507579
36.65234,12.742841522313636,0.11070712996742642
36.65692799999999,12.696610177184505,0.11041560218019891
36.661532,12.65610809106681,0.11013368878804382
36.666124,12.62272343726478,0.10984209799642983
36.67072399999999,12.595678966044911,0.10954175293952016
36.675304,12.581515087969033,0.1091951557964177
36.6799,12.576267511104115,0.10883168284920762
36.684488,12.573151455460039,0.10849659147216731
36.689092,12.576009028255692,0.10816533670239696
36.693684000000005,12.58369642561513,0.10785022799814235
36.698284,12.598379070576089,0.10753322551082439
36.70287999999999,12.615559790900326,0.10723645398320976
36.707464,12.642267736006255,0.10690696677508786
36.712056,12.680956839808523,0.1065393069997777
36.716652,12.723043453421722,0.10618798629140105
36.72125199999999,12.770937369311872,0.1058256851994607
36.725848,12.82476077219312,0.1054503974572204
36.73044,12.88884450814093,0.10502208430684433
36.73504,12.957058862184544,0.10458942278663746
36.73962,13.024417923229137,0.10418881351868219
36.744216,13.101915132626148,0.10374420352940035
36.748808,13.183909514261398,0.10328711006389311
36.7534,13.26974600311553,0.10281221299047635
36.757992,13.359424599188547,0.10232212990196347
36.762584,13.451024248871004,0.10182664196685334
36.76718,13.542990452695898,0.10132869070225964
36.77176,13.633157787625498,0.10084277981939437
36.776352,13.727778153344708,0.10032189277312623
36.78094,13.827506614872885,0.09977304491102051
36.785532,13.930255792437816,0.09918793328310907
36.79014,14.026176048564,0.09862313336216622
36.79472799999999,14.118210056022676,0.09806247035524478
36.799324,14.207135064547339,0.097508328502075
36.803916,14.296015931623375,0.09694200206904958
36.808504,14.385097026679075,0.09635462270684635
36.813092,14.472457296104997,0.0957561332711177
36.817684,14.554132447968112,0.09516767524983115
36.82227999999999,14.630777547287774,0.09459333576716407
36.826868000000005,14.701204648739422,0.09401966847517397
36.83147199999999,14.76541375232305,0.0934448929439274
36.836052,14.8164978933344,0.09290691051299024
36.840648,14.858054809564061,0.09239248012438361
36.845236,14.891472674316264,0.09188472834639806
36.849836,14.915607683715065,0.09139288848320917
36.854432,14.931481456922263,0.09090923216632953
36.859028,14.939871243671362,0.09043493828672429
36.863608,14.94318683642838,0.08994680818967085
36.86820399999999,14.939917877174942,0.08946411146411884
36.872792,14.926955366977044,0.08898425252995582
36.877388,14.902422393673865,0.08853264347979851
36.881976,14.875391345007408,0.08805998086079836
36.88656399999999,14.844596232387588,0.08757882186943984
36.89115199999999,14.803252275824283,0.08711828329577229
36.895732,14.748905541402845,0.08667908613838939
36.900328,14.68376559360963,0.0862660863981211
36.90492,14.607832432444642,0.08587849545611029
36.909516,14.528790272345645,0.08548391841169814
36.914104,14.443041375522048,0.08509118643176858
36.91870399999999,14.357536848126742,0.0846877710018171
36.923292,14.271255070997935,0.08427928110180241
36.927888,14.183418794402122,0.08386416387978574
36.93248,14.094683083358664,0.08344726661554197
36.93706,14.005947372315203,0.08302567488513711
36.941664,13.917744541576957,0.08260767979986329
36.946252,13.8339166983628,0.08217768693859472
36.950856,13.750621735453857,0.08175136325411753
36.955452,13.671090836498276,0.08133019071537814
36.96003999999999,13.59593492506679,0.08089802527943912
36.964636,13.521600404817432,0.08048409029316267
36.969228,13.457281848206346,0.080040141222324
36.97382,13.399303474177422,0.07960014473378516
36.97841199999999,13.344844794673575,0.07917404214766798
36.983004,13.29979115523727,0.0787360095425573
36.98759199999999,13.267495924230808,0.07828580222700113
36.99219599999999,13.246526786901333,0.07781817860392964
36.99678399999999,13.236761558534697,0.07733640263399516
37.00138799999999,13.230271655264845,0.07687722454178883
37.005972,13.234374737387101,0.07642281960271956
37.01056799999999,13.242530394339642,0.0759945739042587
37.01516,13.259846721931439,0.07556705892041311
37.019756,13.287100969895986,0.07514068858538751
37.02436,13.324781877089872,0.07470393900254657
37.028952,13.373422323818305,0.07426685502303784
37.033536,13.432611614490222,0.07381871616916594
37.038124,13.496464403563152,0.0733837160134388
37.042712,13.568944982970123,0.0729457062786032
37.04729999999999,13.645433995758752,0.07251647284261703
37.051884,13.721722780567719,0.0721183659961949
37.05647999999999,13.806106475405516,0.07170959733173328
37.061076,13.895153668644324,0.071317650406015
37.065668,13.984978111616638,0.07093173119019246
37.070264,14.083386203474365,0.07052585435279979
37.074848,14.186413652284475,0.07011495778148423
37.079444,14.286498428323352,0.06971964045162098
37.08403199999999,14.387482638809875,0.06932904867111703
37.08861999999999,14.49230895651528,0.06893336734714803
37.093228,14.600322316420213,0.06852457597256897
37.097816,14.70678117685814,0.06811707204486943
37.102428,14.813073711133297,0.06769634465110856
37.10701999999999,14.917034496207945,0.06727608752524107
37.111608,15.022505639300968,0.0668454373408828
37.116196,15.12474559874584,0.06641635990009521
37.120788000000005,15.221300440627902,0.06598633915378235
37.125384,15.309227492175923,0.06556305504943834
37.129964,15.393634849198872,0.06512609223492026
37.134564,15.469292231173633,0.06469699583881956
37.139144,15.538487245852084,0.06426117377391673
37.143748,15.606083619614903,0.06380448762194703
37.148340000000005,15.662764595291803,0.06336367493026625
37.15294,15.708241662005863,0.06292578793881647
37.157532,15.749588110624119,0.062485594628378036
37.162128,15.774378185042279,0.06207070345818514
37.166724,15.788741600231102,0.06165836737937871
37.171316,15.796520463409472,0.06123806816841931
37.17590799999999,15.792851048196708,0.06082212840562186
37.180504,15.778754973754609,0.06040757743836414
37.185104,15.757829977873762,0.05998995350850502
37.1897,15.729420995534813,0.05956371357105252
37.19427999999999,15.692139853433535,0.05913964055685622
37.198864,15.642144444351038,0.05872515019792852
37.203456,15.580212018020829,0.058322913774011075
37.20804,15.50904087778585,0.05792992025003244
37.212636,15.427609404484306,0.057548459795638426
37.217232,15.341680758944522,0.057166065807005596
37.221828,15.245902475929242,0.0568050998242286
37.22640799999999,15.146159900980933,0.056451325788573745
37.231004,15.04257521881374,0.05610091455466253
37.235596,14.93310519110408,0.05576074307743664
37.240184,14.826700020879796,0.05540652520634301
37.244784,14.719151046779576,0.055054021044413703
37.249372,14.607759965460474,0.05470496231714693
37.25398,14.501232610522045,0.05434016071438271
37.25856399999999,14.397936439231772,0.05397834777391458
37.26315199999999,14.296849832427863,0.05362298927827112
37.26775599999999,14.198094974824457,0.05327065020655325
37.272344,14.098607008936177,0.052931776677035525
37.276948,14.00132860753426,0.052600136338207676
37.281544,13.905115966742764,0.052281594124595474
37.28614,13.813811193780573,0.051969630091398114
37.290728,13.729335342257125,0.05166075114711644
37.29532,13.650133912705423,0.0513499978529496
37.29991199999999,13.574163666801873,0.05104400823617908
37.304508,13.505022342337066,0.050742160756375054
37.3091,13.436946778482685,0.050455020155234405
37.3137,13.373001832724105,0.050173022471000805
37.318288,13.30803526780373,0.04989074803899424
37.32288799999999,13.24401227877963,0.04962736078168862
37.32748,13.1811772350801,0.04937674252590692
37.332076,13.11491077975275,0.04914301311678185
37.33667199999999,13.048155585568818,0.04891924677802598
37.341272,12.981688902261807,0.04870902938855579
37.34586399999999,12.912690241774625,0.04851572006392804
37.350464,12.836784616583179,0.048336732421735286
37.355048,12.751928788363887,0.048179152883921446
37.359636,12.660821060459686,0.04804309222670668
37.36422399999999,12.563583617584722,0.04792579366532434
37.368824,12.458539775557849,0.04782368045166931
37.37341599999999,12.347488403274356,0.04773725691785923
37.378,12.225277263476656,0.04765896353655952
37.382588,12.093827409774185,0.047585448675114266
37.387168,11.950729049700922,0.04753517842057831
37.391764,11.797370356561093,0.047493725278440056
37.396356,11.632074646173551,0.04745685613472239
37.400944,11.45754022188124,0.04742553375776587
37.40554,11.2756881372936,0.04739666153569456
37.410124,11.090893379934725,0.04737235702138977
37.414712,10.900046950870607,0.047337718520565994
