Time,Force,Position
29.134088,0.08177468438529904,0.0
29.13868,0.07241378576638352,0.0
29.143268,0.06652844022391372,0.0
29.14786400000001,0.06251497217205759,0.0
29.152455999999997,0.05465939690131872,0.0
29.157052,0.04950212497352341,0.0
29.16164,0.04818696026461084,0.0
29.166239999999995,0.045727991679759085,0.0
29.17082,0.044290642256700846,0.0
29.175424,0.04015498949069906,0.0
29.180016,0.035897152010551596,0.0
29.184608000000004,0.029718260920962768,0.0
29.189204,0.021862685650223902,0.0
29.193796,0.017071967864865603,0.0
29.198384,0.012403434793652976,0.0
29.202980000000004,0.0086343361700882,0.0
29.207568,0.006664106441819124,0.0
29.212163999999994,0.0036722575517565276,0.0
29.216752000000007,0.0009247780899852753,0.0
29.221340000000005,9.835223765539676e-05,0.0
29.225928000000003,9.835223765539676e-05,0.0
29.23052000000001,4.917611882769838e-05,0.0
29.235116,0.0,0.0
29.239708,0.0,0.0
29.244296,0.0,0.0
29.248884,0.0,0.0
29.253480000000003,0.0,0.0
29.258064,0.0,0.0
29.262656,0.0,0.0
29.267252000000006,0.0,0.0
29.271832,0.0024589685848517583,0.0
29.276432000000007,0.005817371617351368,0.0
29.281023999999995,0.01150752385035752,0.0
29.285611999999997,0.02042885973151806,0.0
29.290208,0.027717652880156717,0.0
29.2948,0.037093825801010574,0.0
29.299392000000005,0.04921244351343707,0.0
29.303976,0.06587237491273099,0.0
29.308575999999995,0.08490819696115957,0.0
29.313156,0.10877384357337508,0.0
29.31776,0.13681424973002096,0.0
29.322352,0.1689072307169516,0.0
29.326947999999994,0.2048084171058756,0.0
29.331532000000003,0.2434961897349995,0.0
29.336127999999995,0.28586998305197103,0.00815049763097833
29.340715999999997,0.3307859931808511,0.016721015086035337
29.345308,0.3825750661971051,0.02487662874543719
29.3499,0.43894959434885467,0.03308376739390301
29.354492,0.5009311967978932,0.041204458401133896
29.35908,0.566476635220634,0.04949301938759934
29.363663999999996,0.6351701793558121,0.05769985867221592
29.368255999999995,0.707061005322255,0.0660911524290233
29.37285600000001,0.7826378519765458,0.07447654019174668
29.377447999999998,0.8585914924050124,0.08314995290222679
29.382036000000006,0.9469811285695139,0.09159614511255915
29.386632,1.0451525985757348,0.09991985672167018
29.391212000000003,1.149508164633083,0.1083285783194403
29.395804000000005,1.2610694459033525,0.1166600855237986
29.400395999999997,1.3820018654242765,0.12492733898497145
29.404976,1.51189472760479,0.13303580636363357
29.409572000000004,1.648504566141642,0.14122420303264047
29.414160000000003,1.794285314949485,0.1494410992688327
29.418748,1.9527905703702828,0.15752927130802932
29.423336,2.122998713242241,0.1655835195596412
29.427928,2.301722701365834,0.16555381826053636
29.432532,2.4961580103222443,0.1650349994273352
29.43712,2.7035282935030107,0.16485438058191818
29.441716000000007,2.9252217242123644,0.16457424861962996
29.446296,3.1608717483078683,0.164340676524191
29.450895999999997,3.410356181075376,0.16396168088962193
29.45548,3.6738413486776618,0.16367300339420587
29.46008,3.951938174685454,0.1632215844574694
29.464672,4.241459616899226,0.1628315194125763
29.469268000000007,4.5503342591850355,0.162119434959286
29.473852,4.870467191514051,0.16161628904202158
29.478444000000003,5.1990718276460735,0.16120260363885386
29.483044,5.538313590618834,0.1606785861954734
29.487632,5.88496129678418,0.16019564033593614
29.492224,6.2357837624939565,0.15976647266871544
29.496812,6.588204869119367,0.1594795851274353
29.501404,6.943813017944303,0.15909476087608662
29.505992,7.3008873833389885,0.15863866386215536
29.510572000000003,7.651132827294927,0.15833488749596378
29.515156,7.997858576725792,0.15806418230466335
29.519752000000004,8.347683085458929,0.15766327513667733
29.52434,8.687070695330988,0.1573210791367977
29.528932000000005,9.009969734636728,0.15708642940311945
29.533520000000003,9.317279637823797,0.1569302604626834
29.538099999999996,9.611532382072362,0.15680089673679498
29.542708,9.896403748438534,0.15660538520282435
29.547296,10.165675739054299,0.15637986164745382
29.551904,10.419959277490381,0.15609677315680812
29.556496000000003,10.662030710355241,0.1556928758625975
29.561096,10.876844021467155,0.15532868301682476
29.565688,11.0677084377398,0.1549506436312038
29.570283999999997,11.23417936176522,0.1546021612829846
29.574876,11.379199466314647,0.1542464430072172
29.579456,11.49704973200839,0.1539680042079481
29.584052000000007,11.596113579752194,0.15370386489613722
29.588640000000005,11.675902270689477,0.15347269358154716
29.593236,11.740790792344335,0.15323820276120453
29.597816,11.790290405860183,0.15302044081937158
29.602416,11.82812103374176,0.15277487852000735
29.607000000000006,11.856858794617864,0.15248500751391775
29.611591999999995,11.868330735194148,0.15225441928524588
29.616180000000007,11.871575341395712,0.15202342482448514
29.620776,11.872888654356101,0.15173515033843835
29.625376,11.873047923808807,0.15138697301539622
29.629972,11.867966673106668,0.15103034010194913
29.634548,11.85319187146006,0.15072816512970938
29.639136,11.835552440307735,0.15043048594488867
29.643719999999995,11.814070901936528,0.1501732707480436
29.648320000000005,11.78723689832806,0.1499860304637873
29.652908000000004,11.770995880111704,0.14973987848484918
29.657508,11.757174893993113,0.14953199484806573
29.662104000000006,11.75165928551475,0.14929927144272168
29.666684,11.751384197191243,0.1490785460519886
29.671276,11.766321451212233,0.1487585522903768
29.675856000000003,11.788376137548887,0.1484078600163718
29.680444,11.821145993991799,0.14799760945704002
29.685039999999997,11.860788913322084,0.14756907599885025
29.68962,11.905017287787864,0.14715392224287716
29.694216000000004,11.957262529016955,0.14670448113872503
29.698812,12.012905280056977,0.14626481724899262
29.703399999999995,12.07656489786031,0.14579240002110974
29.708008,12.146686882959957,0.145294340155079
29.7126,12.22237180090826,0.1447807489195296
29.717195999999998,12.30308677140001,0.14424754233951528
29.721784000000007,12.388587425006923,0.1437016801857346
29.726384000000003,12.481039184766729,0.14311346216494303
29.730972,12.578398812355838,0.14250911914126296
29.735572,12.68434208883036,0.1418374007874772
29.740164,12.796703591152562,0.1411220437803862
29.744768,12.906366790131823,0.1404379029755449
29.749360000000003,13.02089371549176,0.13971506339344886
29.753952000000005,13.137053183584216,0.13897384345045283
29.758548,13.25280195608561,0.13823012959134703
29.763144000000004,13.362499056881758,0.13753207047623975
29.76774,13.474073069838717,0.13680834226410638
29.772336000000003,13.577508031318217,0.13612355671697818
29.776931999999995,13.674480625501415,0.13546911282149848
29.78153200000001,13.768177894587824,0.13480939049474142
29.786123999999997,13.855534981092072,0.13417529290490912
29.790712000000006,13.93732913474766,0.1335637026162234
29.795300000000005,14.012005856087582,0.13297779231611773
29.799888000000003,14.080464579559484,0.13241182059761455
29.804476,14.142050240144018,0.1318641487941076
29.809071999999997,14.194597414803441,0.1313553554037519
29.81366000000001,14.24231476489908,0.13084493134357145
29.818248000000004,14.285979540164433,0.13033040356249886
29.822844,14.322116187523056,0.12982786328770327
29.827424,14.345127872309396,0.1293958876875821
29.832016000000003,14.357546571703626,0.12899999358004485
29.836611999999995,14.36681213071522,0.12859128212512363
29.841199999999997,14.370348430715378,0.12818160739117154
29.845808,14.365501309809783,0.12780551636568005
29.850396,14.357012309664974,0.12742963014526393
29.855008000000005,14.34500361499509,0.12704931326703528
29.859599999999997,14.321668826648216,0.12672263687412857
29.86418800000001,14.298944961872074,0.1263769561326358
29.868776000000004,14.278098009256745,0.12599686563807944
29.873368000000006,14.255408046297495,0.1256053506491523
29.877964,14.232551757175465,0.1251961690514197
29.882544000000003,14.207485903567079,0.12478590502545298
29.887144,14.183153158243563,0.12435275635349413
29.89172,14.156733033147836,0.12391462228573318
29.89632,14.126959539689805,0.12348682242810663
29.900912,14.098452034821861,0.12304182917675797
29.905508000000005,14.062382500230298,0.12264402401548961
29.910100000000007,14.023492477581645,0.1222626290476867
29.914696,13.984480270218846,0.12188290793985009
29.91929200000001,13.951475593112663,0.12145471830839892
29.923888,13.923090272958861,0.12099716370767663
29.928484000000005,13.894582768090919,0.12054213434957806
29.933084,13.865708709080536,0.12009649925474773
29.937676000000003,13.838511334251308,0.11964346037401148
29.94226800000001,13.810414524974432,0.11919345673777254
29.946856000000004,13.78746995295515,0.11872223730735758
29.951452,13.771843041231195,0.11820911478646925
29.956039999999994,13.76095767117377,0.11766657251535463
29.960632,13.747662508650324,0.11715080422580484
29.965224,13.734655857003796,0.11664745307631069
29.969816,13.727945246490803,0.11611461674686809
29.974408000000004,13.725731808216048,0.11555965399511164
29.978996,13.723684696104067,0.11502167225852493
29.983588000000005,13.72768925569733,0.11446154128574623
29.988176000000003,13.73774548699584,0.11387890647385021
29.992768000000005,13.752298890532586,0.1132773372652056
29.997364,13.775069388812307,0.11263291765793206
30.001952,13.80041600572083,0.11198012138020762
30.006539999999998,13.828338741258149,0.11131911537316416
30.011132,13.854096053757734,0.11067842774593888
30.015724,13.878587377667236,0.1100530981915559
30.020328,13.902589962720153,0.10944293953208298
30.02492,13.927247612792426,0.10883635240870754
30.02952800000001,13.953826316474144,0.10821934715770051
30.034124,13.982081704337011,0.10759820031554322
30.038728,14.006861539123433,0.10699122867762231
30.043316,14.032418623643357,0.10638753706913272
30.047908,14.052090362620811,0.10582265126919004
30.052488000000004,14.075726393531292,0.10523401768651965
30.057088,14.103981781394161,0.10462553385203409
30.061680000000003,14.122754085923965,0.104069608095329
30.066275999999995,14.140626956006122,0.10351937771365571
30.070872,14.15964362996422,0.10295956050623839
30.075464000000004,14.172119893360488,0.10243241005665958
30.080052,14.180876234252024,0.1019237650333345
30.084647999999994,14.181948360705789,0.10145679050712152
30.089248000000005,14.180322183816612,0.10100043138512678
30.093836000000003,14.178696006927437,0.10054464031369129
30.098424,14.176048210876464,0.1000958430402336
30.103019999999997,14.175976533454294,0.0996407464482105
30.107612,14.180646397698654,0.09916346389844134
30.112199999999994,14.182740143314213,0.09869164863022946
30.116788000000007,14.18495607364392,0.09821651571587618
30.121384,14.184229331202394,0.09775757452598258
30.12598000000001,14.185423642370305,0.09728958605432161
30.130568000000004,14.186251399395783,0.09683119683006286
30.135168,14.180294376431142,0.09640781359029617
30.139756,14.174337353466502,0.0959832024346723
30.144348,14.160573931349948,0.09559946211613586
30.148936,14.139492848938065,0.09524305370192994
30.153524,14.120987885154983,0.09487937801078197
30.158132,14.097741379705372,0.0945364313002015
30.162724000000004,14.074617058969903,0.09418964892866112
30.167312000000003,14.056112095186823,0.09382379780915714
30.171904000000005,14.039650369727324,0.09344473790590549
30.176492000000003,14.028951805096154,0.09303716792030345
30.181087999999995,14.021195913236218,0.09261418806675474
30.18568,14.008576294995605,0.09221456308990728
30.190272,13.995423796449778,0.0918070135843386
30.194864000000003,13.97867356011336,0.09141022375300187
30.199456000000005,13.958081216558062,0.09103149384637722
30.204044000000003,13.943129849116941,0.09062909068734712
30.208648000000004,13.928955731409324,0.09022711053984497
30.21324000000001,13.919278785939948,0.08981163588593179
30.21784,13.910379090204072,0.08939784352549611
30.222424,13.902501013629989,0.0889775904022974
30.227011999999995,13.90128553233188,0.08852886477971744
30.231599999999997,13.906488276881449,0.08805992993578075
30.236196,13.921174104764077,0.08755278643222077
30.2408,13.94227815849439,0.08702504582692562
30.245388,13.96812375389123,0.08648013212359205
30.249976,14.003863128212199,0.0859104404788361
30.254560000000005,14.043078055609614,0.08533843493808184
30.259139999999995,14.08000537525515,0.08478587099563137
30.263736,14.117343390491747,0.08424627567313603
30.268328000000004,14.155336470747702,0.08371418802926485
30.272924,14.194761865756517,0.08319112463468678
30.277511999999994,14.243670344098392,0.08263511655410789
30.282092,14.296342886393633,0.08209014314009772
30.28668,14.35441203537476,0.08153463640446898
30.291272,14.417100541308276,0.08096936649340129
30.295852000000004,14.481343546708795,0.08041192189169317
30.300448,14.547629790432898,0.0798479887383321
30.30504,14.61031829636641,0.07929465876897074
30.309628,14.67288461758578,0.07874886663606055
30.314215999999995,14.740070295757533,0.0781943662406867
30.318808,14.80827759309108,0.0776402183733543
30.323404000000004,14.874808206243475,0.07709233452557142
30.327988,14.937374527462843,0.07656509429152361
30.332587999999998,14.998797044806274,0.07604925465223422
30.337176000000007,15.058298508540261,0.07554385886351193
30.341772,15.113547169464303,0.07504582475092013
30.34636,15.162011050398226,0.07457328676146478
30.350959999999997,15.21570521185526,0.07407776957612729
30.355552,15.272830784940114,0.07356384675350375
30.360139999999998,15.326358620234377,0.07305815628236731
30.364732,15.379109205795139,0.07255491897374414
30.369328000000003,15.42699606497522,0.07207155641418149
30.373928,15.474838782706678,0.0715727789725373
30.37852400000001,15.52088263154284,0.07107990572276356
30.383115999999998,15.564350361750202,0.07059191538956092
30.387708,15.605364158042912,0.07010558595197136
30.392295999999995,15.645111965745539,0.06963172861266301
30.396892,15.689479130400546,0.06915075628351093
30.40148,15.7331912300362,0.0686681427047064
30.40607600000001,15.775226645490703,0.0681888788980215
30.410667999999998,15.814563757602263,0.0677159521626708
30.41526,15.853778684999677,0.06724879429762569
30.419856000000003,15.895159035434824,0.06677329293814382
30.424444,15.940870231945437,0.06628076367648349
30.429044,15.987847417046135,0.06578186082929594
30.43362800000001,16.030860310213804,0.0652963207239396
30.438224,16.077182430295146,0.06479467318392916
30.442812,16.118885193424102,0.06430360156673305
30.447399999999995,16.154824795724732,0.06382876328494778
30.452003999999995,16.197549178015482,0.06333956311597712
30.456596,16.233733149744406,0.06286239036852154
30.461184,16.275147401996442,0.06236810127113539
30.465768000000004,16.3134967967631,0.06188653992324523
30.470360000000007,16.352334930386338,0.06139663555182253
30.474956,16.384510468733605,0.06092000720521377
30.479536000000003,16.414887138185573,0.06044639511007725
30.484131999999995,16.441011004827597,0.05997127677075873
30.488719999999997,16.461738264783733,0.059501403028575865
30.493323999999998,16.4758029294639,0.05904371639440826
30.497912000000007,16.48434880274403,0.0585928496974708
30.502508,16.48868601466284,0.05815727530224389
30.507091999999997,16.485050501266965,0.05772367862146692
30.511688,16.47397514286162,0.0572992711391163
30.51628400000001,16.45317233169492,0.05689622153848803
30.52088,16.42366368692866,0.05650977979364414
30.525484,16.394643781018985,0.05611117903992569
30.530076,16.36304775648051,0.05571030385891775
30.534664,16.325566386399565,0.055320622539049714
30.53926000000001,16.28219967077615,0.05494163634111694
30.543848000000004,16.223586710991352,0.05458579878452037
30.548436,16.165995370368346,0.054224298395252696
30.553024,16.093935035317458,0.053887492800750225
30.557616000000003,16.015212104990596,0.05355827828464668
30.562211999999995,15.928682775511824,0.053242146549044564
30.566804,15.844074499642492,0.052919470318719075
30.571396,15.74973877101181,0.05261239115195285
30.575979999999998,15.651316565733953,0.05231367017351823
30.580572,15.548807883808921,0.05202353589944439
30.585159999999995,15.443234344398507,0.05173865264121692
30.589752,15.333452143626774,0.051464884335537184
30.594356,15.21815115145501,0.05119185943096716
30.598944,15.100851062408285,0.0509405443279794
30.603548,14.982162800057328,0.05069701096287824
30.608135999999995,14.857467007449758,0.05046531158402983
30.612723999999996,14.727785303747368,0.050242308606949636
30.61732,14.59148514621763,0.050045622071151055
30.621912,14.447667100412904,0.04987541049833277
30.626507999999998,14.301683631570441,0.049710921879596345
30.631096000000007,14.155333608585545,0.049552526262934465
30.635696000000003,14.012092584534658,0.04940299802357276
30.640284,13.863621279960654,0.049268893584308866
30.644884,13.712862367634774,0.049144472939516536
30.649476,13.559571478128722,0.049036516386831534
30.65408,13.402849176994856,0.048944786247608084
30.658672000000003,13.238853357014285,0.04887640098110925
30.663267999999995,13.072447744567697,0.04882330262066742
30.66786,12.905675577978666,0.04877762407059692
30.672456000000004,12.736982357780196,0.04873205903639037
30.677052,12.567922583439287,0.04869489675518289
30.681648000000003,12.396819570774793,0.0486625419533607
30.686236,12.226493807843802,0.048630916810549145
30.690831999999997,12.050404884084486,0.048611385018657985
30.695424,11.868430614782701,0.04860542818304021
30.700016,11.684535291871473,0.04860280417754678
30.704608,11.50141721869375,0.04860344132428784
30.709191999999994,11.316744646049022,0.048595535583895406
30.713780000000007,11.130395389223143,0.048583257347936185
30.718376,10.941225644340173,0.04857300697025545
30.72297200000001,10.747558727218967,0.04856150113023487
30.727563999999997,10.549394637859523,0.04855012712991839
30.73216,10.347632810709483,0.048537224736722825
30.736748,10.147014787435383,0.04851391213811753
30.741332000000007,9.945741699141928,0.0484815239280298
30.745928,9.741648122791382,0.04845401097425378
30.750516,9.53497842781204,0.048422458899592805
30.75512,9.332517394194017,0.048365745219387725
30.759708,9.122372146138229,0.048329474112657735
30.7643,8.906996617559326,0.04832263866190996
30.768896000000005,8.687246101456333,0.04830978270464486
30.773484000000003,8.464552912582104,0.04830760084404817
30.77808,8.236096562879547,0.0483209551655365
30.782672,8.011071624804812,0.04830115326358706
30.787264,7.788212109767807,0.04826198225717386
30.791856000000003,7.568173082787892,0.04821416912405863
30.796448000000005,7.3511989132933575,0.04814169416186104
30.801036000000003,7.13013826715165,0.0480919696589686
30.805632,6.908955436295795,0.04804516376968585
30.810228,6.689693659049382,0.04798357412853426
30.814816,6.471986381269973,0.047933757142810354
30.819412000000007,6.2524802345952715,0.04788152273395636
30.824003999999995,6.034528587387571,0.04784252481361129
30.828596,5.816987635770939,0.047834146806860364
30.833188,5.599202314726012,0.04784221176018528
30.837788,5.385014731471677,0.04785733430156341
30.842384000000003,5.17622375490323,0.04787313904397788
30.846972,4.967843473925848,0.047920130644191164
30.85156,4.768291211262171,0.0479098333733648
30.856148,4.571803806083875,0.04788035881190918
