Time,Force,Position
29.8459,1.3424903144923876,0.030042395974585218
29.850484,1.2041878771660204,0.027800554006000275
29.855088,1.0835856179156909,0.025529387998023415
29.859676,0.9692793997988962,0.023282724287127177
29.864272,0.8644562650151625,0.020997431918513065
29.86886,0.7689940288503447,0.018703054224522717
29.873452,0.6781511496379118,0.01639508554674786
29.87804,0.5916832579495723,0.014072853572857733
29.882632,0.5152313298995052,0.011733083108895755
29.887228,0.451615853544799,0.009370754641348365
29.891808,0.39339698387598004,0.007012555302951343
29.896404,0.3403303514647568,0.004694917094347762
29.900992,0.2966246176724491,0.002387227579743492
29.90558,0.259337109727822,0.0
29.910176,0.22936726207852337,0.0
29.914764,0.20671507472455325,0.0
29.919352,0.1904811132182638,0.0
29.923948000000003,0.17567946646483298,0.0
29.928536,0.1617772541590501,0.0
29.93314,0.15032897576791934,0.0
29.937732,0.14529892322446925,0.0
29.942328,0.13385064483333847,0.0
29.94692,0.11945029148483118,0.0
29.95152,0.1067266223174739,0.0
29.956112,0.0965790717789145,0.0
29.960712,0.08708658625971159,0.0
29.965288,0.08029240408345227,0.0
29.969888,0.07823976357372353,0.0
29.97448,0.07528768861634694,0.0
29.979076,0.06771625670658542,0.0
29.983668,0.06261840052935752,0.0
29.988264,0.06193967332485136,0.0
29.992852,0.05558606818927738,0.0
29.997448,0.05340722259813379,0.0
30.00204,0.05707982073257063,0.0
30.006632,0.06762548175438142,0.0
30.011224,0.08467765152112913,0.0
30.015808,0.11154555694648569,0.0
30.020388,0.1449199711167792,0.0
30.024984,0.18623320878486832,0.008645706125828248
30.029580000000003,0.23283110805643767,0.01736733449881511
30.034168,0.29309708983723737,0.02614676401781453
30.03876,0.3656523830091786,0.03476939728359051
30.043352,0.45445187731914816,0.04293705188193106
30.047944,0.551733315063863,0.05148382881730356
30.052532,0.6612166187480601,0.06011010521644341
30.05712,0.7867438955906223,0.06857404455171381
30.061716,0.9250059186778775,0.0771302839788532
30.0663,1.0806220449622108,0.08556475571294539
30.070888,1.2514268514058895,0.09401393554581881
30.075484000000003,1.436990000599967,0.10244499054803455
30.080072,1.637164808199551,0.11079505524641288
30.084668,1.8575922503188202,0.11911527055110487
30.089260000000003,2.0929198617205147,0.1274348328424921
30.093852,2.336895742719728,0.1358616639295598
30.098436,2.5943836196971377,0.14425275845427543
30.103036000000003,2.8619079395762963,0.1526774710679311
30.107624,3.144865309043092,0.16103673932019302
30.112224,3.443866651668252,0.16932986940474662
30.116816,3.756291707374351,0.16893968942932847
30.121412,4.082951627711781,0.16835919836274657
30.126004,4.419305098993674,0.16765008915340848
30.1306,4.758767569209576,0.16706882401261214
30.1352,5.0992958000359,0.16688566861107998
30.139796,5.450040222480158,0.1662351005661816
30.144392,5.805848599284758,0.1654269946218368
30.148988000000003,6.158259466278429,0.1647648272899518
30.153568,6.513114027555015,0.16394167981469304
30.158152,6.861295753923889,0.16322275984070686
30.16274,7.20599168758458,0.1624577569543526
30.167340000000003,7.545158590213498,0.16169888945026067
30.171928,7.875809647590782,0.16099785517390425
30.176524,8.198922337429599,0.16027925971349868
30.181116000000003,8.517517375766696,0.15946146796755317
30.185704,8.827952883362855,0.15849221660457907
30.190304,9.122544645780314,0.15754411346245212
30.194892000000003,9.407055823847395,0.15651518180726584
30.199484,9.671226084497537,0.1555610802555345
30.204072,9.918408796093036,0.15465465726612831
30.20866,10.15183514228205,0.1537600949875809
30.213256,10.367340603151883,0.15298325545317457
30.217844,10.570033274511506,0.15223858495985557
30.222436,10.761345471113778,0.15150401098759633
30.227028,10.934736782396872,0.1508486429799176
30.23162,11.095848184474967,0.15022618315584838
30.236216,11.243047134615539,0.14966190712670915
30.240808,11.383118412808706,0.1490672894626135
30.2454,11.511608988264861,0.1485135235047257
30.24998,11.633382587364673,0.14793696784539667
30.254572000000003,11.744841472317557,0.14736793916890709
30.259164,11.844064589514067,0.14681845313890982
30.26376,11.935304741764156,0.14626401680489007
30.268352,12.019872059106532,0.14571145202784438
30.272948,12.088039088779846,0.14525995387058863
30.277536,12.148800175260574,0.14482959536049222
30.282132,12.203421307138802,0.14439552673075617
30.286720000000003,12.247283127462143,0.14399929140742007
30.291316,12.291667588458958,0.14353599462191477
30.295904,12.329667725424983,0.14307681672081288
30.300488,12.363448961397948,0.142596716617782
30.30508,12.388758493567906,0.14211621163827354
30.309676000000003,12.402942160040542,0.14168163729293476
30.314264,12.408942633587095,0.14126234702734597
30.318848000000003,12.415221378378824,0.14078193110040574
30.32344,12.410007703330797,0.14035962787968942
30.328032,12.399064769271334,0.1399399720269473
30.332624000000003,12.37830609955326,0.13956742678703918
30.337216,12.352595420557257,0.13919415562103574
30.341804,12.320544558979089,0.13884359265227042
30.346412,12.28460744873341,0.13850355915360982
30.351004000000003,12.254144988439137,0.13809407744016744
30.355596,12.216853606706115,0.13772323498735028
30.360188,12.168646826887176,0.13743560390983728
30.364784,12.12133948151588,0.13713987815413234
30.36938,12.073132701696942,0.13684898114299218
30.373968,12.024192813593126,0.13658303849759254
30.378564,11.97721812054738,0.13632180945199954
30.383144,11.924524408121938,0.136136394403938
30.38774,11.871219772125768,0.13597214026700635
30.39232,11.813095551197552,0.1358776667679079
30.39692,11.763110381746792,0.13574558018667646
30.401512,11.71742215655461,0.1356131056291976
30.406112,11.678729178963946,0.13545898699329637
30.410696,11.637548365641742,0.1353688726446318
30.415288,11.604262234368704,0.13525081205017353
30.41988,11.5733519937448,0.1351499587284903
30.424468,11.545594893503536,0.13506479038792604
30.429072,11.520746564216616,0.13500366391482235
30.433672,11.498807005884043,0.13496709251561215
30.438264,11.484639944886494,0.13490766815265376
30.442856,11.467085613709752,0.134919227662426
30.447448,11.46012426792512,0.13488464213214274
30.452032000000003,11.467842384179775,0.13475998156140478
30.456616,11.480879063854799,0.13462527709088132
30.461208,11.497313253340751,0.13449842055613984
30.4658,11.521353613998953,0.13433139290641732
30.470392,11.551978526667607,0.13413609751705202
30.474984,11.5904539799368,0.13389210949018648
30.479576,11.632815681873508,0.1336376897203602
30.484168,11.684171728286694,0.13332000272273367
30.48876,11.735938470290945,0.1330175772481525
30.493348,11.797066110914109,0.13264378445797442
30.497944,11.859215370699069,0.13226439190719186
30.502532,11.934567636321821,0.13178292363813485
30.507144,12.01069715167808,0.131305098617962
30.511732,12.090546589539075,0.1308020019751776
30.51632,12.175626307923181,0.13024614190393588
30.520924,12.262094199611523,0.1296714458446228
30.525512,12.351993502927678,0.12905772340823526
30.530108,12.438539437881538,0.12846618991507114
30.5347,12.527372980587273,0.12784783932684635
30.539308,12.614896393254295,0.12723376686353569
30.543888000000003,12.698411372539661,0.12664223150894902
30.54848,12.779961156766957,0.12604768624870605
30.55306,12.864287287602714,0.12541710314414167
30.557652,12.946892592808695,0.12477994569212744
30.562248,13.026755453223101,0.12414431690827461
30.566836,13.10375368413179,0.1235126239176721
30.571432,13.182873196629584,0.12284176631456893
30.576028,13.256307591564573,0.12219370133390658
30.580624,13.328265530298072,0.12152797768718097
30.585212,13.386199072011646,0.1209358551216089
30.589804,13.440490734486001,0.1203461437061878
30.5944,13.482679053549866,0.1198173115722154
30.598988,13.51877155945986,0.11929471958926845
30.603576,13.553631978596657,0.11874559708202352
30.608168,13.585749952941885,0.11819323207271798
30.612756,13.613570983028538,0.11763702946293958
30.617348,13.636195634408965,0.1170819974827728
30.62194,13.655789330120902,0.1165062855120931
30.62654,13.672107700736053,0.11591715466131751
30.631120000000003,13.677466531816656,0.11536376992552705
30.6357,13.675585745867453,0.11482479333797288
30.640296,13.666220973460145,0.11430590508392996
30.644888,13.646551726537645,0.1138256024707654
30.649496,13.621075177338192,0.11336099094318398
30.654076,13.590157880004222,0.11289987270582344
30.658668,13.554577084269244,0.11244099407245843
30.663264,13.514987855152606,0.11198785778269475
30.667852,13.471512377368457,0.1115351988418452
30.672444,13.422884662326714,0.11109840239112909
30.677024000000003,13.384106584760469,0.1105909990254151
30.681624,13.341852954117776,0.11009420276776562
30.6862,13.296368139826932,0.1095996066941369
30.690804,13.25124987967852,0.10909050237058149
30.695392,13.199346839539995,0.10862262563643282
30.699992,13.144867680772672,0.10816045782445428
30.704584,13.089366902843553,0.1077027329046764
30.70918,13.033499570772,0.1072529635671543
30.71376,12.97636625011036,0.10681479554765538
30.718352000000003,12.920010179182222,0.10637293465159023
30.72294,12.872115572425352,0.10588033839997298
30.727536,12.828595953192576,0.10536847776473482
30.732124,12.794559417292861,0.10479937096039128
30.736712,12.766041672793179,0.10419981860027411
30.741300000000003,12.736257939703414,0.1036120045395991
30.745892,12.710360455281158,0.10302159019751436
30.750488,12.688593588954705,0.10242134478021309
30.75508,12.666337983771665,0.10183466868776637
30.759676,12.651033484741525,0.10122404516183157
30.764256000000003,12.639859603807182,0.10060453044653134
30.768848,12.623455442349723,0.10002677939017647
30.773436,12.612081333435718,0.0994373025416421
30.77802,12.607291776532167,0.09883597477948675
30.782632,12.605244664420184,0.09824586015719294
30.78722,12.607328170404006,0.09764714555429102
30.791824,12.613952990074697,0.09705481499477399
30.796412,12.624341873698754,0.0964674078337912
30.801,12.63808412568511,0.0958742156695331
30.805596,12.65391375744368,0.09528873922141336
30.810192,12.670809149812671,0.09471978838460644
30.814784000000003,12.692368040582673,0.09415787378385866
30.81938,12.71830191887677,0.09358696626093396
30.823972,12.741459450562406,0.09305524846730946
30.828552,12.766459992591965,0.09254204473973301
30.833152,12.798533825488564,0.09200858519495154
30.83774,12.829219485080928,0.09149415214020136
30.842348,12.860193655550214,0.0909971734433648
30.84694,12.894399009667655,0.09050087529492369
30.851536000000003,12.928237809642656,0.09001929759345298
30.85612,12.960688436313431,0.08955640127157846
30.860712,12.997391865794153,0.08908832833078904
30.865312000000003,13.035894164170168,0.08861824243514574
30.8699,13.076317516155626,0.08814258393004196
30.87448,13.121482409807616,0.08765006015089094
30.879064,13.170122856536048,0.08715298874035642
30.883656,13.218108238245126,0.08665580302269048
30.888244,13.265682924363139,0.08614969095783903
30.892832,13.313135425767003,0.08565017657567392
30.897424,13.365329468837402,0.0851343588004026
30.90202,13.419444565517239,0.08461297037580871
30.906608,13.465342567454107,0.08412056650889527
30.9112,13.504211419972561,0.08366811352342453
30.915792,13.546678010281608,0.08320902596191784
30.920388000000003,13.588856089713735,0.08273828758365404
30.92498,13.628335865802917,0.0822776528382504
30.929568,13.671002684091627,0.08179873756178091
30.934164000000003,13.713380991503415,0.08130749176796623
30.938756,13.75252811526705,0.0808168607390107
30.943356,13.791919608458977,0.0803230232061304
30.947952,13.832699274955134,0.07981497877832264
30.95254,13.870492127231431,0.07930156912572858
30.957132,13.902766188107694,0.07880556665984204
30.961724,13.928744207850423,0.07832501584709892
30.966316,13.945727883116671,0.07786573293325648
30.970908,13.9606241786107,0.07739799075364846
30.975508,13.966281760199964,0.07695500099964472
30.980096000000003,13.971039907341579,0.0765144403726568
30.984696,13.975265174177988,0.0760669394730029
30.989288,13.973194399880857,0.075633091331152
30.993884,13.966748638059633,0.07520503611066835
30.998476,13.960913799809136,0.07475936888888823
31.003072000000003,13.958388188472314,0.07429157885884381
31.007668,13.950177459572682,0.07382027148429732
31.01226,13.938002438740025,0.07336515103618158
31.016852,13.921085876240834,0.07292354621923587
31.021448,13.898406152913322,0.07250092151491738
31.02604,13.87266157210043,0.07209185981621948
31.030632,13.847694241021035,0.07168339844414437
31.035224,13.819129172151053,0.07128071510424557
31.039808,13.788520864957485,0.07088661752666617
31.044396,13.75550276529789,0.07051021783153771
31.048992,13.724405719247734,0.07012624433604385
31.053588,13.696784226274028,0.0697383774368055
31.058168,13.671494482500826,0.0693540587662985
31.062764,13.641751707938013,0.06899687857093889
31.067344,13.623046516175267,0.06861526826505286
31.071936,13.604096954984229,0.06823954633879487
31.076532,13.580039297984225,0.06788548928082269
31.081112,13.55933500934652,0.06753194457882757
31.08572,13.543905142680558,0.06717369115798626
31.090308,13.534404763005693,0.06681653144941303
31.094916,13.52453782918839,0.06646916540440051
31.099508,13.517779894305095,0.06612960331848625
31.104096,13.51461969721239,0.06578511288979881
31.108692,13.5226192676339,0.0654181077793429
31.113284,13.535238195007791,0.06504211780404678
31.117888,13.55223210990578,0.06466426831408632
31.122484,13.572579393166066,0.06428991258414336
31.127088,13.593459556731565,0.06392434535199207
31.131676,13.621657380592392,0.06354953876369716
31.136268,13.655496180567397,0.06316361194700086
31.140856,13.692932718332992,0.06277594551848861
31.14546,13.733966993889181,0.062387080529116734
31.150048,13.783951472473222,0.0619715263475901
31.154652,13.841986719637461,0.06152903996692669
31.159236,13.899244717068202,0.061089031165712515
31.163832,13.961122071451324,0.06064495284506719
31.168424,14.037346235548185,0.060171844263962715
31.173012,14.114059138501627,0.0596900500698361
31.177616,14.19023916114986,0.05920464995729391
31.182208000000003,14.264498130188652,0.05872834380589648
31.186796,14.340023087817526,0.0582452204016464
31.191392,14.416691849322342,0.05775924982686551
31.19598,14.490662307484213,0.057277190396765765
31.200564,14.558581093940841,0.05679895557369567
31.205152,14.626622065111613,0.05632073080766158
31.209748,14.69323072152953,0.055837641057038395
31.21434,14.753787706242203,0.05535389447428094
31.218928,14.814344690954876,0.05487114238149305
31.223528,14.865007896743418,0.05439588890216818
31.228108,14.908231257522491,0.0539309517095682
31.2327,14.942093719682646,0.05347898880492566
31.237296,14.96594021820453,0.05303439175984008
31.241884,14.972497234241441,0.05262242226492131
31.246492,14.967527928621704,0.05223149855557779
31.251084,14.948456182716521,0.05185780813525191
31.255692,14.920145722906568,0.051492171024637316
31.260284,14.868127554763957,0.05116070426555847
31.264888,14.80446088025056,0.05084978839311555
31.269484,14.726691765451713,0.05055333556280607
31.274072,14.632121907024475,0.05027182054248273
31.278668,14.52152855470235,0.0500070527132439
31.28326,14.394789523771193,0.04976225252397471
31.287856,14.255624736735738,0.04953381843267654
31.292444,14.098926097787023,0.049337012395701096
31.297036,13.927347768819358,0.049149504383221104
31.30162,13.739501576528514,0.048984220418297475
31.30622,13.544748419533407,0.04883022180120968
31.310804,13.33625937639529,0.048678333245874526
31.315396,13.114200773276938,0.04854852172315133
31.319992,12.878939164320787,0.048431518243517505
31.324584,12.636237710355163,0.048316183732347154
31.329176,12.382132119447034,0.048213408596879746
31.333768,12.125206040481817,0.04811022629294526
31.33836,11.860473562364692,0.048021527574184535
31.34296,11.592676226762185,0.04793989938193103
31.347548,11.315395807826615,0.04786687010264019
31.352136,11.036971585015108,0.04779993577128115
31.356724,10.750863147765832,0.04774776468218491
31.36132,10.459402245279302,0.047723026308461106
31.365916,10.170639646135712,0.04769520580916805
31.370516,9.882409927297335,0.047678936168172224
31.375108,9.593036404583016,0.0476716051512265
31.379696000000003,9.305706120192287,0.047651423279149674
31.384296,9.021973573592149,0.04763361899775802
31.388884,8.736975038401926,0.04762588443915538
31.39348,8.45287593765935,0.04761774403705716
31.398068,8.160315372745508,0.04762417529057079
31.402656,7.868043318708585,0.04765843537991401
31.407264,7.581290056071694,0.04769008850533334
31.411856,7.30107720399663,0.04770513722763761
31.416444,7.020497797779128,0.04773831214961635
31.421032,6.749401474894687,0.0477334551258457
31.425624,6.478182967296101,0.047731748013295064
31.430216,6.210806566916398,0.047713589621588164
31.434796,5.942408547374904,0.04770434778965022
31.439392,5.6728667239574655,0.04771028534199469
31.443972,5.403324900540031,0.04772384714948918
31.448572,5.14146729156036,0.04769625860888799
31.453164,4.886272277856661,0.047649269679667275
31.457756,4.630055644991169,0.047602190297931585
31.462344,4.3788249232205,0.04748505814857583
31.466936,4.133112992849862,0.04735046254264123
31.471528,3.8870345083367877,0.047234342884661815
31.476124,3.6456975654902455,0.047071148851616916
31.480712,3.413477151834325,0.04686614491062494
31.485308,3.1904954520831756,0.046581311508851114
31.489896,2.9793285848655935,0.04625829326402366
31.494484,2.7740470631904808,0.04578883870088895
31.499064,2.5751837673630495,0.0452219533696866
31.503664,2.3784078513078333,0.04282512328911863
31.508252,2.1907484644432405,0.04041896588964592
31.512852,2.0021115998654837,0.03805175962571536
31.517444,1.8225912644783504,0.03568654877988496
31.522036,1.6482231663488125,0.03333423500171121
31.526636,1.4856699007528429,0.030973872718223792
31.531224,1.3366081518715909,0.02860417688949394
31.535816,1.2030811580286438,0.026223051278866028
31.540408,1.080225192843325,0.02387393111730222
31.544992,0.9645647032391894,0.021528722336433315
31.549588,0.8605968614544754,0.019189476133014086
31.554172,0.7650124405755118,0.01691489489869621
31.558764,0.6747024416682896,0.014651965257890382
31.563348,0.5990277633517246,0.012383283701718614
31.56794,0.5296491261686944,0.010155657676327586
31.572544,0.46260223818617074,0.007970232128393612
31.577124,0.40070758746124274,0.0058650655282925755
31.581732,0.3461305970316432,0.0037909586968923924
31.586324,0.3009586466695875,0.0018471038005479909
31.590924,0.26093893356512754,0.0
31.595512,0.22848125018428736,0.0
31.600108,0.2007651084699778,0.0
31.6047,0.1826542348028751,0.0
31.609296,0.16699729505042463,0.0
31.61388,0.15493809308856554,0.0
31.618472,0.14749824807909137,0.0
31.623064,0.14312326055499774,0.0
31.627656,0.137971023297402,0.0
31.632248,0.12885449410677777,0.0
31.63684,0.12345788742089066,0.0
31.641428,0.11806128073500356,0.0
31.646024,0.11200960902975994,0.0
31.650612,0.10980004454339908,0.0
31.655208,0.10362618812400978,0.0
31.6598,0.09966189619098137,0.0
31.664388,0.09774084258153999,0.0
31.66898,0.09455380038201376,0.0
31.67356,0.08955848710105013,0.0
31.678152,0.08300867435308212,0.0
31.682740000000003,0.0765810463192598,0.0
31.68732,0.07105285273308533,0.0
31.691916,0.0652802897186195,0.0
31.696508,0.05848610754236017,0.0
31.701096,0.05271354452789436,0.0
31.705692,0.050470078224644124,0.0
31.71028,0.04798224249310254,0.0
31.714872,0.042062995133744306,0.0
31.719464,0.03490225881504796,0.0
31.724064,0.03377893420258726,0.0
