Time,Force,Position
29.38458,0.2530842473588273,0.0
29.38916,0.2795651193782693,0.0
29.393752,0.3100985662279959,0.0
29.39834,0.3455840223556553,0.0062133245854987616
29.402928,0.3842226188659513,0.012586860769421606
29.407523999999995,0.4276910399400344,0.01914601744320203
29.412116,0.4804864578161437,0.025436392123008536
29.416716,0.5493936524843966,0.03140278574735412
29.421312,0.6173675108881125,0.03770957351674513
29.4259,0.6902933785697609,0.04412870278652521
29.430499999999995,0.7692370161397635,0.050682670465972385
29.435092,0.8497012513598812,0.0575293882432515
29.439688,0.9286653681933614,0.06489796605891782
29.444275999999995,1.0217863063926547,0.07220284728738417
29.448876,1.1275095664907557,0.07937661374234467
29.453456,1.2372956410508804,0.08672327642655839
29.458056,1.3512667147871738,0.09428996781574192
29.46264,1.4785393168902612,0.1019445613754453
29.467232,1.619357816788433,0.1096273581115889
29.471816,1.7742550947869002,0.11736444140838352
29.4764,1.9420873470097242,0.12509141591874828
29.480992,2.1227323887427585,0.1328227406030851
29.485584,2.312470297481266,0.140666500950801
29.490172,2.5105238234917455,0.1423762828075909
29.49476,2.722045204031792,0.14394006543056756
29.499351999999995,2.946667884958969,0.14537083227791447
29.50394,3.184391866273276,0.1470055617550745
29.508531999999995,3.42716637939451,0.14905499930091057
29.513124,3.6902818099326855,0.15078066261248735
29.51772,3.973493788459511,0.15236641739807874
29.522307999999995,4.276880358240503,0.15375174162354516
29.526896,4.602973496455833,0.154767021095294
29.531476,4.954383223551187,0.1551488530046989
29.536068,5.308579536886741,0.15560004652493192
29.540651999999994,5.663641382853055,0.15619201001124072
29.545244,6.028352638315202,0.15654750964429473
29.549831999999995,6.403202042129768,0.1566228733793898
29.554427999999994,6.781727227000442,0.15656555325908852
29.559016,7.163150943193724,0.15642805880355345
29.563612,7.546940310404403,0.15619078450005097
29.568203999999994,7.925078461869164,0.15594459927241514
29.5728,8.296788147854507,0.15568357390903512
29.577376,8.672818440283576,0.1552246826017814
29.581979999999994,9.04675111330869,0.15465326602441948
29.58656,9.413800483814693,0.15403696403478548
29.591164,9.77686508312419,0.15330357403652975
29.59576,10.121431775360668,0.1526401940882328
29.600359999999995,10.454896264084978,0.15187201918631932
29.604952,10.777659005256439,0.1509875308005328
29.609552,11.076883547179696,0.15011201156242332
29.614144,11.349260662941074,0.14930043772819387
29.618739999999995,11.596467036721725,0.1485435833269427
29.623328,11.814704702751394,0.14790305808616777
29.627928,12.01877530778351,0.14723198217780142
29.63252,12.204592375170897,0.14657042271673104
29.63712,12.370889916323481,0.14596030230738827
29.641712,12.520244049870046,0.1453814334836355
29.646296,12.653554210258246,0.14481923335902133
29.650887999999995,12.768532789736202,0.1443015141619588
29.65548,12.868899710808654,0.1437949716948506
29.660072,12.959685026019049,0.14326535027238413
29.66466,13.040888735367385,0.14271045703873841
29.669252,13.103560635825819,0.14222538911656707
29.673843999999995,13.153708257650955,0.14174197280543233
29.678436,13.19084286198622,0.14127367566188262
29.68302,13.2097341683085,0.14087640936243145
29.687608,13.223218628313152,0.14044807984730545
29.692215999999995,13.23015243812424,0.14000382194241534
29.696804,13.219708482553099,0.13966754599899192
29.701415999999995,13.211507993285208,0.13928124713169082
29.705996,13.205428785606422,0.13884846392236233
29.7106,13.192887210631326,0.1384395943980674
29.715188,13.179890798616537,0.13799727846835508
29.719776,13.160920758162021,0.13756282085663285
29.724376,13.144438553439048,0.13706827122212414
29.728952,13.124558838905145,0.13656654849762132
29.733556,13.098583311217372,0.13607600297372446
29.738147999999995,13.069620969309733,0.13558799090070803
29.74274,13.042535539562909,0.13506010285549425
29.747324,13.008865557805631,0.13455810201401
29.751915999999994,12.970165523504903,0.13407792225219237
29.756512,12.930932608898964,0.1335897994533234
29.7611,12.887691260911367,0.13311234277275055
29.765688,12.842651044028477,0.13264391492503455
29.770284,12.80055349991682,0.1321469337293883
29.774884,12.764996366366988,0.13159785423422807
29.77948,12.730216482550661,0.13104460731449388
29.784068,12.69686891348719,0.13048981311501098
29.788664,12.67047245057661,0.1298938028164502
29.793243999999994,12.635003599924037,0.12938046695497152
29.797828,12.597369326233729,0.12888905320973656
29.802416,12.567829962572253,0.12834396822084815
29.807008,12.541932478149995,0.12779751016601046
29.811604,12.52249736102405,0.12722875761877178
29.816184,12.506826307851464,0.12665671291833966
29.820775999999995,12.499416490870487,0.12605403592563472
29.825364,12.497203052595735,0.1254479748389816
29.829956,12.497609874398403,0.12485155043434636
29.83454,12.496672664345475,0.12429955865833824
29.839132,12.504773940217651,0.1237161864884083
29.84372,12.51999264840549,0.1231177235603512
29.848312,12.536032747775463,0.12254246277332004
29.852903999999995,12.559312464175246,0.12194694569467154
29.857496,12.587666374567108,0.121355794863754
29.862092,12.616597306712809,0.12079630682223111
29.866696,12.648392868364224,0.12024450452248148
29.871275999999995,12.680354756178415,0.1197120435976363
29.875876,12.71734669653606,0.11916547861664502
29.880452,12.756426016665914,0.11862705923489449
29.885051999999995,12.80707579990105,0.11802942885983991
29.889644,12.863655070127281,0.11741422795559482
29.89424,12.921300100963936,0.11681975101947809
29.898832,12.980744000695884,0.11622098118497842
29.903428,13.039943530999542,0.11563519231142899
29.908016,13.09607820381782,0.11507915318559994
29.912612,13.145672466074268,0.11456669599662163
29.917212,13.198209401101952,0.11403760427768958
29.921808,13.255610062510316,0.11347977442308925
29.926396,13.319384808317729,0.11287033253867024
29.93098,13.38352610826758,0.1122577036547877
29.935568,13.443414605407483,0.11166324104554595
29.940152,13.504569091137473,0.11105764599107372
29.944744,13.568011184619339,0.11043526993829272
29.949335999999995,13.630509702204929,0.10980007616613706
29.953931999999995,13.693741328075394,0.10914653957978064
29.958512,13.755418454478853,0.10850022038199796
29.963104,13.82003825365355,0.10783754928630798
29.967692,13.880405250018296,0.10719359271838529
29.97228,13.936763813001386,0.10655751286418924
29.976876,13.984494585650435,0.10595286672782393
29.981463999999995,14.024374817698947,0.10537817557995463
29.986052,14.059591551346443,0.10480783186324759
29.990648,14.091577101345784,0.1042446980829904
29.995236,14.11865478351582,0.10369038490080686
29.99984,14.146465573970733,0.1031167433551783
30.00442,14.177707776053465,0.10251265809406955
30.009024,14.20314267585924,0.10192199945523452
30.013604,14.221748654226273,0.10135165052360214
30.018204,14.230993733974387,0.10082760655032293
30.022791999999995,14.229201230922438,0.10035091419871872
30.027396,14.225854228403485,0.09987341802526527
30.031988,14.218254423074583,0.09940604184438755
30.036587999999995,14.205502380488086,0.09895256340015048
30.041184,14.190296403986936,0.09850191019175775
30.045767999999995,14.170715439961691,0.09806325087219159
30.05036,14.147003857840646,0.09762990978253118
30.054956,14.121859960966741,0.09719282202368454
30.05956,14.09606099907348,0.09675143583874077
30.064152,14.07242746021795,0.09629292119629823
30.06874,14.050470605543572,0.095829979059469
30.073336,14.031989303945638,0.09535709897694168
30.077924,14.01199764432933,0.09490282317522686
30.082512,13.99266104973238,0.0944519434768746
30.0871,13.979376126840672,0.09398680178270052
30.091696,13.96674626896832,0.09352590598592689
30.096288,13.953994226381823,0.09306907998519287
30.10088,13.944473367443477,0.0926106334902297
30.105472,13.937039888277353,0.09215994487530411
30.11006,13.9352473852254,0.09168518687464623
30.114652,13.943593030525868,0.09117238520958405
30.119236,13.958479086388165,0.0906353789534778
30.123816,13.977617945060405,0.09009252204886004
30.128412,13.99782256434307,0.08956480951172788
30.133004,14.016516825607356,0.08905590639116824
30.137608,14.040241139415095,0.0885418778248933
30.142199999999995,14.06707445215684,0.08803163958709802
30.1468,14.095584449079738,0.08752218477077328
30.151396,14.12810287938429,0.0870162832808793
30.155988,14.161154189994054,0.08652015284248393
30.160596,14.200745911165647,0.08600360265630595
30.165192,14.240215447623092,0.08549205837145697
30.169788,14.287247013804155,0.08495445788778704
30.174375999999995,14.335300199147014,0.08441399610724183
30.178976,14.379633461985133,0.08388872497991791
30.183564,14.422822920947315,0.0833745382917571
30.188168,14.463724772157617,0.08287956298203732
30.192752,14.502705569758477,0.08239388230494868
30.197356,14.542952355949422,0.081898492061818
30.201947999999994,14.583732022445577,0.08141355933876528
30.206536,14.624389504227588,0.0809358632340166
30.211127999999995,14.65993889020063,0.08048695816077203
30.215723999999994,14.691768353668937,0.08005064807128631
30.220312,14.721266067936737,0.07961109794920611
30.224908,14.758325811928156,0.07914850286883283
30.229496,14.793586687024279,0.07869181865768776
30.234084,14.825005454901522,0.07824944385316318
30.238672,14.854625353883465,0.07781306564470335
30.243268,14.877949211731874,0.07739102213549806
30.24786,14.90331630790387,0.07696172091638143
30.252452,14.922920243247543,0.07655458788725548
30.257048,14.942524178591215,0.07614833889627386
30.261627999999995,14.961595233629676,0.0757384768112431
30.266212,14.981443538401642,0.07533185874994569
30.2708,15.005133950392489,0.07491435496484228
30.275396,15.031889219868717,0.07448519851097807
30.279992,15.062608781277975,0.07404261929697921
30.284583999999995,15.096393200172614,0.07358830813709072
30.289179999999995,15.131199238229044,0.07313220278131123
30.293772,15.165228026551972,0.07267686586033516
30.298368,15.197702315407897,0.07222133188962661
30.302964,15.23144259285391,0.07175661345690992
30.307552,15.271967650290033,0.07127322788399906
30.312148,15.319155303002134,0.07077406271930609
30.31674,15.359025295418904,0.07029081063978677
30.321344,15.401060710873407,0.06979868495861526
30.325936,15.451269079622259,0.06927613549967208
30.330535999999995,15.50237688281876,0.06875485075236253
30.335124,15.55744897794829,0.06822154571456858
30.339716,15.60405960890655,0.0677084678505278
30.344304,15.65565615095963,0.06718131057623654
30.348904,15.70569819354571,0.0666519206499411
30.3535,15.748056021694023,0.06614494181294052
30.358096,15.787959915927683,0.06563766087074852
30.36268,15.822467203475457,0.06513832043379093
30.367268,15.852477318784992,0.0646460640480855
30.371868,15.879134065732224,0.06415430210865755
30.376452,15.903747574355872,0.06367192441197934
30.38104,15.926684398798368,0.06319067123520002
30.385624,15.944468985983269,0.06270918689740959
30.390215999999995,15.961354138720521,0.06223005502135731
30.394816,15.978361476171921,0.061749297107934704
30.399404,15.984086861394964,0.06128945964576445
30.404004,15.984171270503829,0.06084094754821989
30.408587999999995,15.985399483488631,0.060385507581550125
30.41318,15.985972631454077,0.05992682305421022
30.417776,15.977839945819962,0.05948862721102987
30.422356,15.964965718519318,0.05905860514357294
30.426948,15.947349949552146,0.05863654914590065
30.431543999999995,15.937418395022737,0.058198003602520545
30.436124,15.918903191607917,0.05777542987673277
30.440712,15.898466934583654,0.05735527710452749
30.445308,15.878152862273538,0.05693050958813327
30.449895999999995,15.854896117192183,0.05651148525927545
30.4545,15.828818884053744,0.05609443663748789
30.459092,15.797877924534625,0.05568564200038241
30.463696,15.759907815597096,0.055294083075838
30.468292,15.71654109997368,0.05490326733518899
30.472896,15.665123615770064,0.05453267291863232
30.477476,15.615138446319305,0.05416704292112594
30.482076,15.553504770497755,0.053822220855324926
30.486656,15.487007368295528,0.053485272439453904
30.49126,15.42602875749333,0.05314087050655437
30.495847999999995,15.360963670043962,0.05280636616852043
30.500443999999995,15.294632594004506,0.052478227466714406
30.505032,15.21743026132776,0.05217249484946973
30.509628,15.13806250561328,0.05187271882808729
30.514216,15.052809404356333,0.05158240364480287
30.518808,14.965268695347508,0.05130094699206922
30.523396,14.865835110539594,0.051044920778863634
30.527988,14.763458852960447,0.05079165284510475
30.532576,14.661859845114801,0.0505377562510091
30.537164,14.551965699260663,0.05030784357576673
30.541751999999995,14.435042403988115,0.050093058559792264
30.546347999999995,14.317508185144838,0.04988961692614061
30.55094,14.19552093551195,0.04970442299420308
30.555536,14.071490447555476,0.04952211681017601
30.560132,13.944150732685332,0.04935150803452482
30.56472,13.814767779491596,0.04918437539259559
30.569316,13.678477861593597,0.04903020274459563
30.573904,13.546685115933839,0.04887259223505101
30.5785,13.408762655303319,0.04873120386622973
30.583096,13.259313873016152,0.048606039103002485
30.587675999999995,13.10500136434831,0.04848775580308915
30.592268,12.941860837366761,0.04838617932322026
30.59686,12.775533268185683,0.04829577297031831
30.601451999999995,12.602420919014495,0.04821630058480757
30.606052,12.430330189005094,0.04812995696135529
30.610651999999995,12.250677429272077,0.04805154846900138
30.615248,12.069103615929613,0.04797495081941196
30.619828,11.88344332593998,0.04790954008953447
30.624424,11.686134529579554,0.04786601552122478
30.629016,11.4921349601328,0.047801105415557
30.633616,11.297235956238397,0.04773357837766629
30.638208,11.095918726496315,0.04766648124829093
30.642812,10.895090235610812,0.047580680379836975
30.647403999999995,10.692340691115868,0.047494721459759796
30.651996,10.482928551344953,0.04741769665959251
30.656583999999995,10.271839727392889,0.047331893268686503
30.661172,10.055232112040793,0.04724643452195714
30.665764,9.831306836393368,0.04715937886941876
30.670359999999995,9.600841150184115,0.04707964320892252
30.674952,9.367310606489484,0.0470119296582685
30.679548,9.131081759451906,0.04693892990201964
30.684128,8.892032424357241,0.04686895934089995
30.688716,8.65514851230031,0.04677959238667027
30.693304,8.417365165795728,0.04668624556467714
30.697892,8.173818658462825,0.04659991778877239
30.702484,7.933214823901155,0.04649533343536374
30.707072,7.691589370177691,0.04639337174423829
30.711672,7.449186666720726,0.04627798401845004
30.716252,7.206661778549615,0.04616826928137428
30.720856,6.959806044303039,0.0460878048506417
30.72544,6.714626994237612,0.04600782312428524
30.730028,6.467404705848598,0.04593542539924662
30.734632,6.2199380480312945,0.04586148978164872
30.73922,5.972227020785697,0.04579697949096224
30.74382,5.731955838549576,0.04571291685484297
30.748408,5.487598179666279,0.045652514613384196
30.752996,5.251457615525959,0.04557636025556537
