Time,Force,Position
35.72196399999999,10.265112580206598,0.04821073029258837
35.72655999999999,10.09270967713513,0.0482358805364835
35.731156,9.923249446834896,0.04825289805739587
35.735752,9.754688650982311,0.04826876500253878
35.74034,9.578565825406105,0.04830116869625224
35.744936,9.39770145816337,0.048343698749314004
35.749523999999994,9.214793852597047,0.04839672219896852
35.75411199999999,9.030986812583077,0.04845321905067974
35.7587,8.850244630054487,0.04849511537879119
35.763296,8.667581393916455,0.04854444465671618
35.767883999999995,8.487983015263806,0.04857831877496476
35.772476,8.30658576771586,0.048615591488725254
35.777072,8.128253377653294,0.048636408066252676
35.781659999999995,7.953108029790255,0.0486357607537871
35.786255999999995,7.77448712885077,0.048631203947381386
35.790836,7.588959263207021,0.04865784268548778
35.79541999999999,7.401632528667976,0.04868879192386498
35.80001599999999,7.2132841749671375,0.04873249322405053
35.804604,7.023914202104507,0.048783077034074175
35.8092,6.829269807270133,0.048828155652188704
35.813784,6.638467519654642,0.04886111187500893
35.818375999999994,6.446765797591505,0.04889183594348688
35.822959999999995,6.249300914700042,0.04894988508023513
35.827552,6.049792793484994,0.04902654981514794
35.832156,5.857436006402499,0.04904819029206734
35.836735999999995,5.6668780882153005,0.04907691537563898
35.841336,5.474521301132806,0.04911505622492053
35.845924,5.2849850021074,0.04914998916770644
35.85052399999999,5.09136222643482,0.04922770897565206
35.855112,4.898883254638181,0.0492919498614532
35.859711999999995,4.702439990908512,0.049391381912259114
35.864296,4.506241096607135,0.04947756293441992
35.868891999999995,4.306200095086875,0.04958777173963806
35.873487999999995,4.102194801633586,0.04974428342788261
35.878083999999994,3.899866192361448,0.04993724878547198
35.882692,3.705343982241221,0.05007504918378134
35.887288,3.5147860640540225,0.05016904713548106
35.891884,3.3281924377998515,0.05023243803697488
35.896483999999994,3.1384117693461553,0.05044110360921655
35.901076,2.949041796483524,0.05081266137528196
35.905668,2.756484781421366,0.05141590376708795
35.910259999999994,2.5726438395905062,0.05272726680577787
35.914843999999995,2.4014832629239717,0.054761793372771796
35.919436,2.238750248611816,0.05745807913879968
35.92402799999999,2.08076901559793,0.06109250064047885
35.928611999999994,1.9292501498803531,0.06531501790883028
35.933204,1.7917998226313325,0.06983276510634853
35.9378,1.6664969802414276,0.07443963803772913
35.94237999999999,1.5570615452153749,0.07906152781700285
35.946971999999995,1.4591626714777095,0.08411953578200529
35.951567999999995,1.3750879667803093,0.08936921365515613
35.95615599999999,1.3027941927995876,0.09490480731866247
35.96075199999999,1.2430585992690464,0.10078365838136635
35.96534,1.199068228388212,0.10656764315886852
35.96993199999999,1.16505991932876,0.11271240384202644
35.97452,1.1391126184812495,0.11901611636980926
35.979116,1.1211041411315346,0.12559576867599456
35.98372,1.1151209639267892,0.13205207368698782
35.98831199999999,1.1310127243425119,0.13789689945316108
35.99290799999999,1.1631384462645245,0.14341060851935147
35.997488,1.2136635527305588,0.14835613166660438
36.00208799999999,1.2621351812412676,0.15264194743404527
36.006668,1.3114960045678852,0.15606103370890873
36.011272,1.3619123488731857,0.1587696426262406
36.01586,1.4109302802425172,0.16073300468979537
36.020447999999995,1.464156872973168,0.16204573332682054
36.025032,1.5106325875305906,0.1633291535499852
36.029624,1.5489251091619265,0.16473105563313406
36.034216,1.5791566225813207,0.1662496014186286
36.03881199999999,1.606435223597742,0.16730060022832957
36.0434,1.628717673887602,0.16816821433228082
36.047988,1.6488244615079906,0.1686089523492354
36.05257999999999,1.667899390334847,0.16847960673507673
36.057176,1.6762150076068183,0.168802266828643
36.061768,1.6818220819041072,0.16868402612442931
36.06636,1.6817779404554793,0.16847516577167324
36.070956,1.675960398546788,0.16823978003232323
36.075548,1.658239741207273,0.1688472537556182
36.080144,1.6306592067605206,0.1698322661676178
36.084732,1.5941182296541794,0.17119082220122037
36.089328,1.545307582974577,0.17337353467660216
36.09391599999999,1.4946980673996788,0.17601446345766966
36.09851199999999,1.4448658015582831,0.1784411030796765
36.10310799999999,1.395155720431033,0.18079149913143966
36.107696,1.3503093656844594,0.1825171632154342
36.112292,1.3034978158798163,0.18417831795735493
36.116876,1.2634710460652907,0.18505085858596818
36.121456,1.2285965135083605,0.18553312314468798
36.126056,1.1927003617896368,0.1863678621048456
36.130648,1.1592581439855658,0.18691784710973097
36.135256,1.1290471098296488,0.18718973710950096
36.13983999999999,1.0970813482270643,0.1879223178960722
36.14444,1.0616841749966621,0.18929037139838664
36.149016,1.0370802151380343,0.18941432245416986
36.15362,1.0161181345186259,0.1893530994034842
36.158204,0.9976541292624981,0.18936920417982367
36.16279599999999,0.9840979918356746,0.18900452224183817
36.167376,0.9830117519617754,0.18730135453153776
36.171964,0.9847901415935936,0.185515483370514
36.17656399999999,0.9911098449122792,0.18346145191315943
36.18116,1.0040141002414191,0.1807872051600474
36.185748,1.024524526742807,0.17733486600028264
36.19034799999999,1.0450790946928232,0.17423273977644613
36.194936,1.0686204768627026,0.17109169404892885
36.199524,1.0882417085481815,0.1687461104966851
36.204112,1.1116270041870255,0.16633386251107865
36.208704,1.1333797570933477,0.16444236752117775
36.2133,1.1566870094666744,0.16258775962703328
36.21789199999999,1.1895214866216903,0.15992775469196083
36.22247599999999,1.2224001052253342,0.1576218606011185
36.227056,1.255445049991752,0.15559284260425352
36.231652,1.2917211784063247,0.1532796450312959
36.236236,1.3329051746502014,0.15052662523413676
36.240824,1.3706577592662605,0.14862478470370094
36.245416,1.4072665400063806,0.14696514935659072
36.250008,1.446573624089444,0.14511518825291408
36.25459599999999,1.4880902726588685,0.14334422803232513
36.259188,1.5246210101334707,0.1422473636403958
36.26378,1.5624618776467865,0.14126408761207207
36.26837999999999,1.600302745160102,0.1403226631858355
36.27297599999999,1.6385101668158542,0.13937892586119563
36.277568,1.676595403757461,0.13859417381488304
36.28214799999999,1.7185227479179506,0.13762659926319482
36.28674,1.7553419962694725,0.1370197873876009
36.29132799999999,1.8000898284870512,0.13586671921319043
36.295928,1.8422615420758321,0.13488565811150158
36.300512,1.8855770595405523,0.13382955099592517
36.30510399999999,1.9225965358717374,0.13306223180599067
36.30969999999999,1.9572842630024159,0.13244478802760207
36.314296,1.991683479256175,0.13174315863223493
36.318892,2.0250169348995124,0.13096620710910928
36.323492,2.061126737151311,0.12996115677277023
36.32807999999999,2.0924508562879507,0.12903532223046102
36.33267599999999,2.1215654109382296,0.12811755843934886
36.337268,2.151290889159237,0.12709305181066186
36.341852,2.1741874459414987,0.1262630221398398
36.34644,2.1953631770939817,0.1253803843027889
36.351032,2.2166169515119827,0.12434556857915527
36.355628,2.230753293614318,0.12341200175670716
36.36022,2.2457449287156734,0.12233932743181081
36.36481199999999,2.255462141845287,0.12144233793499906
36.369404,2.255529945479066,0.12083833385125738
36.373996,2.2449267204552164,0.12059777228930113
36.378584,2.2378329503247016,0.11994170287576177
36.383164,2.2201903362507043,0.11962406857493152
36.38775999999999,2.1968626046138997,0.1194166925319558
36.392344,2.1704258740430875,0.11922960175886947
36.396948,2.1462767512241525,0.11888294194268662
36.40154,2.116975391147622,0.11867096913681986
36.40613999999999,2.0855866512988763,0.11840661635081035
36.41073599999999,2.0497007392118918,0.11832223304701568
36.415328,2.0045761132201374,0.11863313129744613
36.419924,1.9654590174849982,0.11855128423934788
36.42450399999999,1.925809041444648,0.1184136414569982
36.429104,1.8803959045759742,0.11858578555288038
36.43369199999999,1.84254479743092,0.11837180589611135
36.438292,1.8033055169816348,0.11826393640837068
36.44288,1.7617786287804713,0.11831446008621971
36.447476,1.7242601739609649,0.11831873537182251
36.452068,1.683554676941932,0.11849607625842802
36.456664,1.644281494675758,0.11871763406269054
36.46124399999999,1.6129810377242688,0.11867912426276679
36.46583999999999,1.589897675515756,0.11829628700041929
36.470428,1.5636714125563451,0.11830112521697947
36.47502,1.54427407103568,0.11810565880839272
36.47960799999999,1.5305618470778213,0.11780119496711763
36.484196,1.5188148181780323,0.11756336912907693
36.488784,1.512097841821693,0.11718549579748887
36.493376,1.5071016910951327,0.11693773444785713
36.497972,1.5053808654653544,0.11680629094061043
36.50256399999999,1.5122878301696179,0.1163920449733841
36.507156,1.527700400493777,0.11570652400224095
36.511748,1.5403366242094751,0.11537735700355507
36.51633999999999,1.5586579654879797,0.11497299355777614
36.520932,1.5868730856906108,0.11418646073798655
36.52551999999999,1.6143550976083678,0.11364040363129584
36.53011599999999,1.6394273170601006,0.11327711502138395
36.534696,1.6695295890552837,0.11280820706988746
36.539308,1.7031074141269127,0.11226292639473184
36.543896,1.7372181195037524,0.11175579469305427
36.548484,1.7778692354424184,0.11100783624652033
36.55307199999999,1.8176209169334365,0.1103240915263876
36.557664,1.8576611093013742,0.109788117442526
36.56226,1.905385516107077,0.10892699695421956
36.56684799999999,1.954009357360428,0.10809225675487258
36.571448,2.0062309364043704,0.10719413615651338
36.57603999999999,2.059718504038398,0.10621737495202135
36.580636,2.1103855836153356,0.10539492832713304
36.58521999999999,2.165261324553594,0.1043646024317899
36.58982,2.215107012948401,0.10338853949817346
36.594412,2.262620952142702,0.10249171443492235
36.599,2.306781522974703,0.10166908048784738
36.60358,2.3502870287873474,0.10082283548546404
36.60817599999999,2.386474874304663,0.10018613870473615
36.612764,2.420208785907327,0.09962987373347346
36.61736,2.4486682755382496,0.0991681451826217
36.62195199999999,2.4824802304064306,0.09845535752500993
36.626536,2.5139604360741057,0.09776668654420327
36.631128,2.5432310772554194,0.09708718124284317
36.63571999999999,2.5728682725791705,0.09634441376157082
36.640308,2.5954321770358844,0.09575807772052
36.644904,2.620161504530331,0.09509977457206156
36.6495,2.642148387233206,0.09438743923721572
36.65407999999999,2.6559181751931047,0.0938577997290519
36.658664,2.6654351603430553,0.09337735148035452
36.663248,2.6671016048924665,0.0930061341203218
36.667836,2.662349823594197,0.09276275664207519
36.672444,2.6583311505808016,0.0924090748027374
36.677024,2.6472391867003693,0.09215985042160248
36.681628,2.6374132114100215,0.09183686265950791
36.68622,2.6242338677573733,0.09153486128296656
36.690808,2.6106438285136604,0.09116993687548418
36.69540799999999,2.5965209089647363,0.09076114381377218
36.7,2.584807781881837,0.09022354379629739
36.704596,2.5669207983795483,0.08976853358497862
36.70918399999999,2.55042198818149,0.08921572289368478
36.713784,2.530203255478695,0.08873847147147015
36.718372,2.505853904680097,0.08826936126037913
36.722972,2.4768851969291146,0.08788439908780427
36.72756,2.448160858606423,0.08745213210990593
36.73215199999999,2.4175154666742906,0.08706397102853383
36.736744,2.3791858603043923,0.08687360587473168
36.74134,2.340489699792057,0.08673167087905216
36.745924,2.3039589623174543,0.08649534083189586
36.75051199999999,2.2693492784522933,0.08619576188269343
36.755116,2.2393589515395176,0.0857950310857032
36.759716,2.2138657968649804,0.08531905824367818
36.76430799999999,2.1858406650102733,0.0849904999555285
36.7689,2.1620683359655146,0.08462425503496215
36.77348799999999,2.1457358519302305,0.08409048205835058
36.778088,2.1295696940577193,0.08366087873355942
36.782676,2.1135698623479824,0.0833382643970435
36.787268,2.0988801606769583,0.08306734928971529
36.79185999999999,2.0865222082064414,0.08281286015634755
36.796444,2.0752300163463455,0.08265418320666189
36.80103999999999,2.0679462578679066,0.08250533275163835
36.80562,2.063116433304119,0.08235475141361037
36.81021199999999,2.0600074343701107,0.08232854188256296
36.8148,2.0627057377130544,0.08228412139340606
36.81939199999999,2.0656925519329175,0.08233183252007513
36.823996,2.0747310378580246,0.08231916622946317
36.82858399999999,2.0921088032402526,0.08212833374157454
36.833172,2.1120626872512793,0.08191818977471846
36.837768,2.1343483204628124,0.08173700584363344
36.84235999999999,2.1606423870560025,0.0815856427664698
36.846956,2.1866920842209012,0.08148504383430627
36.851544,2.2174833230523294,0.08129445411836778
36.85614,2.249296181045552,0.08106506520492154
36.86071999999999,2.2793101701434786,0.08086175305563575
36.86532,2.3013955753753486,0.08089092426077715
36.869908,2.3273230878261013,0.08083046007325521
36.874512,2.3545165888669386,0.08069799407689289
36.8791,2.380932840174274,0.08055769750557254
36.8837,2.404650788138666,0.08045564892705677
36.888296,2.4334768319120252,0.08019474646069903
36.892892,2.4590716920372304,0.07993112426838334
36.897488,2.4783705110289005,0.07974568566160545
36.902084,2.503266164686121,0.07933438414635724
36.90668,2.52595225385698,0.07889023611632977
36.911276,2.5475725824174176,0.07835926702336327
36.91586399999999,2.565961727329701,0.07782496805066767
36.92046,2.5779326463943044,0.07739080375326371
36.925048,2.5891263157254047,0.07695628130836496
36.929644,2.5959449975324116,0.07655519823740872
36.934236,2.592869900415293,0.07626850367475767
36.938832,2.5900391727264647,0.07594690826914646
36.94342399999999,2.5876971838942193,0.07556529205680657
36.948016,2.585721749204411,0.07513153428489908
36.952612,2.5859117375523355,0.07462846902853552
36.95719199999999,2.5895331375280772,0.07399368075265647
36.96177599999999,2.586081246636782,0.07340709332281445
36.96636,2.5820964754402764,0.07277889925261499
36.97093999999999,2.575657770329118,0.07213440405906811
36.975532,2.5703628690938993,0.07144427854976802
36.980112,2.562491849229882,0.07076657938611917
36.984704,2.5544986446517193,0.0701013241079748
36.989296,2.553045850635383,0.06934047812245864
36.993888,2.547506579971873,0.06868867117808532
36.998484,2.539024636537128,0.06808621433353158
37.003064,2.5301761389599458,0.0675306108862815
37.007668,2.523126510278059,0.06696046023700322
37.012256,2.5190195543674068,0.06632953683991204
37.016856,2.5122142951138113,0.06571619427122262
37.02144799999999,2.510805642546104,0.0650638005800097
37.026048,2.51516015080672,0.06430346491972969
37.030644,2.5147731174008054,0.06360579072411013
37.035244,2.5024932081958053,0.06314527225175609
37.039836,2.4889473104007203,0.06274204697769731
37.04443199999999,2.4741354240155506,0.06239770419195027
37.04902799999999,2.4571581145926484,0.0621141253892206
37.05362399999999,2.4485200846268684,0.06173981706826225
37.058216,2.4393933158045056,0.06143505123916749
37.062808,2.4356631536680298,0.06109799156938742
37.067388,2.430134122636258,0.06076790287266595
37.07198,2.42141804940496,0.060520374908115473
37.076568,2.416544083392545,0.06021881333540402
37.081168,2.408727444608895,0.05996615376847803
37.085756,2.398090317768156,0.0597415171396461
37.090348,2.3912952981462996,0.05946126138601671
37.094944,2.3861769627055933,0.05919018238598728
37.099532,2.3779937697795064,0.05898442037370607
37.10412399999999,2.373652684072302,0.05872839021927983
37.108704,2.370333217526891,0.05844784672322533
37.113296,2.3614949595814476,0.05820565797150401
37.117892,2.3543333858171547,0.057974636380818845
37.122472,2.353590037900542,0.05770261884881252
37.12705999999999,2.3616747082976337,0.05728748896776609
37.13165599999999,2.372579866751815,0.05684684817149819
37.136244,2.383729394634287,0.05637252400623921
37.140848,2.3946345530884687,0.05593034980491126
37.14544,2.4006759851619734,0.05556471997365576
37.15003599999999,2.4077390363972713,0.05518064568495421
37.154624,2.4139026531849215,0.05480916751309676
37.159224,2.423664007763163,0.05443107796299338
37.1638,2.4411095767791706,0.05397181488848078
37.168404,2.4535692347003564,0.05359540457690656
37.172988,2.469748815126279,0.05319822107829194
37.17758799999999,2.4878494491616427,0.052775014328462655
37.182172,2.5019857912639787,0.05240925043372493
37.186768,2.516366502794605,0.052014583527473006
37.19136399999999,2.531768833487026,0.05159499988296035
37.19595999999999,2.537443711418094,0.051295514403570296
37.20055599999999,2.5455725232638136,0.05102801245536363
37.205156,2.5546007695571813,0.05075370952609546
37.209748,2.5609307125076057,0.05048634063200767
37.21433999999999,2.560964614324495,0.050228045152993735
37.218928,2.5539693667229755,0.050081165596341785
37.223516,2.5452974349403057,0.04991865854263433
37.228104,2.5354816992816964,0.04979029312832396
37.2327,2.5269319522131726,0.049607512382917135
37.237292,2.5156839018017054,0.04942398448424792
37.24188399999999,2.499694309723707,0.04927893095660113
37.24648,2.4770421223697374,0.04919188799012944
37.251068,2.4485045894732975,0.049183875418418906
37.25565999999999,2.4095845387961488,0.04925548957944587
37.260252,2.3719304767090845,0.04926687142580288
37.264828,2.3288798079361333,0.04927541153590024
37.26944399999999,2.287628008058478,0.04927579431649082
37.274032,2.2473978273426156,0.04926014724848316
37.278628,2.2023039202460772,0.0493029528743103
37.283208,2.1574543825778303,0.04929778756929985
37.28779599999999,2.117346386576114,0.04925804354000875
37.29239199999999,2.069021295831422,0.04924827617081485
37.296984,2.0208183898008745,0.04921185368325158
