Time,Force,Position
30.73828,2.44901635817273,0.03837862947850657
30.742872,2.2360947635084805,0.036128214288943535
30.747476,2.0340885669301505,0.03388773150356853
30.752067999999998,1.8438972028853888,0.031658603630550265
30.75666,1.6671973555553448,0.029442582344614863
30.761252,1.5029674057782252,0.02725011395599437
30.765851999999995,1.3521067880016775,0.025087037600812
30.77044,1.2165365558351433,0.022936720207686775
30.77504,1.0984221323163554,0.02078731962193438
30.779624,0.9959646485500178,0.018633568139144786
30.784228,0.8996810212030695,0.016501404433791184
30.788812,0.810592869437304,0.01439244999447596
30.793395999999998,0.7275563893767822,0.01233285007687539
30.797988,0.6504493963073584,0.010347966445413482
30.80258,0.5815594979809108,0.008384523472653218
30.807184,0.5207645096832939,0.006500013319942921
30.81178,0.4697411155956577,0.0046907296030191566
30.816368,0.4238699587656173,0.003021253923230492
30.820955999999995,0.3806971052785204,0.0014552123387217197
30.825544,0.3447197273726063,0.0
30.830132,0.31695944420966854,0.0
30.83472,0.2926747141231766,0.0
30.839316,0.27162116768483885,0.0
30.843908,0.2528993704470079,0.0
30.848496,0.23507700765682468,0.0
30.853096,0.2153335912572001,0.0
30.857676,0.19816629348637343,0.0
30.862268,0.1877837757056644,0.0
30.866851999999994,0.18014370271652705,0.0
30.87144,0.1751238898048157,0.0
30.876031999999995,0.17619989004697617,0.0
30.880624,0.1824722689953605,0.0
30.885212,0.19557356938249068,0.0
30.889807999999995,0.21268330315127743,0.0
30.894403999999994,0.23151386254984235,0.0
30.898996,0.2525981278833963,0.0
30.903588,0.2755254035608741,0.0
30.908176,0.30287180821107373,0.0
30.912755999999995,0.3374578298910842,0.0055829799726063315
30.917364,0.377851153848047,0.01106504360646096
30.921955999999994,0.41906586898714004,0.016780476570354776
30.926551999999997,0.4620014097560114,0.02277722930718826
30.931148,0.5087010144782479,0.02891346571859247
30.93574,0.5612079214774367,0.03496442800873552
30.940335999999995,0.619932826344643,0.04097247652234365
30.944931999999994,0.6821774257369231,0.047184582858612184
30.94952,0.7407462440730942,0.05382319813926959
30.954108,0.7951505424965738,0.06071481327757071
30.9587,0.8502879492049275,0.06736276449740938
30.963288,0.9008840422264136,0.07406911970430313
30.967868,0.9502480484747043,0.08063860363841428
30.972468,0.9942934913026253,0.08736436766465902
30.977056,1.0338417618923073,0.09425355251149603
30.98164,1.0699144794055435,0.10130866668967708
30.986228,1.1078641090795929,0.10817450808897525
30.990807999999998,1.1443372825521554,0.11498063244132196
30.995388,1.176024772909559,0.12202975492165215
30.999972,1.2039481993135976,0.12916092521635497
31.00456,1.2249205195647446,0.13094448072028317
31.009152,1.2434389059012394,0.13274835624367293
31.013744,1.2649780082744868,0.13393110407666786
31.018331999999997,1.2862285997708147,0.13488713309035288
31.02294,1.3085788536944536,0.13544925122503854
31.027531999999997,1.32679848952229,0.13614957564147104
31.032128,1.3386779427679634,0.13698080606906235
31.036711999999994,1.349858189545652,0.13755488222904616
31.041312,1.367534705436539,0.13745494048069407
31.0459,1.3860665143264457,0.13707432284854162
31.050495999999995,1.3958924896167935,0.1373505670687415
31.055083999999997,1.4063735299264974,0.13763811266495238
31.05968,1.4194306888649995,0.13782161245945046
31.064276,1.4342867166987971,0.13788184475908072
31.068867999999995,1.452451971446267,0.13760295247245996
31.073456,1.4711059650503193,0.13715813085449513
31.078052,1.4868172858831368,0.13696611042863555
31.08264,1.5006075531065126,0.13691349550110435
31.087232,1.5178292319577062,0.1364746655809904
31.09182,1.5363168993989849,0.1358770650003162
31.096408,1.557336544020433,0.13493859515246917
31.100995999999995,1.5743477552602247,0.13413701638639453
31.105591999999994,1.584452001795753,0.13391072240333604
31.110184,1.595044987187864,0.13355075924820614
31.114776,1.6011408003417356,0.13345964420361175
31.119372,1.6060486681710404,0.13329778621693517
31.123956,1.6133663284663688,0.13287412707994953
31.128552,1.6197845543140494,0.132503564387911
31.133132,1.62117272761828,0.13232948220438806
31.137724,1.620595705864441,0.13209950822859032
31.14232,1.6283138221190956,0.13120902612845176
31.146899999999995,1.6365206772303331,0.13018852049145543
31.151512,1.6383093064938905,0.12952738241674133
31.156099999999995,1.6412417396333863,0.12876208669195383
31.160692,1.6386553813728497,0.12829503626773447
31.165288,1.6351695886646653,0.1278706968403845
31.169875999999995,1.6311509156512696,0.12739372212922812
31.174468,1.632118153732696,0.12657699299405106
31.179056,1.6337404568334795,0.12579760202172172
31.183651999999995,1.633563891038967,0.1251018403280072
31.18824,1.6312219022067216,0.12457981865473942
31.19284,1.629779347822124,0.12400927899554808
31.197427999999995,1.630624401189405,0.12322026395816785
31.202023999999994,1.6332683234519818,0.12236896617014963
31.206616,1.6355456915721216,0.12159953468896831
31.211203999999995,1.639499743873411,0.12078133390146192
31.215792,1.6407996342803852,0.12026412704260064
31.220384,1.6449200127444488,0.11960741897717653
31.224979999999995,1.6476522179042816,0.11910369650290467
31.229572,1.651450183674536,0.11870624510554245
31.234164,1.655658845035856,0.11841378427556964
31.238747999999998,1.6595009522547386,0.11821007717579864
31.243336,1.6697612853213022,0.11772833383741863
31.247916,1.678999999226072,0.11731773555184628
31.252516,1.6924915159407898,0.1167759544583792
31.257107999999995,1.7106023896078926,0.11604701212337117
31.2617,1.7333326202273804,0.11514909315492287
31.266292,1.7520985589138396,0.11451124015911832
31.270888,1.7695985090102138,0.11400180058176225
31.275476,1.788530773859447,0.11350770015703136
31.280072,1.811427330641708,0.11282303498181123
31.284664,1.837799440500415,0.11205991658532856
31.289252,1.8649488000926242,0.11130496842740874
31.293848,1.8904214755036837,0.11062481822666007
31.298435999999995,1.9190811931142693,0.10976231319657265
31.303024,1.9446760532394742,0.10905245587080183
31.30762,1.9734579555642058,0.1081508980783841
31.312208,1.9995415545459934,0.10736728932982112
31.316812,2.028201272156579,0.10650393161926511
31.321392,2.057105359195456,0.10559725955028082
31.325987999999995,2.0785696012248587,0.10496152597892751
31.330568,2.1010554624160553,0.10427531707045062
31.335168,2.1179003474930727,0.10381549525832272
31.339752,2.132946363674795,0.10340204376757273
31.344356,2.1475816842654525,0.10292876661255357
31.34894,2.1583748976372266,0.10262245815019108
31.353531999999998,2.165326003790118,0.10247423319185289
31.358128,2.168312818009981,0.10249160820596889
31.362724,2.1706445672104877,0.10248644850338798
31.367312,2.1752639241628726,0.10233939173256981
31.371904,2.1739979355727876,0.10243431526032022
31.376496,2.1699114589256134,0.1026235430829996
31.38108,2.1658249822784392,0.10281025300906337
31.385667999999995,2.1603503323270346,0.1031104710023756
31.390255999999997,2.1527102593378973,0.10352031673045202
31.394848,2.151854966338877,0.10367570242250393
31.39944,2.150877488625712,0.10384983187482141
31.404031999999997,2.1505550759319028,0.10404496159120237
31.40862,2.1504770326663856,0.10419570926783926
31.413216,2.14643469746784,0.10450154196064318
31.417796,2.1509760111547074,0.10452222405029417
31.422383999999997,2.1525746520703395,0.10465203407300849
31.42698,2.1540511082718266,0.10480536605320685
31.431568,2.1618236056068483,0.10479824879171087
31.436172,2.167308495189992,0.10492468079932238
31.44076,2.1720161350396334,0.10505143280780302
31.445348,2.173903286832185,0.10527132201531851
31.449948,2.1846184569384417,0.10514455327063775
31.454539999999994,2.1963552462064917,0.10497499040608735
31.459135999999997,2.204127743541514,0.10496787314459137
31.463724,2.2165195978289205,0.10481884722610028
31.468324,2.2310768751540597,0.10456294335127542
31.472904,2.2448569027456973,0.10431187885167274
31.477504,2.259902918927419,0.10397352070765266
31.482091999999994,2.2753154892515783,0.10357124522620687
31.486692,2.281367160956822,0.10345935881509749
31.491284,2.2857421484809155,0.1033721905091057
31.495872,2.284598344604976,0.10343883611277725
31.500463999999997,2.2836989101573284,0.10346100997879353
31.505056,2.287907571518648,0.10326198421751522
31.509656,2.2826331495469065,0.10337493684238958
31.514256,2.2824668233841328,0.10326688070598891
31.518848,2.290351265801561,0.10284183033047464
31.523439999999997,2.293860720694896,0.1025105567011976
31.528028,2.3014566522354056,0.10201976422551577
31.532616,2.309052583775915,0.10152384981293339
31.537204,2.3233111105923965,0.10082713108102295
31.541799999999995,2.329763238256967,0.10040142093719412
31.546392,2.336093181207391,0.1000010499411139
31.550984,2.343444743319609,0.09955788482516409
31.55558,2.349363990678968,0.0990979960845017
31.560168,2.351196761391153,0.09879550973254546
31.564764,2.352662977960901,0.09855327743422541
31.569351999999995,2.3511865217594146,0.09840860908638283
31.57394,2.3492213267013446,0.0983450288189562
31.578543999999997,2.356617030262191,0.0980276100447937
31.583132,2.3628689299470973,0.09776859471772911
31.58774,2.3768050440697697,0.0972652204676998
31.592324,2.389475169602357,0.09684764215541736
31.596912,2.401001491259005,0.09649986435006563
31.601507999999995,2.419312592905771,0.0959261546317902
31.6061,2.4354582715148045,0.0954704434225433
31.610692,2.4425315623818413,0.0953468439024168
31.61528,2.448461049372939,0.0952798523043315
31.619884,2.449648994697506,0.09534252890313438
31.624464,2.4549234166692475,0.095258962701167
31.629064,2.4526358089173694,0.09537059579641552
31.633655999999995,2.4534130586508716,0.09537268991227991
31.638259999999995,2.4495709514319888,0.09548458139895273
31.642852,2.4439299753178108,0.09563453914546172
31.647436,2.4371451953276932,0.09584295618982165
31.652032,2.4345690766988954,0.09587738477008444
31.656628,2.4306828280313844,0.09586831773542821
31.661232,2.426918764078019,0.09584006293222258
31.665828,2.422744004533589,0.0957483388041275
31.670416,2.412151019141478,0.09580615802212973
31.675011999999995,2.401025153444156,0.09582315102074243
31.6796,2.387200984403891,0.09588795121447331
31.684188,2.373987738934354,0.09584759360273012
31.688776,2.3584427442643103,0.09579709135363831
31.693372,2.3401994462513227,0.09579238637838967
31.697964,2.318358410447744,0.09586107505359104
31.702555999999998,2.2981499173766875,0.09579609457987773
31.707139999999995,2.278552347876359,0.09562359299239342
31.711724,2.2582997133566742,0.09542823737683762
31.716316,2.234860036637463,0.09536140805009838
31.720904,2.2125641637941915,0.09524387124124041
31.7255,2.185893303426826,0.09520339522914802
31.730096,2.1624094852589866,0.09501726852290651
31.73468,2.1418683398623823,0.09472214730009151
31.739287999999995,2.121693748608215,0.09435388573758798
31.743868,2.09305769318278,0.09423771774648101
31.748456,2.0664648760809325,0.09401894559713124
31.753052,2.0412602322833147,0.09367812298953211
31.757644,2.0191204459710774,0.09318977419816238
31.762248,1.996081225211193,0.09271645647081489
31.766844,1.9758624925083976,0.09214912093544678
31.771435999999994,1.9576869981291891,0.09148790479349823
31.776019999999995,1.9400443840551915,0.09087124363348252
31.780612,1.9249778886099917,0.09021680179339366
31.785196,1.9115880773459424,0.0895476726500151
31.789796,1.9001193196913342,0.08881204386664637
31.794391999999995,1.8891834423419367,0.08811982471311923
31.79898,1.876737206974163,0.08755501557243398
31.80356,1.8686659591304828,0.08692163413045095
31.808148,1.8599396462674465,0.08625456335575643
31.812728,1.8545667017667098,0.08555999850199171
31.817316,1.857288667294804,0.0847032935060727
31.821904,1.8634861858993437,0.08381540304371952
31.826491999999995,1.867884835608588,0.08296567906514525
31.831076,1.8746152345183384,0.0821457349228302
31.835668,1.8934048353899484,0.08104406087482269
31.840264,1.9123607624243317,0.08008009139962448
31.84484,1.9317273850497807,0.079200134789825
31.849436,1.9465187921714728,0.07857471665007305
31.854023999999995,1.965807371531404,0.07787381781953456
31.858619999999995,1.985628831196546,0.07724958173725892
31.863215999999998,2.0011194447862226,0.07682506135400718
31.867796,2.0119907014235143,0.07648735198825968
31.872387999999997,2.022617588632515,0.07620286238372195
31.876971999999995,2.0332444758415154,0.07592505447773931
31.88156,2.047713470269398,0.07556186470954827
31.886163999999997,2.066024571916164,0.07511413703241754
31.890756,2.0893215846577515,0.07452508550293324
31.895348,2.109675924628105,0.07402009719857548
31.899928,2.131706948779608,0.0735209296488356
31.904528,2.155248330949487,0.07292041738428914
31.909112,2.175969225062277,0.0723985159958529
31.913715999999997,2.1939918158321237,0.0719239078944336
31.918308,2.21369109078312,0.07145681972677581
31.922904,2.231958050981258,0.07095864814777819
31.927488,2.2454834695128647,0.07056567277229911
31.932084,2.2594976269010547,0.07009953105420987
31.936688,2.2755550226128314,0.06958716633267531
31.941275999999995,2.293122776342985,0.0689604892260573
31.945868,2.3078700420160487,0.06838160036867985
31.950456,2.318242320165019,0.06782098588546522
31.955048,2.3320460099418066,0.0671210976163508
31.959632,2.3496918069374773,0.0663402661733604
31.964223999999994,2.3670490930562282,0.06548272521823609
31.968824,2.382074629974473,0.06459407211846145
31.973412,2.391581375492685,0.063773372145859
31.978008,2.3967131334868026,0.06297336491035763
31.982595999999997,2.3962039153667423,0.06224812131467389
31.987188,2.3982266744268514,0.06140052077380599
31.991784,2.397673314858163,0.060547613316526624
31.996368,2.395198901680034,0.05973144651702895
32.000955999999995,2.3892489354254582,0.05890758422678645
32.005551999999994,2.3795790466661457,0.058105683456534885
32.010127999999995,2.3664336048303873,0.05729226767184488
32.014731999999995,2.3502233055092483,0.05653568479302965
32.01932,2.3295158339498703,0.055785095961361025
32.023896,2.3061100590475485,0.0550348183608898
32.028492,2.2810275999640766,0.05426745719796638
32.033072,2.2568445753282522,0.05348818933414474
32.037668,2.2339275392825133,0.052641348329987445
32.042247999999994,2.210888318522629,0.05179279579752015
32.046844,2.187604728334453,0.050980235248207426
32.051432,2.165997822327427,0.05018618865546821
32.056031999999995,2.1390384510831426,0.0495135995701407
32.060616,2.1144108290393637,0.04888506587142057
32.065208,2.0940360098055333,0.048286692795807655
32.069807999999995,2.0741940708769135,0.047735148856587944
32.0744,2.0569282505770916,0.047193970482871266
32.079,2.0383964416871847,0.04670492228645004
32.083592,2.0206418825307804,0.04622549885127236
32.088179999999994,2.0005997156224975,0.04581799727490669
32.092772,1.9840331017906605,0.045425102649268995
32.097359999999995,1.9736403443782127,0.04505480132090684
32.101948,1.966723140042211,0.044702946563941574
32.106536,1.964669662086885,0.044293540473454455
32.111112,1.965192302760357,0.04389942713528741
32.115696,1.9654705740055378,0.04354062559253721
32.120284,1.9615401838893989,0.04327514504466099
32.124868,1.95928647795441,0.043036306106460816
32.129456,1.9558889681434815,0.04283564743133866
32.134044,1.956333565551436,0.0426005302149466
32.138639999999995,1.952813871026362,0.042416531069331555
32.143228,1.945696438710697,0.04222023641361187
32.147816,1.9413994944521207,0.042005092705074645
32.152412,1.9321166390987226,0.04186359502069658
32.157011999999995,1.919358230668879,0.041687192187112275
32.161604,1.9085208758484768,0.04149287765245972
32.166191999999995,1.897028456008718,0.041246838463544266
32.170787999999995,1.882348993969433,0.041077762337504174
32.175368,1.866403543340063,0.04097355167241295
32.179964,1.851601896586632,0.04082299028744134
32.184552,1.8341019464902575,0.04065635503722477
32.189152,1.811205389707996,0.040466856601036764
32.193735999999994,1.7874093984780868,0.04026882364974101
32.198339999999995,1.7546632042203272,0.04020067052643626
32.20292,1.7221613793908588,0.040070510792071225
32.207516,1.6905589890090387,0.039940253189904476
32.212104,1.6638203250078947,0.03975654351804252
32.216696,1.6323401193402196,0.039598584052892724
32.221284,1.5995939250824598,0.0395150135512397
32.225871999999995,1.562883438891672,0.03948425163114096
32.230448,1.5251513335390903,0.03948792034217268
32.23504,1.4862754243105694,0.03953982831087904
32.239636,1.450220003139138,0.03958334277525428
32.24422,1.4164521897195845,0.039522708355798616
32.248819999999995,1.383705995461825,0.0394090009780661
32.253408,1.3462182595375347,0.03932063112451625
32.258,1.3056656661278638,0.03929049367925713
32.262584,1.2672784957559255,0.03917051287631344
32.267171999999995,1.2284806297929223,0.03887891630443149
32.271776,1.1895605791157733,0.03860257920535873
32.276363999999994,1.1493745398485393,0.03663913623259846
32.280956,1.1091885005813056,0.03469120210342203
32.285552,1.0670814077046304,0.03277011277159181
32.290136,1.0330250834081576,0.03077482745485876
32.294743999999994,0.9957817169121589,0.02884453826199625
32.299332,0.9587827198444513,0.02692048863800659
32.303923999999995,0.9180638002720067,0.025019876654735696
32.308504,0.8773448806995621,0.023108818118311298
32.313104,0.835071461660113,0.02114772338310321
32.317691999999994,0.7947190962301054,0.019172547182111106
32.322292,0.7565321538378305,0.017152558706341057
32.326876,0.7192446458932036,0.015113697172265133
32.33146,0.6784815848721307,0.013068960960419096
32.33604,0.6375963391369123,0.011074477952533565
32.340632,0.5935240512021674,0.00916426925349702
32.345232,0.5504733824292163,0.007248469532846892
32.349824,0.5121642553227956,0.005326162058168932
32.354412,0.47348857407393796,0.003459093068095228
32.358999999999995,0.4381662611873804,0.0017223251192724875
32.363588,0.4048871866244098,0.0
32.368176,0.37262973122323295,0.0
32.372768,0.3431927638791451,0.0
32.377351999999995,0.31363361182091176,0.0
32.381944,0.2837079056202414,0.0
32.386536,0.2584015563719559,0.0
32.391127999999995,0.23170703381943983,0.0
32.395716,0.207832999324013,0.0
32.400304,0.18894487592340814,0.0
32.4049,0.17737441281813177,0.0
32.409488,0.16760281860815107,0.0
32.414096,0.16040734302696824,0.0
32.418684,0.15627672493116596,0.0
32.423272,0.15549947519766377,0.0
