Time,Force,Position
31.664388,0.09774084258153999,0.0
31.66898,0.09455380038201376,0.0
31.67356,0.08955848710105013,0.0
31.678152,0.08300867435308212,0.0
31.682740000000003,0.0765810463192598,0.0
31.68732,0.07105285273308533,0.0
31.691916,0.0652802897186195,0.0
31.696508,0.05848610754236017,0.0
31.701096,0.05271354452789436,0.0
31.705692,0.050470078224644124,0.0
31.71028,0.04798224249310254,0.0
31.714872,0.042062995133744306,0.0
31.719464,0.03490225881504796,0.0
31.724064,0.03377893420258726,0.0
31.728644000000003,0.03765176031668729,0.0
31.733244,0.04844179076678941,0.0
31.737836,0.06729282942883281,0.0
31.742436,0.09330544185516967,0.0
31.747032,0.1250473132929413,0.0
31.751632,0.1616190092944998,0.0
31.75622,0.20805058240329533,0.00877708439169841
31.760816,0.26188809870467566,0.017450299007983103
31.765404,0.3228965909564911,0.025947224419362064
31.770000000000003,0.3892677880773043,0.034424457482573195
31.774604,0.4638221781242044,0.042627558019287116
31.779196,0.5454159572212524,0.05074033392165667
31.783788,0.6311064525972131,0.0590195857878362
31.788372000000003,0.7208936642520868,0.06745012203812478
31.792964,0.814899776900019,0.07598845700503228
31.797548,0.9135599857628226,0.084456471045903
31.802136,1.0169278344752675,0.09283592584159212
31.806728,1.126924376646794,0.1012831826327793
31.811324,1.244913285950887,0.10953150341103346
31.815912,1.362750129091214,0.11760287810394626
31.820512,1.4737919526096848,0.12569352694798588
31.8251,1.5788160062398011,0.13378417579202548
31.829692,1.677577920553272,0.14183253582343006
31.834288,1.7698333261218058,0.14986203378927734
31.838876,1.8596686995925769,0.1577425668163662
31.843484,1.9445079223367872,0.1655564555761299
31.848072,2.0179327685067556,0.16466792032053756
31.852664,2.0839075300355123,0.163873471978521
31.857248,2.143864521675914,0.16318680211652842
31.86184,2.2005020467709047,0.162395912554254
31.866432,2.2453586411492172,0.1620384565721431
31.871012,2.2827651508863167,0.1617197718367887
31.875612,2.317707487077026,0.16105750117886564
31.8802,2.3481424113977565,0.16019213555310885
31.8848,2.373947739134363,0.1591668054292371
31.889388,2.392058612801466,0.1582206320178985
31.893984,2.4023528476849187,0.1573720700721407
31.898576,2.4109601587554828,0.15621932575909486
31.903172,2.4113842768999603,0.15522625523575617
31.907764,2.4094766458439305,0.1542972840340283
31.912352,2.407813384216192,0.15331738076291268
31.91694,2.4026745695120084,0.15246165906521694
31.921536,2.393282951997876,0.1517559672303955
31.926124,2.3825812044450316,0.15103634264885774
31.930716,2.3708578377303926,0.1503783700042682
31.935308,2.3579906671398154,0.1498018953858021
31.939896,2.343979692673299,0.14931209008895682
31.944484000000003,2.330379413797847,0.14887409525738154
31.949076,2.3174341999417516,0.1484375528168433
31.953672,2.2998696291332714,0.14822661020987865
31.958248,2.287046599991322,0.14776262021559097
31.962848,2.2747564511545835,0.1473248651320363
31.967436,2.2589127059758813,0.1471750727002055
31.972028,2.2406591683311556,0.14723780273060547
31.976624,2.2207730879539076,0.14750150629497794
31.981212,2.2020749529012273,0.14781155024506334
31.985808,2.181744275116025,0.1483498696681833
31.990396,2.1556945779511265,0.14937744746416276
31.994984,2.1305884566825046,0.15050466125834125
31.99958,2.1036054232530694,0.1518952391575165
32.004168,2.0784654001675578,0.15332106907080742
32.008764,2.0621975368443786,0.15428729869816676
32.013352,2.0498159221887104,0.1551778881485466
32.017948,2.0374784489816706,0.15621487662570982
32.022536,2.0215873794326678,0.15759646361280572
32.02714,2.006884255208232,0.1590233599971915
32.031724,1.9990100524225418,0.16014930615779108
32.036332,1.9953886524467999,0.1610750115003432
32.040924,1.9911563289003296,0.16212482384869856
32.04552,1.9947745459543984,0.1628007859232308
32.050112,2.000724512208974,0.16341144102126468
32.054708,2.0061857396069667,0.16412166752698887
32.059296,2.0130792817578183,0.16482080344376981
32.063892,2.0252472458804114,0.16527190550073634
32.06848,2.0412573172218873,0.165486068936679
32.073076,2.0604544307628894,0.16547142639512202
32.077664,2.0836158362369193,0.1651787698292776
32.082252,2.110497164215687,0.1646387426108032
32.08684,2.1376228616227455,0.16403834161735567
32.091432,2.1649929284580955,0.16335100478159853
32.096024,2.1912972346830237,0.16261396758552468
32.100616,2.2122049342220653,0.16221234910196258
32.105212,2.2329463075983327,0.1617098223767256
32.109792,2.2535213548118262,0.16108788343780478
32.114384,2.2758511294719876,0.1602027868931945
32.118964,2.299813446864671,0.15913284574883874
32.123556,2.320788950037491,0.15815743847646369
32.128168,2.3358349662192133,0.15743460653732816
32.132756,2.3491601567711573,0.15664191217047313
32.137352,2.3548791761508534,0.15617295991858401
32.141948,2.355812512415391,0.1558502835490579
32.146548,2.357478956964802,0.15538122729645856
32.15114,2.3592234447797304,0.1547574240518674
32.155732,2.3581033030889422,0.154165558276367
32.160328,2.354651412197647,0.15363010780504513
32.164924,2.344781295458671,0.15341030193401928
32.169516,2.3352777328621324,0.15311456450872507
32.174108,2.3296943207499936,0.15246509172151754
32.1787,2.3272979508373814,0.1516168854417062
32.18328,2.3253903197813517,0.15067222786852047
32.187884,2.3227054389918202,0.14974050727670243
32.192476,2.3161343095347773,0.14886982121088324
32.197076,2.306864876734791,0.148106619233074
32.20166,2.2995164975442464,0.14724154244843723
32.206256,2.294333541391434,0.14623081588858775
32.210864,2.2850199671428197,0.14533158350096148
32.21546,2.2741518934272014,0.14445252815959927
32.220048,2.262750939406372,0.14352496399335024
32.224648,2.2513499853855423,0.14258452223174367
32.229236,2.239949031364713,0.14162855705512556
32.233832,2.228303707915592,0.14071032418527962
32.238424,2.2157589500188233,0.13982512833692556
32.243008,2.2060346801791435,0.1387937776411461
32.247596,2.19528879117767,0.13781400812283168
32.252192,2.184665086890343,0.13680032975023146
32.256784,2.1768618706601046,0.1356294430951426
32.261376,2.167259785534571,0.13453412368945655
32.265968,2.150384181562337,0.1338968236053243
32.270544,2.128889220637718,0.1334539923606742
32.275124,2.1081715094466005,0.13299045029873086
32.279708,2.0883532327031316,0.13248021199992624
32.284296,2.074342258236615,0.13181105718080352
32.288884,2.0672823899229895,0.1309110552537927
32.29348,2.0572798488381294,0.13015851362221745
32.298068,2.0467885688966865,0.1295004140471729
32.302672,2.037363049565665,0.1289125815598114
32.307256,2.0311687138827983,0.1282609828677515
32.311852,2.0297600613150903,0.12752588470792284
32.31644,2.031460407681391,0.1267564902326705
32.32104,2.039212425752935,0.1258143170878883
32.325628,2.051339431348573,0.12474503356522151
32.330232,2.065020936411215,0.12366746441310139
32.334816,2.077069898741335,0.12278738926386412
32.339416,2.0942710983290516,0.1217929648193505
32.344012,2.1127824279554805,0.12084089723943756
32.348604,2.133092626477205,0.11984048406580347
32.353184,2.1577778125230234,0.11875495178257832
32.35778,2.1852834866259307,0.11754012387056582
32.362376,2.2123004218722553,0.11639129902359834
32.366972,2.2393173571185807,0.11525643448039893
32.37156,2.265068303774821,0.1142226841834037
32.376148,2.288365316516409,0.11324824226812326
32.380736,2.3063879072862554,0.11244711337590342
32.385332,2.328130420560839,0.1115250443996527
32.389924,2.347296815206624,0.11066124377525824
32.394516,2.366829763994847,0.10972094753160151
32.399112,2.38468602860192,0.1088294046502304
32.4037,2.4032754014938664,0.10783832368769714
32.4083,2.4194108404711607,0.10688708676653041
32.412876,2.4302718574767135,0.1060710171705423
32.417468,2.4384345711393225,0.1053373934684653
32.422064,2.44582003506843,0.10461184420479967
32.426652,2.452794803406472,0.10383128244795922
32.431244,2.452574096163331,0.10322277073777644
32.435836,2.451576139186688,0.1026174294475167
32.440424,2.4504559974958995,0.10203715420716555
32.44502,2.4418960107956367,0.1016584186099463
32.449608,2.4360343274383176,0.10122221936930195
32.4542,2.4378568585187637,0.10056180878509907
32.45878,2.442255508228008,0.0998744717099038
32.46338,2.4513956996037827,0.0990696998152018
32.467976,2.4627454554659183,0.09829257091501507
32.472576,2.4766713299568517,0.09748899902085556
32.477156,2.489453400571846,0.0967529949904667
32.481756,2.508287142892084,0.09595042968577872
32.48634,2.52969700384112,0.09512596851304014
32.490936,2.5517619298095124,0.094329278598119
32.495528,2.5747704316741804,0.09365421278520927
32.500124,2.6003550521676475,0.09296057828610466
32.50472,2.6291708563092677,0.0922615078431201
32.50932,2.65684285657495,0.09160887452212671
32.513912,2.6850477371458417,0.09099965114982903
32.518512,2.712763878860151,0.09046454174159436
32.523092,2.744610638670263,0.08989492984269865
32.52768,2.7753135946044356,0.08937253836681898
32.532268,2.8060165505386077,0.08886149663334975
32.53686,2.8441593514822543,0.08820006678979674
32.541456,2.8787044146353096,0.08761141017322889
32.546048,2.9046658289029517,0.08723365539676543
32.550644,2.9298499934370916,0.08686978126164097
32.555224,2.948493747409405,0.08663526208018094
32.559816,2.967504055524156,0.08635904230883629
32.564404,2.982794441134169,0.08614996770737615
32.568988,2.9964081425630327,0.08595014980481168
32.573584,3.002049118677211,0.08584528015619351
32.578172,3.0069128450578875,0.08573885885539641
32.582772,3.010344256685705,0.08560860603276384
32.587364,3.0070689315889227,0.08550679301564093
32.591952,3.0000736839874036,0.08546664967695002
32.596544,2.991890491061316,0.08536850551831202
32.60114,2.9858727211729623,0.0852004215245077
32.605736,2.9783004518176033,0.08502298865509922
32.610324,2.9737930399476253,0.08476666416462172
32.614924,2.96977436693423,0.08444957482338485
32.619512,2.9707416050156565,0.08402130860199428
32.624116,2.9709315933635807,0.08359001851412255
32.628708,2.964214617007242,0.0833072159457132
32.633308,2.9572532712226116,0.08305377774757061
32.637896,2.9551556518186577,0.0827019159605994
32.642488,2.951792043824619,0.08240862464204683
32.64708,2.9539472272306124,0.08203970134443238
32.651676,2.9511164995417842,0.08178110543266508
32.656272,2.948163587138811,0.08153524526161263
32.660872,2.951628900583518,0.08120739739838112
32.665464,2.9621675048952616,0.08081513298260332
32.670056,2.972339555064569,0.08047166023112469
32.674644,2.9847211697202365,0.08016159389618922
32.679232,3.0023772063476457,0.07980797018461903
32.68382,3.0237531654797927,0.07940143222277243
32.688408,3.0432522124511263,0.07912377133556746
32.692992,3.0604636516705814,0.07892594217214575
32.69758,3.079351775071186,0.07872484715923884
32.702164,3.0954194104147024,0.07857312067352312
32.706748,3.111364861044072,0.07844047377663386
32.711328,3.122446585292766,0.07840012465504716
32.715936,3.1358600587419665,0.078379257951517
32.720524,3.1554032471619267,0.07822039232973242
32.725136,3.1780112930672693,0.07799463142640134
32.729724,3.1975544814872303,0.07783960175150943
32.734316,3.209780009611863,0.07776082621824229
32.738912,3.2163645616223175,0.07776382948415547
32.7435,3.2290788286035332,0.07762787236000275
32.748104,3.2478006258413643,0.07737185582472131
32.7527,3.257405893888571,0.07721814833773749
32.757304,3.257894632745154,0.07716045335515992
32.761884,3.2609153487819063,0.07700244872173141
32.76648,3.2605826964563587,0.07684793941402275
32.771072,3.2567744910543652,0.07671074612092757
32.775672,3.2529662856523722,0.07657448876357334
32.78026,3.2546327302017835,0.07629094625996347
32.78486,3.260507836112515,0.07591091521668397
32.789448,3.265727877003889,0.07551265700617321
32.794044,3.266983625962235,0.07518056088577244
32.798624,3.2691388093682288,0.07484440480107335
32.80322,3.273215046383664,0.0744803435835089
32.807808,3.2709952422655646,0.07416570387641509
32.8124,3.264811146214436,0.0739221007825015
32.816988,3.2594042998968105,0.07368732622667334
32.821576,3.25411963829333,0.07343810049924003
32.826164,3.2584402447370566,0.07304788183615415
32.830756,3.2686461967232527,0.0725616390053958
32.835352,3.273499683472191,0.07220751451610369
32.839944,3.2712018360885735,0.0719972723511512
32.844536,3.2734011609431954,0.07175133858339856
32.849116,3.2840619499690855,0.07139974635395073
32.853712,3.2902697082053636,0.07117494332387427
32.8583,3.2990535850704403,0.07094327864565178
32.862892,3.3140113183549063,0.07068331436293461
32.8675,3.3261485635822825,0.07045793584369943
32.872088,3.334199332162485,0.07031595729300143
32.876684,3.3375085590761575,0.07023207916817854
32.881268,3.3442933390662746,0.07014007180944187
32.885856,3.359128887636595,0.0699128195471686
32.890452,3.3693450792545305,0.06972651668408937
32.895044,3.3757191636535824,0.06958775063283648
32.899648,3.386301909413955,0.06935905419082875
32.904244,3.3961074054408247,0.06912083772952488
32.90884,3.398350871744075,0.06896730453413161
32.913416,3.4045586299803534,0.06875262725439003
32.91802,3.4107663882166324,0.06854387202071596
32.922596,3.4110888009104414,0.06841876517163847
32.927196,3.411899952460833,0.06823941609082652
32.931788,3.4171641348008355,0.06794491803905436
32.936384,3.419730013797895,0.0676661341596292
32.94098,3.4213964583473064,0.06739707607901772
32.945564,3.4225300225915065,0.06709123872976676
32.950164,3.422109087368703,0.0667695279717528
32.95476,3.4143704918505704,0.06650228527915139
32.959352,3.404955212151288,0.06622921622730098
32.963944,3.3918200099472675,0.06598798465230861
32.968536,3.379584242190896,0.06573934209966326
32.97312,3.360030814139196,0.06554463882224325
32.977712,3.3344698558308803,0.06544296167210314
32.982304,3.3091532669508563,0.06531264840128902
32.9869,3.2871459049845044,0.06509615337033595
32.991488,3.2664486730568645,0.06492168271290369
32.996084,3.247794679452812,0.06470727752575466
33.000664,3.235270400819521,0.06438025624209867
33.00526,3.2141624733008167,0.06414676408524304
33.009844,3.1872913849537876,0.06397914281777503
33.014432,3.162585719644492,0.06375898164896662
33.019028,3.141844346268224,0.06347479663563343
33.02362,3.122657472358961,0.06320740335562991
33.028208,3.107312705668581,0.06289463308104955
33.032804,3.090291254797051,0.06257431629286207
33.037392,3.077111911144403,0.06221108468905656
33.041996,3.062788763615816,0.06187484981898683
33.046584,3.051408288858464,0.06149784950078204
33.051184,3.044647171053497,0.06108872154941819
33.055772,3.0428719643433517,0.060604627869126064
33.060364,3.0412189423473523,0.06010436840511178
33.064948,3.042630777836733,0.05954580528986877
33.069548,3.0423659291449643,0.05896998614858863
33.074132,3.049418740748524,0.05835984207140801
33.078728,3.0561049982096464,0.05779452126502145
33.08332,3.0643016136891457,0.057168854314889266
33.087916,3.0731532941879993,0.056572296337731184
33.092512,3.0799617363632668,0.056011071861242163
33.0971,3.0944543929762998,0.05537134078857144
33.101688,3.111889722360567,0.054692933246407324
33.106288,3.1341887781255107,0.053976782561852614
33.110876,3.1525235419574273,0.053315142035879844
33.11546,3.1663611335511033,0.05266759309469903
33.120052,3.1753349987641033,0.05206829903810999
33.124648,3.181244006491723,0.05151015857035241
33.12924,3.1833109070004606,0.05098525705728104
33.133832,3.186521611385136,0.05042809525997945
33.138428,3.1858902085509286,0.04989629941481929
33.14302,3.180639448764337,0.04938104561959405
33.147616,3.1743670698159514,0.048881345116106006
33.152204,3.1669508869916267,0.04840510168329448
33.156796,3.158268715577218,0.047966150328919065
33.161392,3.153961531686902,0.04753555222074002
33.16598,3.141070698911173,0.04716372243981474
33.170576,3.127280431687796,0.04678998099806634
33.175164,3.10646101504601,0.046496343430034386
33.179752,3.082821110347136,0.04621454274278741
33.184352,3.0571379673246746,0.04595513611700904
33.18894,3.0304332051404193,0.04570620540312153
33.193544,3.0046278774038124,0.04545412078932324
33.19814,2.9706495963728576,0.045305951388422985
33.20274,2.93757074978955,0.04515389117683916
33.207332,2.9013048610067167,0.04505323365201598
33.211932,2.86708221054747,0.04491997387072558
33.216516,2.834658428983519,0.04478643737491177
33.221116,2.799169789934188,0.04469343513332219
33.225696,2.764458400618359,0.044610516623668155
33.230288,2.7343663682549146,0.04451476692107163
33.23488,2.707872073682062,0.044419694720936674
33.239464,2.6795789102139134,0.04431514706627066
33.244048,2.6532068003552065,0.044195661161551825
33.248648,2.628633559391795,0.04407810985372688
33.25324,2.6004625806377915,0.04395333137690427
33.257832,2.57253597131208,0.04379166972657738
33.262412,2.541666689215133,0.04365373641329365
33.267004,2.5106752224040414,0.04353301377041855
33.271588,2.4796837555929487,0.04340968065867826
33.27618,2.4495917232295046,0.043284679964711206
33.280764,2.4155353989330317,0.043201674964500926
33.285344,2.3736726754846478,0.043194300346065556
33.289932,2.3330759406263493,0.04313984658997336
33.294516,2.2941558899492005,0.04310439602120217
33.2991,2.2609990001003757,0.043023809597026334
33.3037,2.2235112641760857,0.04305629712622463
33.308288,2.182303605747059,0.04310561532863994
33.31288,2.1448158698227684,0.043151424218365236
33.317472,2.103486026679595,0.04323419200147465
33.32206,2.0575368265840375,0.04332722180787369
33.326656,2.006846084821949,0.04345813099277334
33.331232,1.9545228003273383,0.04374138844375556
33.335832,1.901177896670934,0.04404176445141876
33.34042,1.8452568743857323,0.04431157933420582
33.345016,1.7920341554434738,0.044587648207480075
33.3496,1.742286989577661,0.04489019388464874
33.3542,1.6963819309307313,0.045153036614037675
33.358792,1.6526422953215343,0.04535485666257209
33.363384,1.6080032252646892,0.045558153807990436
33.367964,1.5632419704936988,0.045798473132223946
33.372556,1.5165596621132669,0.04609768429439612
33.37714,1.4757626992753048,0.046312396822162115
33.381736,1.4386856589420796,0.04649634688109632
33.386312,1.3969892616564696,0.04671486475104752
33.3909,1.3523501915996246,0.04699424212281507
33.395484,1.3097543598663668,0.047284681581334004
33.400084,1.2725551348189958,0.04760127555276739
33.404676,1.2354780944857708,0.04789800325674278
33.409264,1.202898226390785,0.04821570437033077
33.413856,1.1708512386010101,0.048692546856174204
33.418436,1.1415025541541786,0.04920278587058123
33.423028,1.112520423849784,0.04967736858107765
33.427624,1.0834161088312446,0.04725558637969283
33.432212,1.0538230549561232,0.04486436530318415
33.436816,1.0202657091479728,0.04247314422667546
33.441404,0.986586178625677,0.04008192315016677
33.446004,0.9556049514463244,0.03772207097156774
33.450596,0.925156604572183,0.035395422317516856
33.455184,0.8992054299362806,0.03307190872857501
33.45978,0.8731320705862327,0.03071614292184517
33.464356,0.8526996873503631,0.02828884984878393
33.468956,0.8336996188673522,0.02589929694550859
33.473544,0.8098358240036652,0.023547013582105907
33.478144,0.7857276597116867,0.021157951819452358
