Time,Force,Position
30.821887999999998,2.281888440613518,0.043681917192902674
30.826468,2.1251866187431285,0.04360043975019416
30.831052,1.9737592188444806,0.04133981679277977
30.83564,1.8238863184128369,0.03909631544177632
30.840232,1.6896703577336438,0.03684122747233847
30.844828,1.5598293845785445,0.03460493780024434
30.849416,1.4437242975664542,0.03236650634354603
30.854008,1.3369801091732794,0.030136300306026327
30.8586,1.2427058183330288,0.027933373960448135
30.863192,1.1591466975990352,0.02571236025613438
30.867776,1.0873685075817208,0.02679134630972646
30.872364,1.0290479324622346,0.02848194052115405
30.876976,0.9828748422018635,0.030554041035498858
30.88156,0.9421866415246362,0.03319481452146053
30.886152,0.9120914262395199,0.036194491626714176
30.890736,0.8904679147574099,0.039724433826625875
30.895328,0.8809918881344154,0.043428864406531084
30.899919999999995,0.8794546850092166,0.04748794241020747
30.9045,0.8836467408954526,0.051896112932304325
30.909099999999995,0.9088142999545085,0.055935622719854666
30.913688,0.9397111180249992,0.06011722908472275
30.918288,0.9828776056687508,0.06427406573533563
30.922875999999995,1.0384359475999092,0.07056809013005105
30.927468,1.1039763513524505,0.07700943964109622
30.932052,1.1702601030216044,0.08370125128093699
30.936648,1.2421509289880472,0.09050094786039668
30.94124,1.312331168956451,0.09751998529731296
30.945836,1.382233137679674,0.10473757228977121
30.950432,1.4486256515095617,0.1122334724166645
30.955032,1.5204928152908541,0.11948659023125782
30.95962,1.5907171967078853,0.12332631788677731
30.964216,1.6546794388082708,0.12664815328705217
30.968796,1.7145891060783713,0.12960880274740913
30.973384,1.7807065315847508,0.13175116531361966
30.977972,1.8469020003566474,0.13350832263097487
30.982564,1.9078569489736923,0.1349016179511546
30.98716,1.9633270080075933,0.13610617576296796
30.99174,2.0163770349437318,0.13692595566132854
30.996336,2.0699938440019703,0.1373406416685934
31.000924,2.11547160158275,0.138024281968484
31.005516,2.1559973498855975,0.1386320831727704
31.010112,2.190427285034573,0.13927395685830643
31.014696,2.2208046453532635,0.13985280575866751
31.019288,2.2468409199647503,0.14026253840426067
31.023883999999995,2.2709900427836844,0.1404436000594964
31.028488,2.2909644060581886,0.1405824150283301
31.033072,2.3106061170071452,0.14049006764321145
31.037659999999995,2.329015741182906,0.14020916447815374
31.042252,2.3488915819284153,0.13962675072893965
31.046844,2.361449762378596,0.13938513976669492
31.051452,2.3708209006292504,0.13934768200703782
31.056036,2.382768157508702,0.13922021248424174
31.060632,2.394715414388154,0.13909022515352534
31.06522,2.3970574032203995,0.13944139002912226
31.06982,2.4007875653568753,0.13966363732166337
31.074403999999998,2.407216030836295,0.13978040057603083
31.078996,2.4154433652110097,0.1398280922773638
31.083576,2.425347383766875,0.13983624118915802
31.088172,2.43471852201753,0.1398174878079609
31.09276,2.4421686066587425,0.13988579143712276
31.097356,2.4525613640711903,0.13981461943774096
31.101944,2.4616439914449253,0.1397183843219379
31.106531999999994,2.463653327951623,0.13986648335363458
31.11112,2.4678280874960534,0.13988518357426816
31.115716,2.476211508401804,0.1396761962739744
31.120307999999994,2.486349656754222,0.13929228723201773
31.1249,2.49505549035378,0.13890895108617896
31.129492,2.500774509733476,0.1385421065964948
31.13408,2.5037510843216,0.1381549381993969
31.138672,2.5048846485658007,0.13770586307672977
31.14326,2.5085501899901708,0.1370654190204716
31.147852,2.5107834166616825,0.13642536424097718
31.15244,2.513505382189776,0.13570117449960084
31.157028,2.5172048254310364,0.13478361943262385
31.16164,2.5164070964340564,0.1340348744597488
31.166228,2.514177052684218,0.13328671023653052
31.170815999999995,2.509004336163145,0.13267704782834586
31.175411999999994,2.4975355785085367,0.1322932373606955
31.18,2.484267951958633,0.1319704224132504
31.1846,2.4696901953700157,0.13162629405753587
31.189192,2.4525363201526007,0.13135272050223493
31.193788,2.4392245521540685,0.13090309126325636
31.198367999999995,2.431309390841423,0.13025721017207348
31.202971999999995,2.4199628179009602,0.12983915808993216
31.20756,2.402730899418028,0.1296920010362644
31.212168,2.3832113731832174,0.12968741497198172
31.216756,2.3652463464154105,0.1296607900071378
31.221356,2.3494908841339655,0.12963085089628262
31.225952,2.3328801288535,0.12975940824292218
31.230548,2.322198860564132,0.12972689991823794
31.235128,2.3079639959328015,0.12994529319444303
31.239723999999995,2.29516144605433,0.13016503387888567
31.244319999999995,2.2817479726051295,0.13049405313548432
31.24892,2.2738974320045906,0.13073022426772038
31.253508,2.270421878928145,0.13083145334143417
31.258108,2.2710769439475014,0.13084450622537275
31.262696,2.273286508433862,0.13083944689466212
31.267292,2.2805261254636733,0.13071212827484163
31.27188,2.2900974916939907,0.13055968306793578
31.276472,2.302000607124815,0.1303788304581309
31.281064,2.3161132870419996,0.13019485388476315
31.28566,2.3306366625502495,0.13008150334013846
31.290243999999998,2.3458151030778565,0.12998776378043445
31.294824,2.3620151627672565,0.12983710951166663
31.299412,2.380669156371309,0.12963391551549455
31.304004,2.399856030280572,0.12945656663081972
31.308588,2.418676350047398,0.12934427613813737
31.31318,2.443015461214257,0.12905031595975996
31.31776,2.4728733637811486,0.12856074471430004
31.322348,2.5004436585961622,0.12822655492609275
31.326947999999994,2.5319782453442046,0.12770674393283873
31.33154,2.564412266539894,0.12716878240165796
31.336144,2.598234461039814,0.1265256076605569
31.340723999999994,2.629602721625082,0.12594934216796444
31.345324,2.6553300060961713,0.12557426889686046
31.349908,2.677459552776669,0.12532180752715322
31.354504,2.701221642189689,0.12492867912394137
31.359088,2.7235514168498502,0.12453536199179807
31.363688,2.743182888167068,0.12422052806622004
31.368275999999994,2.761137675303136,0.12393718356041333
31.372872,2.7757390940769033,0.12371740893455879
31.377464,2.788786013383667,0.12351919120641518
31.38206,2.803221105994661,0.12323317737138968
31.386648,2.8180227527480914,0.12289250067192964
31.39124,2.8313920847486633,0.12254404741410468
31.395827999999995,2.846516144195903,0.12204494609483652
31.40042,2.858653389423279,0.12154440109551858
31.405007999999995,2.862040659602468,0.12125649681202998
31.409592,2.8602756925240618,0.12107728576309856
31.414184,2.8575671495493795,0.12081753809758965
31.418768,2.85534734543128,0.12048820288032146
31.423359999999995,2.8529612151504065,0.1200775367469433
31.427948,2.8484096618318,0.11976404651278807
31.43254,2.8405047401508936,0.11950232551112999
31.437124,2.8397511526025427,0.11896289568719151
31.441711999999995,2.8371986961588953,0.11846450769108946
31.446304,2.8326030013916608,0.11804557950231939
31.450892,2.8280073066244267,0.11762643872735788
31.455479999999994,2.8217349276760424,0.11723027333218063
31.460072,2.818405221498893,0.11673233913388847
31.464672,2.816996568931185,0.11616905743887869
31.469268,2.811745809144594,0.11572912373049687
31.473859999999995,2.7985664654919464,0.1155802879834473
31.478455999999998,2.7869416213063025,0.11541988018840775
31.483044,2.7744173426730105,0.1152822045410322
31.487644,2.7624259443449306,0.11517107206454948
31.492231999999994,2.7557089679885913,0.114944720267145
31.49684,2.7552880327657876,0.11456495030954418
31.501428,2.7585870200477207,0.11408157283969653
31.506028,2.7621745182065744,0.11366580271417451
31.510624,2.7596323013946655,0.113485377543823
31.515212,2.7535364882407936,0.11349522854409819
31.519788,2.749361728696363,0.11344420722350905
31.524384,2.7495619566760268,0.11330301528643216
31.528976,2.745431338580224,0.11335337500426354
31.533572,2.7443655779698024,0.11328807033147718
31.53816,2.7461203054164702,0.11314414402919717
31.542748,2.745953979253696,0.11305802999296545
31.547335999999994,2.7487303258621574,0.11287290026097466
31.551932,2.7486861844135295,0.11276856234549454
31.55652,2.7506852812884888,0.11258992162983132
31.561111999999994,2.756770854810621,0.11225894379128289
31.5657,2.769885577751163,0.11167147487741795
31.570284,2.7825896051006396,0.11104600582305406
31.574876,2.798114120507206,0.11034311340042206
31.579468,2.8090192789613875,0.10975609210604266
31.584056,2.816571069053268,0.10922062303964754
31.588648,2.817582448583323,0.10885474230727074
31.593228,2.8157733400562885,0.1085650833028417
31.597832,2.8144529703858363,0.1082056866048234
31.602416,2.8182406965243523,0.10765934238919628
31.607008,2.8226393462335966,0.107015865386478
31.611608,2.825850050618274,0.1063248032622929
31.616192,2.824685767478857,0.1057108284283374
31.620784,2.822988604034229,0.10506073300551202
31.625372,2.8202698214278086,0.10444996515630765
31.629971999999995,2.8165294196595934,0.10388047909184374
31.63456,2.8160982448050507,0.10316828978668305
31.639152,2.8183653732934517,0.10241171950234551
31.643744,2.8215319362295004,0.10163609042055077
31.64834,2.822655260841962,0.10093591114324843
31.652919999999995,2.8246780199020716,0.10022842930319745
31.657516,2.823758106190946,0.09960602995028117
31.662119999999994,2.8178522813849987,0.09912558810377989
31.666712,2.8157885637979345,0.09855861559008018
31.671299999999995,2.8147464653726635,0.09795138376479719
31.675895999999995,2.813337812804955,0.09739117879649373
31.680488,2.8165485171896316,0.0967305499497341
31.685072,2.819881406288454,0.09604982680456488
31.689664,2.823869360406633,0.09539165797757813
31.694256,2.82593626091537,0.09478311608017605
31.698851999999995,2.8294354761769673,0.09419190350225651
31.70344,2.8360436903725725,0.09361562085763851
31.708036,2.8467825226639794,0.09301435910019654
31.712624,2.8582986046888887,0.09241537606142355
31.717216,2.8694481325713608,0.09186750874386271
31.721796,2.879820410720331,0.09132229454096703
31.726388,2.8886823308509255,0.09087978653826516
31.730999999999995,2.896644816533872,0.09046211225737973
31.735588,2.9047294869309632,0.0900301810350848
31.740196,2.907950430947379,0.0897057010081373
31.744784,2.907862148050123,0.08950418252189754
31.749372,2.909450549334017,0.08929249513101756
31.753968,2.9165577420179436,0.08898271468018373
31.75856,2.9177795891593994,0.08882167536403819
31.763152,2.9245202277008895,0.08857102452012432
31.767731999999995,2.9361245926230555,0.08821661588212516
31.772336,2.949650011154662,0.08783142201233986
31.776924,2.9676726019245088,0.08739744326254317
31.781524,2.9836519543707674,0.08701709206367418
31.786112,3.000286371836384,0.08665633850265526
31.790716,3.017042974016146,0.08628119109664942
31.795303999999994,3.0321228920147574,0.08592250450681493
31.799892,3.0449932455270075,0.08553913833341717
31.804483999999995,3.057985783753404,0.08514308891480672
31.809079999999994,3.070445441674589,0.08471167185732537
31.81368,3.0836823493292767,0.08428882306896962
31.818276,3.099617560326908,0.08384019954461448
31.822864,3.1127322832674498,0.0834410629982477
31.827456,3.12392595259855,0.08307589522211274
31.832048,3.147012497728736,0.08246790587534712
31.836631999999994,3.1708321511437965,0.08176876425760131
31.84122,3.1961621625772327,0.08100200346816837
31.84582,3.2187938706677253,0.08026932945143948
31.850407999999995,3.2387272754152745,0.07955155616500782
31.855,3.2542856926387294,0.07887898610994101
31.859596,3.264203133748006,0.07829646284119123
31.864183999999995,3.268723968171396,0.07776785303197783
31.868776,3.2678481959088987,0.07729333090355102
31.873363999999995,3.2665617280553363,0.07676634073908707
31.877964,3.265641814344211,0.07619710098431408
31.88256,3.2686861925661144,0.07556200135003023
31.887148,3.2677662788549897,0.07499695712166428
31.89176,3.2703219182203105,0.0744198699791256
31.896348,3.2699348848143956,0.07388910934942378
31.900935999999994,3.2695478514084804,0.0733561262875971
31.905524,3.2635198418883875,0.07289110393052828
31.910112,3.2532390295583467,0.07243575565786241
31.914708,3.243202586656597,0.07194867147006043
31.919304,3.2358644470977906,0.07143809210419647
31.9239,3.2176550509016932,0.07111890329232894
31.928487999999994,3.198057481401365,0.07085899995149714
31.933088,3.177193923310951,0.0706431440993149
31.937676,3.1601724724394202,0.07037185070291815
31.942276,3.146093694339126,0.07005017530681086
31.946867999999995,3.130748927648745,0.06977372712965947
31.951468,3.1163035954060123,0.06948835080230065
31.956056,3.10521163152558,0.06920421807976351
31.960648,3.093875298216856,0.06894575390719669
31.965232,3.0860145179845775,0.06867495275869608
31.969824,3.0806076716669515,0.06841577840608352
31.974424,3.0693154798068556,0.0682474628145174
31.979015999999994,3.0631313837557275,0.06797940965650721
31.9836,3.055148418809304,0.06772380180425762
31.988184,3.051007561081763,0.06741771556376767
31.992776,3.0486655722495177,0.06710121710565126
31.997367999999994,3.0579720897880662,0.06663188196674981
32.00196,3.068055857060117,0.06616886523381613
32.006556,3.0758520165802894,0.06576697891102953
32.011148,3.083770360814608,0.06535522831138954
32.015736,3.098473485039043,0.06485472231058914
32.020336,3.118162520358301,0.06428085790139035
32.024924,3.135808317353971,0.06374589829696349
32.029508,3.1515330607402006,0.06324465590253621
32.034104,3.1708555419170215,0.0627340525167219
32.038695999999995,3.19414231502687,0.062170261866149136
32.043288,3.2183285225843674,0.061603096417273503
32.047884,3.2428812842843016,0.061002962002266806
32.052488,3.2722977723649116,0.06034993041725816
32.05708,3.301714260445522,0.059710975136294475
32.061668,3.3275330107355408,0.059092217769490835
32.066275999999995,3.354495564901498,0.05844044935293341
32.070868,3.3772494577061365,0.057871052767110694
32.075472,3.3962834280060377,0.05732675181951419
32.080068,3.415195213591793,0.056801648913277734
32.084664,3.4348842489110507,0.05629424069035294
32.089244,3.445867450630749,0.055885049955652216
32.093844,3.4588938906740347,0.055448530464988384
32.098423999999994,3.475884622650349,0.05496338761009409
32.103024,3.4900548665695736,0.054498283117499366
32.10762,3.5001386338416247,0.05409544245889879
32.112216,3.5051143053047076,0.053766938359267824
32.116808,3.510334346196082,0.053412145554986586
32.121404,3.510812845420926,0.05308889986512675
32.125992,3.5074492374268873,0.052799133498504694
32.130584,3.503064010271055,0.05252530614963897
32.135175999999994,3.4979015333817194,0.05223949706888763
32.139776,3.4897963837211488,0.051980941332921575
32.144368,3.475028638784607,0.051765850107732186
32.148951999999994,3.4575625905051206,0.05155221314093657
32.153532,3.4400965422256347,0.051336426383961714
32.158128,3.4252066125749465,0.051129565917919374
32.16272,3.4144031595714326,0.05086968406368465
32.167311999999995,3.40719744435851,0.05060526683555922
32.171907999999995,3.3965161760691425,0.05032881284464313
32.1765,3.3801939316655956,0.05007916913834011
32.181092,3.3618284489384616,0.04985213782074001
32.18568,3.3403981087259473,0.04966216582597294
32.190276,3.3189677685134336,0.04947019745007905
32.194872,3.2981924933202755,0.04930183118952662
32.199459999999995,3.274963284212465,0.04910646365349203
32.204055999999994,3.25467674787589,0.04888374764905719
32.208644,3.2322247885015822,0.04869768202122954
32.213232,3.2114495133084247,0.04852204239886524
32.217828,3.1888753692199714,0.048345214821082005
32.22242,3.161437498750842,0.048208427168052626
32.227016,3.1337552588534217,0.04809591668137534
32.231607999999994,3.10582864952771,0.04800984536132735
32.236208,3.0799452785255848,0.04789132546469794
32.240787999999995,3.051774299771582,0.0478288028130531
32.24538,3.0216822674081376,0.04777906650649626
32.249972,2.98889193170175,0.04772690413416053
32.25456,2.9484173815575967,0.04772960624507343
32.259156,2.9023018552992648,0.047762619281159595
32.263748,2.8596618821173787,0.04780372340347847
32.268344,2.81906514725908,0.04781526183690702
32.272932,2.7823105196196645,0.04779651567304083
32.27752,2.7456780766943933,0.04775986420400773
32.282112,2.7050813418360944,0.0477669836165457
32.2867,2.6599874347395565,0.047778602277240484
32.291287999999994,2.6184912654336094,0.04778546821919141
32.29588,2.572375739175278,0.047804945981518875
32.300476,2.5293250704023262,0.04777233986295611
32.305063999999994,2.485497151895873,0.04772435755993621
32.30966,2.4444897214465087,0.04765678856642815
32.314252,2.4063027790542333,0.04757421671130967
32.318836,2.367216402214311,0.04749013108368105
32.323424,2.3263311564790925,0.04740900893965344
32.328004,2.289698713553822,0.04736012212090391
32.332587999999994,2.252411205609195,0.04727800777365052
32.337188,2.2169225665598633,0.047195011804368456
32.341764,2.176570201129856,0.04716955996387121
32.34634,2.1419809965281726,0.04708173678532514
32.350939999999994,2.11213333359302,0.046953307433687995
32.355532,2.0784435634389844,0.04686281121443084
32.360124,2.046552662180244,0.04676598643848772
32.364704,2.0106974689884756,0.046731386767343445
32.3693,1.9747200910825615,0.04671348728546006
32.373884,1.9407859515002346,0.04665243687428731
32.378484,1.9124927880320859,0.04654826115783305
32.383064,1.8813791365068482,0.046459261823817107
32.38766,1.8509205500009664,0.0464214698090594
32.392236,1.8157204218285548,0.046418687999987676
32.396832,1.7815419128179366,0.04638618530613091
32.401416,1.7445429157502288,0.046369652265734675
32.406008,1.7026801923018453,0.04644582121050765
32.410588,1.660040219119959,0.046487709302638326
32.415172,1.6175224306522187,0.046508599520168545
32.41976,1.5656437435655626,0.046648959531797374
32.424336,1.5164633598218504,0.04679321094828309
32.428928,1.4653619224686967,0.04698889732318398
32.433508,1.4179804076202804,0.047196706950746174
32.4381,1.3653686122487505,0.044874396274027915
32.442684,1.3068714713347516,0.04257496129285772
32.447272,1.2473527112589593,0.04025499666717342
32.451871999999995,1.1830924095166362,0.037958602875711116
32.45646,1.1230407691356332,0.03561736175172609
32.46104,1.0656874320975736,0.033277377422405795
32.46564,1.006290856735927,0.030963487609265324
32.470228,0.9450954124789848,0.028674967447981377
32.474824,0.8807129260225162,0.02639020400075604
32.479403999999995,0.8184958626037803,0.02405508423815748
32.483999999999995,0.7577111139379029,0.021723960407792862
32.488584,0.6948831269484388,0.019424240344282393
32.493188,0.6318107705306832,0.017128486603680163
32.497775999999995,0.5746237596553976,0.014740783600659694
32.502376,0.5170701946376748,0.012388906769558028
32.506968,0.464913236305839,0.010040080340354078
32.51156,0.41749781964053384,0.0075698814917088495
32.516152,0.3700824029752289,0.005098351532960324
32.520748,0.32482743489724536,0.0025760565631774736
32.525348,0.28149352042870335,0.0
32.529944,0.24314551705498325,0.0
32.534532,0.2105606745095863,0.0
32.539128,0.18181793918307212,0.0
32.543716,0.1576945608089429,0.0
32.5483,0.13320462829237661,0.0
32.552888,0.1078152613281625,0.0
32.55748,0.08524638242103762,0.0
32.562072,0.06435418769506278,0.0
32.566664,0.04934733851155772,0.0
32.571259999999995,0.03557755055165923,0.0
