Time,Force,Position
37.098876,0.06917141832218159,0.0
37.103476,0.08116592993909272,0.0
37.108076,0.09381550657536038,0.0
37.11268,0.10646508321162802,0.0
37.117276,0.11989190958139785,0.0
37.121872,0.13319655123702198,0.0
37.126452,0.14572082987031318,0.0
37.131052,0.15861166264604137,0.0
37.13564,0.1680269423453238,0.0
37.140236,0.1784638412063998,0.0
37.144828,0.18836785976226494,0.0
37.14942,0.19569575968933225,0.0
37.154016,0.20441183292063006,0.0
37.158604,0.21607057892316278,0.0
37.163196,0.23451410491581315,0.0
37.167784,0.24809390452778718,0.0
37.172376,0.2608964544062591,0.0
37.176976,0.2679358434564069,0.0
37.181556,0.2692120716782305,0.0
37.18614,0.2757185804231675,0.0
37.190728,0.28042622027280867,0.0
37.19532,0.28513386012244996,0.0
37.199916,0.28881988081029764,0.0
37.204504,0.2931609665175018,0.0
37.209096,0.29468156416761676,0.0
37.213684,0.2987782804465296,0.0
37.21828,0.30221993170608596,0.0
37.222868,0.30451777908970323,0.0
37.227448,0.3122122331592075,0.0
37.232044,0.32080612167635963,0.0
37.236636,0.33287556326995743,0.0
37.24122,0.35034161154944243,0.0
37.245816,0.36744110568649035,0.0
37.250412,0.3769785700999185,0.0
37.255016,0.3816523081326703,0.0
37.259612,0.392211391707892,0.0
37.264204,0.40432497475011797,0.0
37.268784,0.4170936228117005,0.0
37.273384,0.43063952060678523,0.0
37.277972,0.4408761914881981,0.0
37.282572,0.4520122968172587,0.0
37.28716,0.4698109974222913,0.0
37.291748,0.4878540674556154,0.0
37.296344,0.506019322203085,0.0
37.300936,0.5273716191500808,0.0
37.305524,0.548968285525368,0.0
37.31012,0.5716307125110769,0.0
37.314712,0.5962141931062271,0.006621886904189474
37.319304,0.6195316851112925,0.013309539660218701
37.323892,0.6466912843352407,0.01959260665959589
37.32848,0.6691534833412863,0.026371860532726964
37.333068,0.6880620860053689,0.03351860288046371
37.33766,0.7082808187081644,0.040731950040017416
37.342252,0.7408472642497385,0.04741934499497807
37.346844,0.7772999584588233,0.05415524399122877
37.351436,0.8080336332882122,0.06136881282255014
37.356024,0.8371347653850794,0.06888007599233856
37.360616,0.8686898313965988,0.07651271547581807
37.365204,0.8983679852473049,0.08462179797684659
37.369792,0.9264135963654893,0.09317737613327255
37.3744,0.9516828608752121,0.10230702242455637
37.378988,0.9723769098811785,0.1115870404364268
37.383576,0.9956912189645709,0.120895611043395
37.388172,1.0246126023452524,0.12997303182036124
37.39276,1.0607397009388555,0.13885850184686008
37.397356,1.1017407655448737,0.14762708232000263
37.401948,1.1470829158580957,0.1564977860524136
37.406552,1.1966881086130048,0.15889839008179474
37.411128,1.2540318968860462,0.16124080475654917
37.415728,1.3183472705754566,0.1641684155637024
37.420308,1.4028372355190344,0.1664069182326194
37.424908,1.5075017917167794,0.16807642586142374
37.4295,1.6316078308838178,0.16952608010027373
37.434092,1.7626854554672258,0.1715578647915789
37.43868,1.9101736073514353,0.17338107614848777
37.443272,2.078980154365751,0.1746446933085386
37.447872,2.2679612926342343,0.17553111716121184
37.452464,2.47752771774795,0.1762098777913095
37.457052,2.7144642096970166,0.17624957335914607
37.461648,2.9779935187479305,0.17570510149936533
37.466236,3.2683600143289833,0.17446751782656686
37.470824,3.577102232268908,0.17306401022869025
37.475412,3.9029100425289918,0.17160356946582184
37.480008,4.239565447241216,0.17036454217874644
37.4846,4.5881681088328925,0.16925408876809236
37.489192,4.942954866475698,0.16829260903440102
37.493776,5.3065798820639465,0.1672284266305195
37.498364,5.680020633310805,0.16597776163057992
37.50296,6.056526242043045,0.16469715822788852
37.507548,6.432688958817998,0.1631654479945435
37.512136,6.795584049043047,0.16178153284774946
37.516744,7.143290459108751,0.16056440552328768
37.521328,7.47024525616645,0.15950208726939707
37.525936,7.784298980816681,0.15836650100943322
37.530524,8.079776755128378,0.15742667767278584
37.535112,8.363663587071319,0.15650202085937098
37.539708,8.633505542730855,0.15560456831501818
37.544296,8.88697087290648,0.1547458323497765
37.5489,9.116209036997649,0.1540271766028868
37.553496,9.322530165043084,0.15342553556437333
37.558088,9.509043255976787,0.15290730888682366
37.562668,9.681022731770499,0.15237973679214079
37.567268,9.840267461319517,0.15182983351137858
37.571856,9.988331944090849,0.151243269976835
37.57646,10.115855281465576,0.1507298759034385
37.581052,10.23538541426214,0.15012251493710094
37.585648,10.346311418909814,0.1494551241479156
37.59024,10.44507969906663,0.14879217459995808
37.594836,10.540073675638345,0.1480756058195039
37.599424,10.62688445928397,0.1473985368912577
37.604016,10.712096602013965,0.14671507790055033
37.608608,10.793911234933029,0.14603647799523498
37.6132,10.879279464194058,0.14530589063845564
37.617788,10.962560313682872,0.14457886436124526
37.622376,11.052293290836257,0.1437420409381441
37.626964,11.135930454835767,0.14293878245791677
37.631564,11.21334962096726,0.14216788753424625
37.636152,11.287737831430263,0.14138963400608548
37.640744,11.361426835425283,0.1405901302141823
37.645336,11.434128122075396,0.13975462094680247
37.649924,11.498524031085278,0.1389425581253565
37.65452,11.5579237893686,0.13811116080807917
37.6591,11.60644205138289,0.13731976623953843
37.663688,11.643423752108792,0.1365632102819364
37.668284,11.678229790165224,0.13575286311137055
37.672876,11.701010528076687,0.13499396977953573
37.67748,11.713442650024326,0.13427687786788617
37.682068,11.719857002083616,0.1335447066287743
37.686656,11.711547750654987,0.13288158646890078
37.691252,11.695177491014421,0.1322221503609673
37.695844,11.667559180962385,0.1316038455147306
37.700448,11.635111046346564,0.13097431457770842
37.705028,11.595256968538157,0.13034892108490198
37.709628,11.555558977260786,0.1296604814973898
37.714208,11.504612935571945,0.12900979349173536
37.718812,11.44883706931932,0.12834446993737164
37.7234,11.38708757462697,0.1276786603043562
37.728,11.313889801543485,0.12708025608062165
37.732592,11.232186422840106,0.12652075733523385
37.737188,11.142388134107897,0.12601140670489738
37.741768,11.052301334498768,0.12547797220275778
37.74636,10.955141244022602,0.12498301600181405
37.750964,10.85871426183131,0.12445117376411018
37.75556,10.766784451878257,0.12387870932361773
37.760152,10.670401611135595,0.12335699870836526
37.764744,10.57904882293638,0.1228029673785374
37.769332,10.489128349490024,0.12224282642019216
37.77392,10.398352583044648,0.1217080165649874
37.778508,10.30990856579978,0.12116105269301623
37.783104,10.224984243079987,0.12061318920219587
37.7877,10.14742172210415,0.12002924489070027
37.792288,10.071213472615657,0.11947372580454206
37.796884,9.995215690738561,0.11896343143842576
37.801464,9.915586269253987,0.11853399979128139
37.806048,9.841686106780847,0.11810774171544405
37.810632,9.770450345833758,0.11771963798121228
37.815224,9.705598908917466,0.11734126637327877
37.819832,9.654938195183872,0.1168979839492528
37.82442,9.613848847680599,0.11642634943671254
37.829008,9.584007550588792,0.11592082369281898
37.833604,9.562349446423067,0.11541706517001506
37.838192,9.554271141869322,0.11487890671708154
37.842788,9.552621302794993,0.11438586823986328
37.84738,9.553269311104282,0.1139537719126031
37.851984,9.569007477043925,0.11346022244672592
37.856576,9.589331098119061,0.11299757009145975
37.861172,9.620003335158016,0.11251742587959933
37.86576,9.659103134551351,0.1120357150131645
37.870364,9.710228234089653,0.11153221462378345
37.874948,9.768226396515331,0.11103189219524706
37.879548,9.830810014076507,0.11056715604213051
37.884132,9.898467825629758,0.11011397666103233
37.888728,9.976185742269909,0.10962838975142812
37.89332,10.065107567872902,0.10909693835323817
37.897916,10.153706980782085,0.10861148593776619
37.902504,10.247869326539927,0.10812160760607074
37.9071,10.350903832060103,0.10759386449806237
37.911688,10.454104663743056,0.10710112956203638
37.916276,10.560170124931723,0.10662451649689124
37.920856,10.666890651139749,0.1061632197863114
37.925456,10.772467373471835,0.10572405890457968
37.930044,10.87522360774683,0.10531283304302422
37.93464,10.978590765592557,0.1048838987117069
37.939236,11.084612085332596,0.10441822673483502
37.943824,11.187280036710339,0.10397578344468096
37.948416,11.288393488621074,0.10353750601097214
37.952996,11.382311464950627,0.10314163787595916
37.957588,11.47144375816502,0.10275544334999114
37.962184,11.55182607633123,0.10240997151082108
37.966772,11.629221580277571,0.10206611760538192
37.97138,11.705140628022427,0.10169834677983004
37.975968,11.776884916222853,0.10131552793562652
37.980572,11.839468533784027,0.10095757308799362
37.985168,11.893546545725306,0.10062912699737805
37.989756,11.943816352264593,0.10027096131461324
37.99436,11.985658596449497,0.09990953162404209
37.998948,12.013965182471058,0.09958673247608812
38.003552,12.033355467281657,0.0992756593553671
38.008148,12.048038112242617,0.09894120591431607
38.01274,12.051761217669025,0.09863308710965121
38.017332,12.049632879369854,0.0983113633734634
38.02192,12.04063147818331,0.09798335554072937
38.0265,12.026555883004688,0.09764146127387247
38.0311,12.00511848608211,0.09730857960220245
38.035696,11.976319287415574,0.09698443307226583
38.040288,11.943589698632898,0.09663267706278518
38.044884,11.907584784753443,0.09625709514414499
38.04948,11.867815806920618,0.09587346477273445
38.054068,11.827469807333957,0.09545457950011879
38.058664,11.783481928508076,0.09502353497938834
38.06326,11.72792358657692,0.09463196769747777
38.067856,11.67183236434055,0.0942287502128909
38.072444,11.61455319677961,0.09380867200790785
38.077032,11.551588911655866,0.09338929167236193
38.08162,11.491445114589213,0.09295156614276925
38.08622,11.43465468588486,0.09250454152384123
38.090808,11.382239244704596,0.0920407688075148
38.0954,11.332355780704505,0.09154105865799571
38.099992,11.276098232305364,0.09109143167090791
38.104584,11.224704410286895,0.0906080811264138
38.109184,11.172821849411843,0.09013744793719208
38.113764,11.122493788003796,0.08966439948732577
38.118356,11.071432618310876,0.0892130863699561
38.122952,11.02270319781846,0.08876079766209252
38.12754,10.974506657631258,0.08831432349898093
38.132148,10.92839749721627,0.08787556853760263
38.136736,10.886174585468794,0.08743878099604796
38.141324,10.849881160712417,0.08698985638265481
38.14592,10.815430746299963,0.08655899964186871
38.150512,10.7806579191937,0.08616522591637663
38.155108,10.75541231686913,0.08574651784473492
38.159688,10.735196767088004,0.08532120306773901
38.16428,10.721321399889046,0.08490016945136121
38.168868,10.717750507205277,0.08445840348913544
38.173468,10.716022624865435,0.08403811863586384
38.178052,10.714705438116654,0.08363189212751498
38.182652,10.717518869463676,0.08322522655612746
38.187248,10.724384875640984,0.08284840359713679
38.19184,10.743432268494297,0.08241833216472383
38.196424,10.76804259419627,0.08199653693856405
38.20102,10.80062564521293,0.08155620633574075
38.205624,10.83823874877304,0.08111402319964996
38.210216,10.882925143200188,0.08065725914174685
38.214804,10.936605882103812,0.08017987208724821
38.2194,10.995194488836741,0.07970543804185966
38.223988,11.05856877868483,0.07924069327362783
38.228576,11.126318056057011,0.07877265057429807
38.233164,11.195621832896196,0.07831386811613335
38.23776,11.269667151401912,0.07784062387782238
38.242352,11.348698381002452,0.07734189952623956
38.246944,11.431571717821873,0.07683254553142718
38.25154,11.514200685213002,0.07633787287438948
38.25612,11.600016694803656,0.07582911483153153
38.260704,11.685832704394313,0.0753281505312748
38.265288,11.775080125612787,0.07480487088670015
38.26988,11.868414023478435,0.07426369019820196
38.274476,11.960071237162932,0.0737293246133808
38.279056,12.052339374418157,0.07318176139870572
38.283648,12.139865970006852,0.07265929512862926
38.288244,12.22428356666154,0.07213571901576298
38.292836,12.307024479135077,0.07161955736765502
38.297432,12.388333076855753,0.07110118930887067
38.30202,12.466654860356567,0.07057816603405555
38.30662,12.536226668809196,0.07007119435393527
38.3112,12.60113497886081,0.06955476525515104
38.315804,12.660358171349616,0.0690349245578227
38.320388,12.711075758218527,0.06851879138070714
38.324988,12.757007661972283,0.06799720722975516
38.329576,12.794067405963704,0.06748895632335598
38.334172,12.82724090128761,0.06697277096618362
38.33876,12.85178660627748,0.0664617787282467
38.343356,12.869625574542747,0.06594796896870257
38.347944,12.877692948598037,0.06544663653473161
38.35254,12.876233097871635,0.06494833388043149
38.357124,12.86398003377346,0.06446446665423457
38.361708,12.844653678808248,0.06398657837781432
38.3663,12.816943902937282,0.06350041661689257
38.370888,12.779706902284628,0.06301367352172835
38.37548,12.73846146825032,0.06251646792438982
38.380072,12.69026492806312,0.06201738044038045
38.384668,12.629476305608847,0.061528563972347475
38.389256,12.564312695630482,0.06103821544550656
38.393856,12.493752478966233,0.06054963278975284
38.398444,12.42127120869254,0.06006220118382157
38.40304,12.346868884809405,0.059575151035495676
38.407628,12.271811495906915,0.05907765175201909
38.412208,12.202395083118603,0.058564238295938535
38.416796,12.12709332478782,0.058063973482362446
38.421392,12.050769947295244,0.057562171894546675
38.425984,11.97101515817485,0.057079122766075845
38.43058,11.89424718327432,0.056607043206810884
38.435172,11.818256458107292,0.05613237593125837
38.439768,11.740877559636033,0.05566708180990951
38.444356,11.666729844812929,0.05520479142989757
38.448952,11.598633801695067,0.054741241363451834
38.453532,11.529271769987123,0.05428412102835627
38.458136,11.463551617518396,0.053844583878123894
38.46272,11.404416017060125,0.053415238863532805
38.46732,11.343525689155186,0.05300791996438004
38.471916,11.283456752432379,0.052624582753255995
38.476512,11.230216737148316,0.05224399181935227
38.481104,11.175466363845878,0.051878647374773344
38.4857,11.121415197011421,0.051543397369559894
38.490296,11.06368824912086,0.05123620586063725
38.494892,11.007027061840716,0.0509483441931961
38.49948,10.949266212133265,0.05069253365200908
38.504068,10.88398747415082,0.050474701169713886
38.508656,10.827458711216565,0.05025954892874178
38.513244,10.77583781611161,0.05005625203357559
38.517832,10.725649235759516,0.049862219698477914
38.522428,10.674316851531483,0.04967482153158754
38.527024,10.623928043199726,0.049512649477837824
38.531616,10.575626614640184,0.04936818131321556
38.536212,10.530556369728796,0.049233671041475
38.5408,10.480255844294295,0.04912226489091596
38.545388,10.431021079470218,0.0490332681889733
38.549976,10.38117539107541,0.04896383098762015
38.554564,10.33108533325231,0.04890134446114714
38.559156,10.283693578772153,0.04883750508723071
38.563748,10.2370790740255,0.048777015438289335
38.568336,10.193940122355293,0.04871935473603657
38.572928,10.155953407942683,0.04866870282166591
38.577516,10.118088878244215,0.04861353945216514
38.582112,10.083167021316985,0.04854940604070837
38.5867,10.049921848570904,0.04848898107327285
38.591304,10.016921045253113,0.04841961323114023
38.595884,9.983553687792885,0.048362597296989995
38.600484,9.942257746466602,0.04833130664163367
38.605064,9.897241882635582,0.04830382514213331
38.609664,9.85030496519512,0.04828033966588721
38.614248,9.798504321373981,0.04826965312324007
38.61884,9.743105939762252,0.04825906082283404
38.623432,9.685253624235871,0.04823970912189015
38.628028,9.615997171766987,0.04824327005674605
38.632616,9.544819665688662,0.048251863769565896
38.637212,9.468245552924447,0.048261693267461554
38.641796,9.388562441226224,0.04825345536756799
38.646384,9.300295680642588,0.04826443495717318
38.650972,9.205366324782982,0.048289770423678505
38.655572,9.109537534475729,0.04831546923082788
38.66016,9.008434322196731,0.04833416323530269
38.664756,8.896415711831816,0.04835786492607318
38.669348,8.77683507174328,0.04839784381014607
38.673936,8.65545556275945,0.04843699472905271
38.678536,8.525203894013284,0.04847130050543103
38.683124,8.385469141934056,0.04852747208287517
38.68772,8.247366932587354,0.04855282508611563
38.692308,8.106033539592495,0.04856563681764046
38.696896,7.9608580393787545,0.048589861545982535
38.701492,7.810285932479125,0.04861508561268368
38.70608,7.656116087788905,0.04864365042163007
38.710668,7.500147374203389,0.048673099031750086
38.715256,7.344178660617874,0.04870069111985887
38.719844,7.1924186083936785,0.048699903584152965
38.72444,7.0362835686453895,0.048694872504448816
38.72902,6.881170148058895,0.04868499803394226
38.73362,6.72491292359646,0.04868535666255166
38.738208,6.566979014952876,0.04868436281756971
38.742808,6.4089229215951455,0.048695871745050426
38.7474,6.2472690904468235,0.048708798798457714
38.751996,6.075765621823004,0.04877880110450879
38.756584,5.905938837380335,0.04886172099255358
38.76118,5.735334803204163,0.04894906226816383
38.765756,5.561788096256754,0.049057804942500755
38.770352,5.390939692652291,0.04916569608234126
38.77494,5.226753884323799,0.04925288334552955
38.779536,5.056682730452837,0.04937789641741637
38.784124,4.890453683800757,0.04948168601933578
38.78872,4.722425768253383,0.049599403256641354
38.793308,4.558895024944247,0.04972146147744426
38.797904,4.401127442463436,0.04981161560016931
38.802492,4.241438806373184,0.049924724285065246
38.807088,4.075087575006959,0.05009232723793125
38.811684,3.9056714861553545,0.050307680288918105
38.816272,3.740508200113698,0.05057414227876478
38.820872,3.5784097715574212,0.05079226466678074
38.82546,3.4173329621629396,0.051003862357409835
38.830048,3.259076640825546,0.05122453334451678
