Time,Force,Position
32.064519999999995,0.23901522141866233,0.0
32.069104,0.22094848920018778,0.0
32.073696,0.20864491781003736,0.0
32.07828799999999,0.2013272575147089,0.0
32.082876,0.19466466223873694,0.0
32.087484,0.18469284004909306,0.0
32.092076,0.17549826759295134,0.0
32.09668,0.16540426068916178,0.0
32.101256,0.15416644990943304,0.0
32.105856,0.14064103137782588,0.0
32.11043599999999,0.12482800509434035,0.0
32.11503999999999,0.11285708602973757,0.0
32.119623999999995,0.10803750109768943,0.0
32.124224,0.11155719562276332,0.0
32.12881599999999,0.11483252071954586,0.0
32.13341199999999,0.11066800080685427,0.0
32.138,0.1096905230936889,0.0
32.142596,0.10961247982817138,0.0
32.147184,0.11169985960038657,0.0
32.151779999999995,0.11456448910610395,0.0
32.156364,0.11293194637358209,0.0
32.160951999999995,0.11375333755571243,0.0
32.16553999999999,0.11061043680481435,0.0
32.17014,0.10211507081665731,0.0
32.174727999999995,0.09656237759973516,0.0
32.179323999999994,0.09767227965878497,0.0
32.183916,0.10033668118483915,0.0
32.188503999999995,0.10300108271089334,0.0
32.193096,0.1082416028657454,0.0
32.197675999999994,0.11360430773474314,0.0
32.202259999999995,0.1240751084127085,0.0
32.206855999999995,0.13286922490952383,0.0
32.21144399999999,0.13847629920681293,0.0
32.216032,0.1415072548753041,0.0
32.220628,0.14531546027729747,0.0
32.225216,0.15680788011705635,0.0
32.229808,0.16703431136673036,0.0
32.234404,0.17611693874046522,0.0
32.23899599999999,0.18381139280996947,0.0
32.243584,0.19252746604126728,0.0
32.248183999999995,0.2040640273296543,0.0
32.252776,0.21200285082744993,0.0
32.257375999999994,0.22353941211583697,0.0
32.261964,0.23724139644195671,0.0
32.266563999999995,0.2499217616062829,0.0
32.271151999999994,0.2606810731611678,0.0
32.27574799999999,0.2679648316396068,0.0
32.280336,0.28088956623222444,0.0
32.284927999999994,0.29201543192954627,0.0
32.289516,0.305717416255666,0.0
32.294112,0.3143113047728182,0.0
32.2987,0.32638074636641606,0.0
32.303284,0.3420479257506053,0.0
32.307872,0.35992466962115544,0.0
32.312464,0.37677979432991204,0.0
32.31704799999999,0.38930407296320324,0.0
32.321639999999995,0.40428228551114664,0.0
32.326235999999994,0.42351330086903793,0.0
32.33082399999999,0.4432771965321401,0.0
32.335415999999995,0.467826775310401,0.0
32.339996,0.4934421146990836,0.005944343575124037
32.344584,0.5198788452698966,0.012368373284406719
32.349188,0.5473813364511311,0.01879222481473726
32.353776,0.5768490226904351,0.02537251918680526
32.358363999999995,0.6081597192736631,0.032071281948919894
32.362956,0.6418463065060257,0.03895203642392879
32.367543999999995,0.6831832063592645,0.04582306442983149
32.372139999999995,0.7261628885767639,0.05281156294934118
32.376732,0.7729507761962569,0.06002564730637761
32.381328,0.8195825772847146,0.0675860931744953
32.385915999999995,0.8752970057469072,0.07514492787056037
32.390516,0.9344530854686561,0.08275898978108023
32.395095999999995,0.9950075781263745,0.09053817850737886
32.3997,1.0556164518644597,0.09892375137249425
32.404292,1.125728888199084,0.10766798646311343
32.408888,1.2137283080359969,0.11634451719871895
32.413467999999995,1.3237011880223728,0.12464734983372949
32.418063999999994,1.4460422601110048,0.13300140021548543
32.42265999999999,1.5884357387396584,0.14119633332094322
32.42725599999999,1.7402105952507052,0.14948020486592584
32.431844,1.9113827932824172,0.15168094634872387
32.43644,2.103873386444236,0.15331245995598208
32.441028,2.3105310406036055,0.15498474033902304
32.445612,2.538795600770002,0.15640274041882044
32.450191999999994,2.786335317742918,0.15763464660815701
32.454784,3.0515515506067206,0.15860504187442476
32.45938,3.3300693118373164,0.15954423815327304
32.463956,3.620211917253556,0.16037236101164826
32.468551999999995,3.9285197774172653,0.1609009655375599
32.473128,4.256913945937885,0.16101232034846705
32.477715999999994,4.598443316662525,0.16108258783087678
32.48231199999999,4.95490675848648,0.1610481943663479
32.4869,5.3269151949804785,0.1607960303760045
32.49151199999999,5.721365351217046,0.15978245057351778
32.4961,6.1229566019544315,0.15830691186943596
32.500688,6.518642027885868,0.1568264915913523
32.505284,6.89407481929762,0.15574032336476987
32.509871999999994,7.260492786969416,0.15455904184467448
32.514464,7.610211716463492,0.15352352664054594
32.519043999999994,7.956312428903495,0.15231831448716343
32.523644,8.28571410316578,0.15123477833249657
32.528232,8.600049281982866,0.1501968993749532
32.532832,8.90041762778206,0.1490786595068231
32.53741599999999,9.179379295553895,0.14803378999618402
32.542016,9.436567731155929,0.1470517600325412
32.546608,9.674725379379733,0.14613451322588059
32.551204,9.89552892440646,0.14524829957402074
32.555792,10.09868985535919,0.14435349304814557
32.560388,10.278811565552035,0.14352821190797085
32.564975999999994,10.433684490498635,0.14276972874529975
32.569571999999994,10.568460867456585,0.14202777863435356
32.57416,10.681464012244735,0.14131158607126795
32.578748,10.772205186006502,0.1406363521373484
32.583336,10.836275499400903,0.1401043861693414
32.587931999999995,10.883612872800693,0.1396373452882917
32.592524,10.91258476347335,0.13926015306106107
32.59711599999999,10.93447312364723,0.1388528797967369
32.601707999999995,10.948011964732247,0.13844291334099817
32.606288,10.95193529813832,0.13804858522721847
32.610888,10.941790093075836,0.13773738884666048
32.615464,10.925504933410854,0.13741573515614725
32.620059999999995,10.898216092762695,0.13713503216591127
32.624644,10.865075808388955,0.13685842183943617
32.629223999999994,10.827760764470783,0.13657538612244716
32.633816,10.790113068227063,0.13624614290901113
32.638408,10.743793440200674,0.13594750281705684
32.642996,10.693010541752935,0.13562419550994625
32.6476,10.640751187103712,0.13527103081457356
32.652192,10.586771006824707,0.134897373771113
32.656788,10.534178999849935,0.13449297146762282
32.661379999999994,10.47745637477936,0.1341071239707387
32.66598,10.415459327737043,0.13375755793516816
32.670568,10.353951019551308,0.1333839290989328
32.675168,10.290110962165068,0.13301400523106044
32.679756,10.22194005870336,0.13270127306003604
32.684355999999994,10.1605980766804,0.1323410773629347
32.688948,10.104408331915035,0.13194188857109462
32.693544,10.048140543884154,0.13157200268277366
32.698128,9.996902808396722,0.13116961912092948
32.70272,9.949629364842322,0.13071854302817976
32.70732,9.900723378555398,0.13030302756854029
32.71192,9.854559837060046,0.12989108188439705
32.716511999999994,9.807951698156737,0.12952636673895543
32.721104,9.762820015454915,0.12918913324301384
32.725696,9.718020985078642,0.12889743058193642
32.73027999999999,9.685980363132213,0.1285238401884618
32.734872,9.65762576187363,0.12817753993790842
32.739464,9.636388592930716,0.12780615080244065
32.74406,9.622024486875176,0.12742108051971876
32.748648,9.610813521202271,0.12705700244845483
32.753243999999995,9.606719987845032,0.126669591287913
32.75783199999999,9.614363243755843,0.12621900212228007
32.762415999999995,9.623238586439847,0.12580927274510545
32.767,9.641807480068316,0.12536313979488092
32.771592,9.671824652087917,0.12483842468046163
32.776196,9.704706453613234,0.12432018342373799
32.780784,9.739064711340037,0.12383680047435251
32.785371999999995,9.77514379469662,0.12337434235987914
32.789967999999995,9.81678581090186,0.12290065115048769
32.794563999999994,9.863257651670894,0.12244704815134394
32.79915999999999,9.920522705811697,0.1219198824415651
32.80374,9.988580973324275,0.12132284102757039
32.80833199999999,10.064489781437393,0.12068144071094873
32.81292,10.142197458445807,0.12002895206414403
32.817519999999995,10.220804569901867,0.11937202046847052
32.822112,10.296346823872549,0.11876062177902331
32.826716,10.375731185062113,0.11812132010264627
32.83130799999999,10.451928504052148,0.11752881308915235
32.835908,10.525427519699242,0.1169608703924926
32.840492,10.599293089488773,0.1163833181017102
32.84508399999999,10.675079712887745,0.11579847725482367
32.849672,10.748412402372065,0.11523204715750995
32.854268,10.82133439626532,0.11465238478204656
32.858864,10.890003587348625,0.1140993443040256
32.86346,10.949678433955455,0.11360761991441477
32.868047999999995,11.007265900790067,0.11311362023359159
32.872632,11.062110922833108,0.11261211958935123
32.877224,11.11805560730346,0.11207203358566943
32.881812,11.166638490029857,0.11155734168224099
32.886399999999995,11.207326690707085,0.11105742472236911
32.890995999999994,11.241308154659713,0.11058847341040112
32.895588,11.266784012992444,0.11015886324280956
32.900167999999994,11.285264623723657,0.10973697263018097
32.90476399999999,11.305499961901537,0.10928183142900316
32.909352,11.325036093611432,0.1087982301892375
32.91394,11.341052530796254,0.10830541634407115
32.918544,11.350973154827207,0.10781377296972536
32.923131999999995,11.357618453761372,0.10730259277932613
32.927736,11.363564546227552,0.10676265135270284
32.932323999999994,11.366768193902168,0.10621186514687748
32.936916,11.36350947428047,0.10567333310942356
32.941508,11.354565637095964,0.10514494638835445
32.946096,11.34647709291048,0.10458595411214394
32.950692,11.335890473361719,0.10400556421540065
32.955279999999995,11.32897963486906,0.10337669292711335
32.959875999999994,11.321780285499482,0.10273095531217606
32.96446399999999,11.316091294148286,0.10205981614965359
32.969064,11.311013226367816,0.10136941686868459
32.973656,11.309532896377934,0.10066215735626496
32.97826,11.3081747511022,0.09994724583656985
32.982851999999994,11.29937676081699,0.09927047412883958
32.98744799999999,11.287758282474696,0.09860836216695872
32.99204,11.276917053865898,0.09794449162102531
32.996632,11.260434849142923,0.0973128247430066
33.001231999999995,11.243586090277514,0.09669317855651301
33.005824,11.225471342822019,0.09608816147474727
33.010416,11.208666725405234,0.09549070187723724
33.015007999999995,11.195093291636601,0.09488983485228429
33.01959599999999,11.180009499849598,0.09431300802996977
33.024187999999995,11.167501826691392,0.09372892381057735
33.02877599999999,11.155527033838396,0.09315199566909561
33.033356,11.14678342463355,0.0925716949977517
33.037952,11.139349945467421,0.09200161232582413
33.042536,11.129917369426334,0.0914708699877469
33.047124,11.121550553995668,0.09095961630434837
33.051703999999994,11.115271118337215,0.09045984805657127
33.056296,11.107236955232096,0.08999298476869998
33.06088,11.094261022480783,0.08958533844397465
33.065468,11.07936403612003,0.08918846147862552
33.070063999999995,11.071295971198019,0.0887777771347956
33.07465199999999,11.070179012428904,0.08834693394931563
33.079232,11.072171052593795,0.08791888131199102
33.08382399999999,11.076372657245045,0.0874982212402188
33.088404,11.083805445544451,0.08707659297190179
33.093,11.093569983044365,0.08665920317489662
33.097576,11.107709508068375,0.08623087625215987
33.10217599999999,11.122137543969302,0.08582083678998458
33.106764,11.136321210441938,0.08542103315452254
33.111352,11.154757679724522,0.0850157894108212
33.115944,11.172461040722233,0.08463739776151566
33.12054,11.196460442853477,0.0842410016242752
33.125128,11.220215475556431,0.08385410200053962
33.129724,11.244747757992887,0.08347096543198457
33.134311999999994,11.27774150460061,0.08305210604457375
33.138907999999994,11.31085743592248,0.08263262741168047
33.143488,11.338743086721237,0.08225152633038382
33.148076,11.370226475310586,0.08186157293554672
33.152663999999994,11.404896906099461,0.08144724870195741
33.157256,11.442021270802986,0.0810351438848795
33.161843999999995,11.478490570487157,0.08062254162561211
33.166424,11.518924162104355,0.08019145305031428
33.171015999999995,11.561523176759286,0.07974604354196878
33.17560399999999,11.606531983880243,0.07928035512769711
33.180195999999995,11.652684594877138,0.07880689435429393
33.184791999999995,11.69830432556882,0.0783276840494585
33.18937999999999,11.746089479298236,0.07783763858094768
33.193976,11.794485556598381,0.07733013727538893
33.198564,11.840183330555579,0.0768309415106013
33.203152,11.882527736150482,0.07633572519318607
33.207744,11.924461446154318,0.07582966272054589
33.212332,11.959321865291116,0.07533991100389914
33.216936,11.994671023284493,0.07483688527283118
33.221532,12.02846568181087,0.07433315989321994
33.226136,12.055309234184357,0.07384067633210878
33.230715999999994,12.076878364586099,0.07335689645893025
33.235316,12.103511449348183,0.0728210020418173
33.239904,12.126258285442756,0.07227786585904643
33.244508,12.150759848983999,0.07170938198640894
33.249095999999994,12.170475729410079,0.0711336593096631
33.253696,12.181197265359685,0.07057506025014265
33.25828799999999,12.184723325728104,0.07003117121115483
33.26288399999999,12.184118768000722,0.06948491422501187
33.267464,12.176074365263863,0.06895881690965248
33.27206,12.163899344431204,0.0684286451001109
33.276647999999994,12.146572086340951,0.0678988571333714
33.281243999999994,12.119106679898275,0.06739150138661637
33.285832,12.091108393150392,0.06687359581746534
33.29041599999999,12.062699410811446,0.06634006085930082
33.295004,12.031059244824343,0.06579813223579704
33.2996,11.9941446568655,0.06525752981384322
33.30419199999999,11.956452819173151,0.06471101377384977
33.308784,11.914263809242568,0.06416786886469143
33.313376,11.869498680683185,0.0636223736826122
33.31796,11.824611367409656,0.06307709840242612
33.322551999999995,11.780867858012066,0.06251923824425719
33.32713999999999,11.728829210605982,0.062000270162828934
33.331728,11.674747324876313,0.06148699772936909
33.336336,11.612370301138148,0.061011780533659424
33.340923999999994,11.551547776866988,0.06053778421627347
33.34551999999999,11.495222424834067,0.06005404927654642
33.3501,11.439674322534648,0.059569097028385906
33.354696,11.383881850806938,0.05908758699188645
33.359292,11.330421128279733,0.058611041561449334
33.363884,11.278270535791243,0.05814424490675766
33.36848,11.22922894223676,0.057685754333298984
33.373059999999995,11.184562336206373,0.05722292878329672
33.377655999999995,11.13838537215761,0.056777436911040195
33.38224399999999,11.093640722861702,0.056339098370218485
33.386844,11.05188288778566,0.055913974705786726
33.391436,11.015032920538921,0.055497353286616605
33.396035999999995,10.978349279454957,0.05510023616917066
33.40062,10.946451321486151,0.05471680450500385
33.405216,10.916762928003708,0.054345458111127655
33.409808,10.889406283721769,0.053982589495528165
33.414404,10.864914268945547,0.05363970219735086
33.419,10.849660968074097,0.05328299566149934
33.42359999999999,10.835595612527213,0.052942934446977896
33.428192,10.829869536437448,0.05258984556880456
33.432784,10.824554155938753,0.05225122688558309
33.437372,10.819527286316976,0.051931012846145
33.441959999999995,10.818997588933437,0.05160910440116972
33.44654799999999,10.820433086607972,0.0513090464913234
33.451139999999995,10.822645834016004,0.05101211485318467
33.455735999999995,10.826413080891042,0.050722268964535924
33.460328,10.829691588909498,0.05044776532868396
33.464915999999995,10.833502977233165,0.050184325262115415
33.469491999999995,10.83478238837666,0.049943597071901935
33.474076,10.833529822339989,0.04972612171536618
33.478663999999995,10.83191070216088,0.04952013242291097
33.483244,10.827226724496388,0.049325953437370784
33.487832,10.823442181279546,0.04913083503115369
33.492428,10.81413884666267,0.04893982292480829
33.497015999999995,10.799971785665118,0.04876037378600489
33.501608,10.780818813572743,0.04859641087209855
33.506204,10.751161138985516,0.048452196357426924
33.5108,10.712020381065225,0.04832369555781269
33.515387999999994,10.671080754249639,0.04819412090531158
33.519988,10.62245691299629,0.048079708332921293
33.524576,10.566026672591025,0.04798480331033286
33.52918,10.50383327135744,0.047901551314462554
33.533767999999995,10.428725375162974,0.04785896091094542
33.538371999999995,10.347321437834974,0.04781566923604335
33.542956,10.2610537741263,0.04778377364154279
33.547552,10.168001330427504,0.04776792460956959
33.552144,10.065832357538087,0.047755833568372257
33.556732,9.958266777962782,0.047741793952073175
33.561319999999995,9.846448395577529,0.04771875220968983
33.565912,9.731032275401686,0.04769541913849606
33.5705,9.609320114092306,0.04767062840145235
33.575084,9.482089161382893,0.04764928322298803
33.579671999999995,9.3484399828258,0.047630082102053176
33.584264,9.212869750659266,0.04761309370319647
33.58886,9.0717807270927,0.047599338766807366
33.593447999999995,8.925050727411953,0.04759601831632533
33.59804,8.78330663882603,0.04757325197087013
33.602619999999995,8.64066311579246,0.04754829346420558
33.607212,8.496098539149447,0.047525292641436935
33.611804,8.348469105021053,0.047517624515815655
33.616392,8.203005093930392,0.0474950724599985
33.62098399999999,8.058929256143962,0.04744914649011581
33.625572,7.919184264432998,0.04737200247532371
33.630176,7.777396034398446,0.04730385657844697
33.634767999999994,7.632010066573303,0.047233630551331285
33.639368,7.485969033728804,0.04715026056092393
33.643972,7.3473678458937774,0.04705248805870383
33.64856,7.208522288630462,0.0469622151311759
33.653156,7.073396653871882,0.0468613030789817
33.65773599999999,6.9382710191133015,0.0467580534738274
33.662332,6.802001580478782,0.046664083594625275
33.66692,6.665487772415972,0.04658243326981026
33.671519999999994,6.529751214086664,0.0465036212313849
33.676112,6.390050363824328,0.046442792169570306
33.680708,6.2548466858002305,0.04638078180418039
33.685303999999995,6.123729484423308,0.04628875842029866
33.689896,5.990569044722797,0.04620523406898136
33.694492,5.859984723651084,0.04612587560358176
33.699084,5.728378783417578,0.046049583359837026
33.703675999999994,5.598038831774158,0.0459487299225122
33.708271999999994,5.4702749987595345,0.0458523548130851
33.712864,5.342144611602476,0.04577162109663324
33.71746399999999,5.216590343074213,0.04569206461219731
33.722052,5.092957128155392,0.045603004404585326
33.72664,4.972022216579515,0.04551072938931635
33.731227999999994,4.851742370022995,0.04543246219100258
33.735823999999994,4.724433374048065,0.045407221250175094
33.740416,4.596102758911341,0.04539102620306959
33.745008,4.464707286289238,0.04539812821727311
33.749599999999994,4.333556183095425,0.04537666334731909
33.754192,4.208046056015791,0.04533522436364015
33.758784,4.086500220869186,0.04526322257812447
33.763372,3.9676526890655235,0.045188579401162374
33.767964,3.8573888061472754,0.04507047296395795
33.77256,3.7459811193530874,0.044974872126876564
33.777148,3.6358835625976123,0.04492385334166566
33.78176,3.525541636413846,0.04490060589273421
33.786348,3.4132786566206392,0.04488953879730406
33.790935999999995,3.299871872951492,0.04491055062241857
33.795531999999994,3.187120154301702,0.04495878049207021
33.800124,3.068971828966024,0.04500069400641002
33.80472,2.949679699754408,0.04508576175147981
33.809312,2.828344332219204,0.04520442672576885
33.813908,2.709951637455235,0.045274407890638316
33.818487999999995,2.5952788651960033,0.045319764723327716
33.823083999999994,2.482649331260358,0.045323844086152275
33.82767199999999,2.376393881723766,0.04516333989672785
33.83227599999999,2.270915681920676,0.04503213054917843
33.836859999999994,2.167114166298736,0.044941037119789744
33.841452,2.063845530982007,0.044899608194702345
33.846031999999994,1.956856973160541,0.044849228046559594
33.850624,1.8487246114631355,0.044840519924770096
33.855216,1.7404700650515845,0.04262448329435563
33.859807999999994,1.629150661154653,0.0404397180347302
33.864396,1.5219177339048955,0.038234541571491545
33.868984,1.4178718488546642,0.036004556385596756
33.873568,1.318689690185109,0.03374995614964315
33.878159999999994,1.222450204286789,0.03148553539951229
33.88276,1.1301750103214978,0.0291924982107573
33.887356,1.0463612805274736,0.02688598986280058
33.891948,0.9742401985528715,0.024588164395607872
33.896536,0.904040170187711,0.0222508875349443
33.90112799999999,0.835639010717846,0.019892703932676295
33.905708,0.7686701660008399,0.017588255484205305
33.9103,0.7043996246267773,0.015313813060239198
