Time,Force,Position
37.48522799999999,0.3851105007501969,0.0
37.489828,0.35735021758725927,0.0
37.49442,0.3285683152625279,0.0
37.49901199999999,0.30771499680385356,0.0
37.503592,0.287761112792827,0.0
37.50818399999999,0.26437581715398284,0.0
37.512776,0.23952156867065863,0.0
37.517368,0.21658837379677576,0.0
37.521964,0.1954540478181886,0.0
37.52655599999999,0.1761185907348971,0.0
37.531148,0.15780475281339917,0.0
37.53574,0.14411027184428615,0.0
37.54033199999999,0.13131522532282097,0.0
37.544924,0.11647694047776874,0.0
37.54951199999999,0.10331533981386655,0.0
37.55410799999999,0.0900315544358187,0.0
37.558696,0.0729056618388881,0.0
37.5633,0.05692357311789669,0.0
37.56788,0.04237379914976396,0.0
37.57247999999999,0.032565566848161843,0.0
37.577076,0.021735715384766204,0.0
37.581664,0.017690643911488203,0.0
37.586268,0.013645572438210204,0.0
37.590848,0.00755726264134516,0.0
37.595448,0.0022462025779822954,0.0
37.600036,0.0,0.0
37.60463599999999,0.0012245834161887714,0.0
37.609216,0.00539183960361244,0.0
37.61381599999999,0.009436911076890438,0.0
37.618408,0.012338178674229244,0.0
37.623004,0.01895936877630512,0.0
37.627588,0.026357808611883183,0.0
37.632176,0.03465568289510909,0.0
37.63678,0.042953557178335,0.0
37.64136799999999,0.053827550090358806,0.0
37.645948,0.06265830467879555,0.0
37.650536,0.07136687455308663,0.0
37.655124,0.07905382526558419,0.0
37.659724,0.0894390793210253,0.0
37.664312,0.10162320227176211,0.0
37.66891199999999,0.11254133663241406,0.0
37.673504,0.1252583398883617,0.0
37.678096,0.1349104856589288,0.0
37.682692,0.1414977739441153,0.0
37.68728,0.14604182390571477,0.0
37.69187599999999,0.15021931972487723,0.0
37.69646,0.1528056779854139,0.0
37.701052,0.15388167822757437,0.0
37.705648,0.1556127434890913,0.0
37.710236,0.15926486236004964,0.0
37.71482399999999,0.16009649317391875,0.0
37.71941999999999,0.16002868954014002,0.0
37.724012,0.15947214704977858,0.0
37.728604,0.1623911576358629,0.0
37.733188,0.16159024571721012,0.0
37.737784,0.16618594048444446,0.0
37.742372,0.17437937304227022,0.0
37.74697199999999,0.18784722757183742,0.0
37.75156,0.2009485279589676,0.0
37.756156,0.21086278614657153,0.0
37.760752,0.22155429406767765,0.0
37.76534399999999,0.22893657507511184,0.0
37.769936,0.2382399096919874,0.0
37.774532,0.2502415476518065,0.0
37.77911999999999,0.26674035784986494,0.0
37.783716,0.2881028944285996,0.0
37.788308,0.3102426807408364,0.0
37.7929,0.3303392287294862,0.0
37.797488,0.3514573958799295,0.0
37.80207599999999,0.37478512751673365,0.0
37.806664,0.3991786197639596,0.0
37.81125599999999,0.4247600573357527,0.0
37.815848,0.4521403638028416,0.0
37.820436,0.4763777695190325,0.0
37.82503199999999,0.5054449997990103,0.0
37.829616,0.5331681982233856,0.0097894941034821
37.834212,0.5638001676021064,0.019202797708557602
37.83879999999999,0.5929659204110792,0.028809965196268234
37.843388,0.6245075638691867,0.038294922614649084
37.847996,0.6666421927194053,0.04718803130883692
37.85258399999999,0.7176150795150673,0.05591080334939355
37.857176,0.7838105482869641,0.06447760542606877
37.861768,0.8704691191899475,0.07286739017308122
37.86635999999999,0.976857683939144,0.081250057432148
37.870952,1.1039978616963464,0.0894442598953295
37.875544,1.244938546308664,0.09761753635917415
37.880148,1.4034777035463508,0.10572631253089179
37.884736,1.5807591372853462,0.1137683205969574
37.88933599999999,1.7729848817553957,0.12185346470045058
37.893924,1.9797442413654345,0.12994215137000503
37.89852,2.2050456494971185,0.13800846591836852
37.903108,2.4518317789216826,0.145999486447993
37.90770799999999,2.7185481301721226,0.1539062337947471
37.9123,3.0039626164752433,0.1617667959278022
37.916896,3.3043111738776787,0.16956824215064809
37.921476,3.6201266826846408,0.16755609307213845
37.926072,3.946012536210242,0.16591854223846886
37.930672,4.287487525854515,0.16405397182786954
37.93526799999999,4.640953913826868,0.16229811193727062
37.93986,4.997172986222532,0.16119158522704563
37.944452,5.3601429367914255,0.16021757485942212
37.94904,5.721958843852641,0.15931966904230133
37.953628,6.069118951059721,0.1585722369043177
37.95821599999999,6.400513356353618,0.15779058748301658
37.9628,6.710501083620152,0.15717697890468024
37.967392,7.00530013072734,0.1565675220064211
37.97198,7.283033585514371,0.15604371800716188
37.976572,7.54819862021948,0.15555185574695515
37.98116399999999,7.803693766165279,0.15495597105410797
37.985756,8.045676916132882,0.1543314050342983
37.990352,8.269318245558502,0.15369333918532155
37.994932,8.469509658633172,0.15313999334472997
37.999524,8.64437424319608,0.15272216872136693
38.00411999999999,8.802006909276054,0.1523313945444882
38.008708,8.943717786911808,0.1519713023701053
38.013304,9.073471168036374,0.15157383774507716
38.017892,9.187014249839798,0.15116686998464504
38.022488,9.283203228446146,0.15077836459069574
38.027076,9.363714788036566,0.15038872681211515
38.03167199999999,9.436110958334675,0.1498945972804277
38.03626,9.493406731370696,0.14943828805976997
38.04086399999999,9.536223270347097,0.14908525592852132
38.045452,9.57834060285551,0.148706694402816
38.050056,9.621968293382302,0.14829883906197158
38.05464799999999,9.661220996384998,0.14793202845909723
38.05924,9.699407938777274,0.1475539151734152
38.063824,9.741515031653947,0.14709603729795498
38.06842,9.778303561110253,0.14666240010457562
38.073008,9.805687050499015,0.1463096887870755
38.077604,9.828651410915056,0.1459693047378649
38.082196,9.846874229664566,0.1456849893791856
38.086788,9.87032732893719,0.1453254737602747
38.091376,9.901298316484803,0.1448500580466874
38.095964,9.933002412317293,0.14434626420878582
38.10055199999999,9.962619128377565,0.14384495610491208
38.105144,9.985529107713237,0.14339517274479954
38.109736,10.007661837315407,0.14294889422626508
38.114332,10.030527675202453,0.14247309253788445
38.118928,10.054903871107873,0.14196537078488508
38.123516,10.079235925564667,0.1414356829791893
38.128108,10.106099957201629,0.14086057299050303
38.132688,10.138560823504143,0.14019973309471348
38.13727599999999,10.16509220281556,0.13958292321149507
38.14187999999999,10.183406487383996,0.13904607034182817
38.146468,10.206051618027901,0.13844606208487667
38.15107999999999,10.222767261680708,0.1378855895112734
38.155672,10.233431233628272,0.13737315749445272
38.16026,10.24368450998477,0.13684828119457187
38.16485599999999,10.258513001845024,0.13625070208603215
38.169444,10.277427970352452,0.13560453048355955
38.17404799999999,10.301040339077785,0.13488156109264143
38.178644,10.316557797774284,0.1342293405316895
38.18324799999999,10.326800834499043,0.1336208209633142
38.18782399999999,10.333323948719066,0.1330487719999765
38.192424,10.339069813205585,0.13247964749300192
38.197012,10.345060047120395,0.13189932677436167
38.20162,10.353582258215374,0.13127494779383006
38.20620399999999,10.358262362091471,0.13069027375423095
38.210804,10.35844529372933,0.13014260266645106
38.2154,10.350699641501134,0.12968308050020014
38.219984,10.342421108967724,0.12921688907839873
38.224572,10.329401034767784,0.12879645485100005
38.229168,10.32010088307258,0.12834231407683352
38.233772,10.314765023310407,0.12784395959260833
38.238364,10.309429163548232,0.1273468630769753
38.242952,10.310633714347885,0.12679092019291283
38.24754,10.31490312263292,0.12620003768682847
38.252132,10.321093584527393,0.1255918583809318
38.25672,10.325895873117636,0.12501208285169313
38.261312,10.325057185593701,0.12448300966068275
38.26590399999999,10.320787086441946,0.12400335800538585
38.270496,10.321913593976081,0.12348346062745885
38.27508,10.324594600977221,0.12296029752508308
38.279664,10.327031238550068,0.12244569119785179
38.284252,10.330122941142275,0.12193472509008747
38.28883199999999,10.337345261830283,0.12140779566796288
38.293428,10.341013986176325,0.1209346950657414
38.298016,10.349179882760605,0.12043035898228895
38.302604,10.361720766868984,0.11990015238125598
38.3072,10.380802061539185,0.11931567363819878
38.31178799999999,10.397351379029217,0.11877474475255935
38.31638399999999,10.415333011272109,0.11823619586924183
38.32095999999999,10.432825904658415,0.1177196600369643
38.32556,10.449952243902288,0.11721919530123871
38.33013999999999,10.46569040984193,0.11674591931036511
38.33474,10.480162587191487,0.11629582255657489
38.33933199999999,10.49210278736087,0.11588732785099126
38.34392,10.50175537977838,0.11551055768878707
38.348516,10.512307406643536,0.11512927987213407
38.353112,10.525191182709198,0.11474472553464762
38.35769199999999,10.541794881279598,0.11433353230163808
38.36228,10.557010406545768,0.11394835948948
38.366868,10.573902615993084,0.11355854105064785
38.37146799999999,10.594759117373433,0.11313345236101291
38.376056,10.617658857077368,0.11269034380249082
38.380644,10.637083043704857,0.1122666511651551
38.385232,10.66455799891255,0.11177093771459061
38.389828,10.692932388567888,0.11127445133235019
38.39442,10.722206212670875,0.11077729975267764
38.39901199999999,10.751602221488007,0.11027976751958549
38.40359599999999,10.78381871836223,0.10976430807762566
38.408184,10.817056834398246,0.10924121171837707
38.41278,10.846819397357814,0.10873384268360636
38.41736,10.879646817802763,0.1082017769923011
38.42194799999999,10.913618042123653,0.10765796394178755
38.42654399999999,10.946934201425186,0.10711263735731535
38.431132,10.982660153192741,0.10653709888040161
38.43572399999999,11.021450962445682,0.10593636963334646
38.440312,11.061263390860411,0.10533091377274523
38.4449,11.103485611741167,0.10469787478334934
38.449504,11.143908963726627,0.10407777853454701
38.454084,11.18788591205405,0.10341794464623719
38.45868,11.229408926466817,0.10276599238407198
38.46326799999999,11.269010887270149,0.10213116876675768
38.46786,11.305670175302241,0.1015210110229167
38.47244799999999,11.345149951391425,0.10089648066297574
38.477048,11.375923893881046,0.1003364026923073
38.48163999999999,11.401545599113076,0.09979504576707082
38.486236,11.420993447925715,0.09927965070365356
38.490832,11.436721374233617,0.09878634080454787
38.495428,11.449218116893366,0.09829775498821733
38.500024,11.462570152552134,0.097781941460435
38.50462,11.480008664858076,0.09723376207754893
38.509208,11.490007332154544,0.09672589838908728
38.51380399999999,11.497674250250506,0.09621778881000603
38.518396,11.503664484165318,0.09571337282335203
38.52298,11.508633098918336,0.09521833771328911
38.52757199999999,11.50640623809017,0.09475259772379876
38.532168,11.501603258633207,0.09429468812077643
38.53676,11.493857606405008,0.09385681380562555
38.54136,11.488399561928688,0.09339611468574767
38.54595199999999,11.479221594947632,0.09295474869237393
38.55054,11.470287997394866,0.0925047163558672
38.55512399999999,11.463764192308123,0.09202829741766327
38.559712,11.456829691630317,0.09153814849290191
38.56430399999999,11.444742953694913,0.09105949236464496
38.56889999999999,11.432245520168443,0.0905654621927123
38.57348,11.419625901927828,0.09007353273977464
38.57807199999999,11.408927337296653,0.08956886777653747
38.582668,11.400394195703212,0.08904478738479289
38.587256,11.392760488557416,0.08851666532804774
38.59185599999999,11.379896500888512,0.08802842443444765
38.596448,11.364456394590807,0.0875452089180531
38.601044,11.355678883569077,0.0870269539290537
38.60562399999999,11.3467791878332,0.0865116159390578
38.61022,11.33992273042091,0.08598165851952959
38.6148,11.330612339093966,0.08545169725724816
38.61939999999999,11.3269429238812,0.08489372154066621
38.623988,11.32069739003964,0.08433895581209652
38.628584,11.312897356731074,0.08378057812681525
38.633172,11.297413108984738,0.08326028113788393
38.637768,11.280007807628966,0.08274822987515341
38.64235599999999,11.262480321559048,0.08223943185766404
38.646948,11.23894530523251,0.0817666611881464
38.65154,11.217331342515418,0.08128321330082165
38.65613999999999,11.20099180177007,0.08078698127196808
38.660732,11.188127814101163,0.08028291314445762
38.665324,11.181026987260582,0.07975144500142296
38.66991599999999,11.17764608292474,0.07920639600960834
38.6745,11.170423071370013,0.078678282086169
38.679084,11.16422167897708,0.07814376148939947
38.683676,11.161740209088885,0.07759433441497048
38.688272,11.158892185058253,0.07705610232804483
38.69286,11.155144726579973,0.07652220744019117
38.697456,11.153073952282842,0.07598757402309714
38.702044,11.150636623843274,0.07546574813281828
38.70662,11.151674848480155,0.07493919010364779
38.711212,11.154389757298182,0.07441416799041174
38.7158,11.16045803447851,0.07388808420931006
38.720384,11.170001864735285,0.07335818792889864
38.72498399999999,11.187229909429826,0.07279586214637199
38.72958,11.209732376096106,0.07222733661700474
38.734176,11.233134277210036,0.07165837193049035
38.738752,11.262299339152287,0.07106708118159945
38.743348,11.291997281399752,0.07048882242872237
38.747928,11.317975301142482,0.06992381718593679
38.752528,11.344852755332855,0.06935967290223208
38.75711999999999,11.370708590361435,0.06880610586526059
38.76170799999999,11.392722318171133,0.06826884770024323
38.766288,11.422542445132745,0.06770193763567137
38.770884,11.451096583504269,0.06714975439797187
38.77548,11.48169396019938,0.06659001582306957
38.780072,11.515889074685083,0.066026423361996
38.784676,11.549062570008992,0.06547112917327441
38.78926799999999,11.5822360653329,0.06491785416925207
38.793856,11.616308995104458,0.0643657336135281
38.79844799999999,11.649238121000076,0.06382496704223463
38.80303599999999,11.681389997162192,0.06328547800275675
38.807628,11.71546292693375,0.06274284031014461
38.81221599999999,11.749291487277018,0.062210553892533514
38.816796,11.778011951811315,0.061704115094401796
38.82138799999999,11.802357428821518,0.061201571270320054
38.825968,11.828623959441167,0.060696040559303714
38.83056,11.85194781728958,0.0602030769064159
38.835152,11.873472806242695,0.059713469114283005
38.83973999999999,11.894875610481664,0.05922726757756672
38.844348,11.910515253892308,0.058757121048755766
38.848936,11.917571248417541,0.058308647211691066
38.85352399999999,11.926670481266362,0.05785147419535983
38.85811999999999,11.927596760820833,0.05743079513365766
38.862704,11.925824737032361,0.05701118793001781
38.86729999999999,11.918411737129711,0.05660299958683649
38.87188,11.905602130541174,0.05619841273005904
38.87647199999999,11.88792879757196,0.055806503659177976
38.881052,11.865636107650362,0.05541967270063209
38.88565199999999,11.837702441614583,0.05504221685210596
38.890236,11.80911371055945,0.05465710292540984
38.894828,11.7745174492477,0.05429174802629808
38.89941999999999,11.73403584239348,0.05394274052196745
38.904012,11.686236575243933,0.05359873935434938
38.90859999999999,11.640236176989681,0.053251934783663794
38.91319599999999,11.592847605431198,0.05291795420920979
38.917796,11.536508830844866,0.05261113028128787
38.922392,11.476205764325503,0.0523142308285727
38.92697999999999,11.412715655606616,0.05203087427760609
38.931564,11.347304493278289,0.05174905573316545
38.93615199999999,11.285246699312259,0.05147117323821669
38.940752,11.227563892870325,0.051192524260514544
38.94534,11.166205305372282,0.050942950513617746
38.949936,11.105623967607741,0.05069470565624507
38.954516,11.04635275988191,0.0504590090994284
38.959096,10.986348443871208,0.05024377461232728
38.963688,10.927532073185072,0.050045050674290985
38.96827199999999,10.867571898622996,0.049851468158092355
38.97286,10.811864526870869,0.04966251195354879
38.97745199999999,10.757711654585748,0.049478784474217066
38.98204,10.698206317063367,0.049320893489954734
38.986628,10.64217653261743,0.04916470622339681
38.991224,10.585002944295555,0.04901465307739861
38.995812,10.531060539621835,0.04887397780442391
39.00040799999999,10.471232789405644,0.048748164212497946
39.004996,10.408217996989928,0.04863739189681707
39.00959999999999,10.349822561526596,0.04852067306619703
39.01418,10.292859440816121,0.04841468683257632
39.01877999999999,10.233853081782064,0.04831573494980083
39.023368,10.17243693028198,0.04823617055664346
39.027968,10.106401421829512,0.048159752325834776
39.03256,10.036279436729869,0.04809927178507745
39.03715199999999,9.960516475516046,0.04804752719117587
39.041732,9.876947115150314,0.04801753644111957
39.046328,9.786959528936901,0.047991593065464314
39.050924,9.694395824094688,0.04796068878700788
39.055524,9.598234381461888,0.04792883453749334
39.060116,9.502483634420148,0.047914738931353076
