Time,Force,Position
41.083328,0.025509206450023806,0.0
41.08791599999999,0.02002615025684657,0.0
41.092512,0.01748576683490424,0.0
41.0971,0.01748576683490424,0.0
41.101688,0.01748576683490424,0.0
41.10628,0.01748576683490424,0.0
41.110868,0.01748576683490424,0.0
41.115456,0.01748576683490424,0.0
41.12004399999999,0.017485766834904243,0.0
41.124636,0.017485766834904243,0.0
41.129228,0.017485766834904243,0.0
41.13382,0.01482319869881624,0.0
41.138412,0.01023957695328686,0.0
41.14299199999999,0.004634336045963954,0.0
41.147592,0.000950148748082426,0.0
41.15218,8.644950729012307e-05,0.0
41.156784,0.0,0.0
41.161368,0.0,0.0
41.165964,0.0,0.0
41.170552,0.0,0.0
41.17514799999999,0.0003749603842096173,0.0
41.17973599999999,0.0008721054825649058,0.0
41.184328,0.004434108066300763,0.0
41.18891599999999,0.011060968135417189,0.0
41.193512,0.019608881813974986,0.0
41.198104,0.031099468263767683,0.0
41.202692,0.03976956665647115,0.0
41.20728,0.0474180458873811,0.0
41.211876,0.05506652511829104,0.0
41.21646799999999,0.05977233157796609,0.0
41.221056,0.06525538777114333,0.0
41.225656,0.0716378784119684,0.0
41.230244,0.07814255376693915,0.0
41.23482799999999,0.08489159855020124,0.0
41.239424,0.09164064333346333,0.0
41.244016,0.0973680689549319,0.0
41.24862,0.10219606012875264,0.0
41.253204,0.1080456704643669,0.0
41.257796,0.11569414969527686,0.0
41.262388,0.12346481364033246,0.0
41.26698,0.12701840998229572,0.0
41.271584,0.12930601773417413,0.0
41.276164,0.12726277941058708,0.0
41.28076,0.12407573721106084,0.0
41.285348,0.11552782353250306,0.0
41.289948,0.10403723708271034,0.0
41.294528,0.09598646850250782,0.0
41.29912,0.08932387322653584,0.0
41.30372,0.08266127795056387,0.0
41.308308,0.07881917073168111,0.0
41.31289199999999,0.07432199849344187,0.0
41.317476,0.06802595735990688,0.0
41.32208,0.06365096983581332,0.0
41.32668,0.05878724345513706,0.0
41.331272,0.05203819867187496,0.0
41.335872,0.04807390673884654,0.0
41.34045999999999,0.04500904925346597,0.0
41.345044,0.04362087594923543,0.0
41.349636,0.038146225997830796,0.0
41.354232,0.036968520305002237,0.0
41.35883199999999,0.04749370206333452,0.0
41.36340799999999,0.07099799949465133,0.0
41.36799599999999,0.11488735579153739,0.008564759736588585
41.372576,0.17380930571673378,0.017466988064081413
41.377168,0.25852132743515915,0.02613582234925768
41.381764,0.3670939610955995,0.03448699661867766
41.386352,0.49759774684684105,0.04262857149275549
41.39095999999999,0.6449329951216887,0.05092272399840281
41.39554799999999,0.8133083672814619,0.05917655416690788
41.400136,1.0048892863638936,0.06731539413043874
41.404732,1.2217631321411992,0.07533222983022107
41.409324,1.4597992865175762,0.08335443763917841
41.413916,1.717198880597729,0.09134024376133573
41.418508,1.9976376954377664,0.09923822455219368
41.42309999999999,2.3034117450313394,0.1070635715724338
41.42768,2.6275633503737503,0.11491320495146129
41.43227999999999,2.973654514048735,0.12275599998856372
41.43686,3.333590326027462,0.13067329897571886
41.44145999999999,3.718486412375516,0.13853772272255924
41.446056,4.120448091043729,0.14634526367992476
41.450656,4.531814809779487,0.15407112770117617
41.455248,4.941328278539581,0.161742215936408
41.459844,5.335442599528928,0.1607991623973639
41.464432,5.7184886188229935,0.15943083556824106
41.469028,6.083637414983031,0.15821250758229316
41.473632,6.426313772505284,0.1572777474424438
41.47821999999999,6.745950909267654,0.15657659933244705
41.48280799999999,7.05313157103051,0.155661205824594
41.487396,7.342459151107968,0.1547332833499321
41.49198,7.609724988138706,0.15390484933944154
41.49658,7.850387768435855,0.1531883213357196
41.50116799999999,8.072953097619315,0.15242975406615575
41.50576,8.273989564061267,0.15171342330439175
41.510356,8.452886244190982,0.1510870761349591
41.514944,8.610254061579187,0.15050863287416108
41.519536,8.749768797281995,0.14986408865262255
41.524128000000005,8.866933279061161,0.14921262431511934
41.52871999999999,8.972007839983254,0.14840999380116981
41.533316,9.052077985087392,0.1476703357547135
41.537904,9.104611737193407,0.14704050609423897
41.542508,9.136648485351444,0.1465123637832728
41.547088,9.158903399667757,0.1459957771558627
41.551692,9.178538053906648,0.14547615945406744
41.556288,9.188645483363848,0.1450497849472384
41.56087599999999,9.192456871687515,0.14469364016723538
41.565476,9.191771087772945,0.14438540572496164
41.57006799999999,9.19255152042812,0.14400588363887215
41.574664,9.18278310913981,0.14372998498052256
41.57924799999999,9.165819222270322,0.1435306699283598
41.583844,9.148811193952204,0.14329859713832527
41.588432,9.131148100614727,0.1430629524574391
41.593032,9.110253823629096,0.14284672772218146
41.59761999999999,9.088538155461334,0.1426012786413363
41.60222,9.06420222721615,0.1423457317708449
41.606804,9.037246038893537,0.14207913138001393
41.6114,9.004360363579828,0.1418590475215878
41.61599199999999,8.9719634271227,0.141613192393224
41.620588,8.930083407332514,0.14148279803604175
41.625184,8.894455287227233,0.1412521486464506
41.629784,8.86585631654036,0.14091967998389218
41.634376,8.841466007214809,0.140518547653984
41.63896799999999,8.817608578194466,0.14012428924282208
41.64356,8.788520868651013,0.1398097316410797
41.648144,8.757800616375036,0.139539297712886
41.652732,8.729412113299562,0.13925724390925542
41.65732799999999,8.705765151890622,0.13891508072100467
41.66192,8.681629451625097,0.13859561148434482
41.666512,8.665710846102554,0.13818549363915042
41.671104,8.6533899783706,0.13773625388531052
41.675692,8.63865931817262,0.1373349209141132
41.680288,8.628836525803946,0.13690227321739631
41.684876,8.623266536245218,0.1364365244868666
41.689464,8.619006676725204,0.13597618978232726
41.69407199999999,8.618999620015138,0.1354828247389249
41.69866,8.620469019506562,0.13502270184687246
41.703256,8.630321839903731,0.13450424552946869
41.707844,8.642794920378329,0.13400066050069534
41.71243199999999,8.665816844796407,0.13340411849181633
41.717028,8.683530445425857,0.1329286958901385
41.72162,8.70284268697094,0.13248385987198188
41.726224,8.724530819165155,0.13206739359574993
41.730816,8.747162527255648,0.1316772434153992
41.735412,8.775723722337238,0.13124423007009237
41.739992,8.81495594607646,0.130715652719409
41.744592,8.854232311264306,0.13022089193394903
41.749172,8.894207882920139,0.1297663007503737
41.753772,8.936148649634038,0.12932475364933962
41.758368,8.9828750994631,0.12887299926717416
41.762964,9.03720772046441,0.12837948651872635
41.767556,9.097347643742669,0.12785669089347293
41.77215199999999,9.156754458736055,0.12737382908333977
41.776752,9.216205415178068,0.12692948899796555
41.781344,9.279542620287593,0.12647960235941558
41.785932,9.341902347683952,0.12607770619068684
41.790528,9.406060943975609,0.12566341583848586
41.79512,9.467809747801242,0.1252980666654582
41.799708,9.530213616646229,0.12494116152485696
41.804296,9.587875943824686,0.12463689605388387
41.808896,9.652078681564971,0.12427284877551098
41.81348,9.717958103486405,0.12390514332110696
41.818072,9.78600294844557,0.12351539280792888
41.82266799999999,9.856746096747681,0.12310985793908617
41.82725599999999,9.93198641728803,0.12267784982180517
41.831856,10.009514345580257,0.1222263898551458
41.83643599999999,10.08945206633851,0.12173952269698703
41.841036,10.170122895381636,0.12122810253281333
41.845624,10.252304082443139,0.12069238936348152
41.850212,10.329333032247046,0.12019559407257578
41.85480799999999,10.398511441450411,0.11975233933958523
41.859396,10.468422958938653,0.1192893788919934
41.863984,10.539189769425914,0.11879785621425074
41.86858,10.607091950407458,0.11830485240832002
41.873172,10.671230067435639,0.11781765412338553
41.877768,10.738266715786423,0.11728096748237063
41.88234799999999,10.804115418812637,0.11673667959268794
41.886948,10.86734386176143,0.1161802460833407
41.891536,10.927052610185147,0.11561881001026232
41.89614,10.989537705217323,0.11501377086749133
41.900724,11.047848040705071,0.11440300197473927
41.90532399999999,11.098263694143652,0.11380790884393154
41.90992,11.139396492228837,0.11325315908286329
41.914512,11.175210726893651,0.11270330510741357
41.919104,11.201742106205067,0.11219289903469395
41.9237,11.216703022411208,0.11175018337382377
41.928292,11.228677124397484,0.11130775525083367
41.93288799999999,11.232678501069074,0.11090742172147189
41.937476,11.23177200991136,0.11052145281188021
41.942072,11.22235991313375,0.11016776922370214
41.946664,11.213436555212722,0.10979552344468914
41.951252,11.193597799205776,0.10948910363973972
41.95584,11.166930121760084,0.10920923173422305
41.960436,11.138175064542173,0.10892086340803518
41.965028,11.105167204514318,0.10864751311369121
41.96961999999999,11.066352042209513,0.10838987257940765
41.974212,11.024427880970695,0.10813250307824956
41.97879999999999,10.982992458588459,0.10785504853827851
41.983396,10.94090197118687,0.10757141220930137
41.987984,10.890472204328155,0.10733891459224437
41.992572,10.836200330250561,0.10713245936066484
41.997168,10.788224497306501,0.106889621859976
42.001756,10.74474583660068,0.10662072483733818
42.006344,10.703066044790157,0.10634012724517895
42.010936,10.664328925750867,0.10603427763588981
42.015536,10.628534479482811,0.10570296174950751
42.020132,10.591596229338816,0.10538372888113445
42.02472399999999,10.563119443366087,0.10500692967981062
42.02932,10.534276103250924,0.10464213928806958
42.0339,10.51634816122168,0.10421508217218269
42.038496,10.498298034478289,0.10379170431607124
42.043088,10.488465002477875,0.10332042363217203
42.047688,10.482762588573264,0.10283805409728469
42.05227599999999,10.477226500831424,0.10237690958669847
42.056864,10.477619900080683,0.10189639695239962
42.061448,10.477813071350282,0.1014510756142133
42.06604399999999,10.480870872125593,0.10101473511097446
42.070632,10.482829010473594,0.10061952201520909
42.07522399999999,10.483687486394286,0.10026471930930425
42.079816,10.492396502915517,0.09987762906559486
42.084416,10.507157191141992,0.09946858720675505
42.089004,10.522206390245383,0.09908101768087486
42.0936,10.537666284939844,0.09870855207491595
42.09818799999999,10.555213559406518,0.09834787294162077
42.10277599999999,10.57497039835955,0.09799395338455048
42.10736,10.602089039056544,0.0976318731138233
42.111952,10.63525935145878,0.09725200569501093
42.116544000000005,10.667940925004432,0.09689435804238981
42.121132,10.70385368219824,0.09653460785795778
42.12572399999999,10.739155515821315,0.09620194052871266
42.130308,10.774090795301959,0.09588290695597493
42.134896,10.811602193411398,0.09556087544953062
42.139504,10.853610763759079,0.09522318330241364
42.144092,10.903059179116232,0.09484952624277429
42.14869999999999,10.95545026724462,0.09446132002151325
42.15329199999999,11.015892123953213,0.0940175981673774
42.157896,11.080420457308978,0.09354802724932916
42.162488,11.14927963674021,0.09304171068408226
42.16708,11.223369096694556,0.09249409711342395
42.171672,11.295004622734247,0.09195336114526119
42.17626799999999,11.366762333488087,0.09141524380215808
42.18086,11.436310479755562,0.09087524705685289
42.18544,11.51006728738436,0.09030778627159762
42.190044,11.578916227183852,0.0897464144898879
42.194632,11.64813172112578,0.08917805362273849
42.199236,11.70728710998081,0.08862765606053748
42.203828,11.763333499901831,0.08807987806422872
42.208428,11.816515260317134,0.08752452111159768
42.213016,11.86707676065501,0.0869517216693756
42.217608,11.912974762591874,0.08637651281547379
42.2222,11.959605872813613,0.0857783867586346
42.22679599999999,11.995932508520161,0.08520125757917008
42.231392,12.022976288873311,0.08463804762171466
42.235992,12.041758833034853,0.08408260187642189
42.240584,12.05293520602415,0.0835386077237703
42.245172,12.053440550355816,0.08302482285919971
42.24976,12.045318104353443,0.0825268353806291
42.254344,12.033309409683559,0.08202318341594741
42.25892399999999,12.015737782165012,0.08151395379889606
42.263524,11.99607877487425,0.08099172709098226
42.26811599999999,11.965993108354153,0.0804854892168236
42.2727,11.930755204576458,0.07998365609977855
42.27729599999999,11.884846272141136,0.07950543006412757
42.281876,11.839303893848246,0.07901229944973782
42.286468,11.78987526688785,0.07850941344094281
42.291056,11.74441093186048,0.07798194627550406
42.295644,11.689952252356633,0.07747346923005613
42.300232,11.62985259673861,0.07698203564060718
42.304828,11.56987512583473,0.07648271368593541
42.309416,11.506299917140261,0.07598750372808459
42.314008,11.441947458712288,0.0754868828496837
42.31858799999999,11.382214357236702,0.07496641090819046
42.32318,11.32571243940927,0.07444479476788847
42.32776,11.269743401887048,0.07392847292360397
42.33236,11.21250837577474,0.07342125634123237
42.33694799999999,11.159648337186526,0.07290365154908394
42.341548,11.109364417227109,0.07237962844959085
42.34613999999999,11.05667070480167,0.07187546850110993
42.350736,11.005164937700796,0.07138344666343562
42.35531999999999,10.95623528922872,0.07088647700303098
42.359912,10.91168062828074,0.07037834425614513
42.364504,10.873422008466294,0.06985424864521678
42.3691,10.840559995337735,0.069315312817097
42.373688,10.808108677800242,0.06878810123876063
42.378272,10.775168621406165,0.06827375962543004
42.382852,10.740596022279565,0.06778344784207212
42.38744799999999,10.717061005953031,0.06726243569450534
42.39204,10.701376530227039,0.06673303633551496
42.396636,10.685858380663817,0.06622534474720176
42.401228,10.677413521967631,0.06570812300623129
42.405816,10.676041954138489,0.06518560379302782
42.4104,10.67471452775797,0.06468935250743092
42.41498,10.676984839168043,0.06418825489421963
42.419568,10.68735006060695,0.06367748985438121
42.42416399999999,10.70875286484592,0.06314569005168576
42.428752,10.732853972427835,0.06261260008985328
42.433352,10.760064078943756,0.06209244326872329
42.43794799999999,10.795369095488509,0.06156427958902015
42.442536,10.837214522595087,0.06102449470039302
42.447132,10.88204676392153,0.06050472167770743
42.451724,10.93857165306739,0.05997715045241184
42.456328,10.995629422518466,0.05946497679161522
42.460904,11.059760482836579,0.05895587206169233
42.465504,11.132475192040106,0.05842974580592141
42.470084,11.210097769072933,0.05791687611320645
42.474692000000005,11.295404560543528,0.057387984969372405
42.47928399999999,11.378423744262244,0.05688237411458654
42.483884,11.461565112695109,0.05637838563116968
42.48847599999999,11.545728100289766,0.05587243227487086
42.493072,11.62862509929434,0.055383268482527295
42.497664,11.702694079985207,0.054926407330275
42.50225999999999,11.782770590932689,0.05445168271979717
42.50684799999999,11.862847101880174,0.05398220850345504
42.511448,11.934339963942243,0.053536170372038616
42.516036,11.996471927385397,0.053110644051417355
42.52063199999999,12.056316283076672,0.0527034913444691
42.52522,12.113584520139147,0.052296296380261176
42.529808,12.158671370525617,0.05190918057687333
42.534396,12.195052387312534,0.05154533593558664
42.53899199999999,12.220395821299379,0.051192254550894684
42.543584,12.230737380553133,0.05086323946634017
42.548176,12.235560148406858,0.050539434745345516
42.552772,12.2241150529374,0.05024788048488726
42.557352,12.193337236659383,0.04999879636023285
42.561944,12.1515218375813,0.04975795973912945
42.566536,12.094338009627684,0.049547349534243605
42.571124,12.029469967236308,0.04935068926303642
42.57573599999999,11.953197787902424,0.04917155390534935
42.580316,11.870385198006714,0.048997886002770184
42.584908,11.776290655882649,0.048838046057489835
42.589496,11.67565570319676,0.04868429995023415
42.594084,11.55707620300654,0.04855529449124392
42.59868,11.425171512264374,0.04844681245758955
42.603276,11.281984869293854,0.04835227478263825
42.607868,11.129848023295484,0.04828325510168833
42.612448,10.964630356173458,0.048229240357907335
42.617048,10.78890798655658,0.048192399876088456
42.621636,10.614984485834997,0.04815243574972403
42.62623599999999,10.437341062608677,0.0481129066257419
