Time,Force,Position
34.029712,0.0940277760626332,0.0
34.034304,0.08237926969183929,0.0
34.038895999999994,0.07367343609228028,0.0
34.043488,0.06611140636866045,0.0
34.048075999999995,0.058671561359186296,0.0
34.052671999999994,0.05585107330209707,0.0
34.05726,0.0503322819020643,0.0
34.061851999999995,0.042615643098453955,0.0
34.066447999999994,0.03412175456134143,0.0
34.071036,0.033955428398567605,0.0
34.075627999999995,0.03881915477924388,0.0
34.08021599999999,0.0398407739410374,0.0
34.084804,0.04188401226462444,0.0
34.089408,0.04699210807359205,0.0
34.093996,0.048380281377822576,0.0
34.098592,0.05733048440567295,0.0
34.103168,0.06847853483710087,0.0
34.10776799999999,0.07950440055438313,0.0
34.112348,0.08624503909587262,0.0
34.116947999999994,0.09547203591785917,0.0
34.12154,0.1016017508886203,0.0
34.126127999999994,0.1097747041829685,0.0
34.130711999999995,0.11500498470608178,0.0
34.135307999999995,0.12395518773393212,0.0
34.139903999999994,0.13482644437122387,0.0
34.144499999999994,0.14402101682736557,0.0
34.149088,0.15591389262645083,0.0
34.153679999999994,0.16669538891544172,0.0
34.158272,0.17531146216669993,0.0
34.162856,0.1804636994242957,0.0
34.167435999999995,0.18034151471015,0.0
34.172031999999994,0.17829827638656295,0.0
34.176624,0.17421179973938888,0.0
34.181211999999995,0.16420755318390015,0.0
34.185807999999994,0.1582000229272847,0.0
34.190392,0.1483503854517865,0.0
34.194987999999995,0.1410768666050862,0.0
34.19958,0.13224884829138148,0.0
34.204168,0.12599694860647467,0.0
34.20876,0.11716893029277,0.0
34.21335199999999,0.11140576946444587,0.0
34.217952,0.10449880476018254,0.0
34.222548,0.1001679586847171,0.0
34.227144,0.09121775565686675,0.0
34.231748,0.08202318320072503,0.0
34.236335999999994,0.07450529492573335,0.0
34.240928,0.06535486391821979,0.0
34.245515999999995,0.0627889849211607,0.0
34.250111999999994,0.07049367862240374,0.0
34.25469999999999,0.08500363157724203,0.0
34.2593,0.11953208925521258,0.009248373237009382
34.263887999999994,0.18164108137993523,0.01757945242294271
34.268488,0.2676106854466729,0.02570504520960816
34.273084,0.37873931441135533,0.03370449186763114
34.27767599999999,0.5095655128564056,0.0416700394402722
34.282256,0.6556245329094295,0.04976496179679679
34.286852,0.8183486893232855,0.057872075940221916
34.29145199999999,1.0013357198885653,0.06601659918917134
34.296048,1.2084277318241512,0.0740669838653145
34.30063199999999,1.437825856234748,0.08206151960600996
34.305215999999994,1.681679552519816,0.09012962442216785
34.309811999999994,1.943298047593027,0.09819145820085165
34.314395999999995,2.219616483969001,0.106295934268817
34.318988,2.5177081525147753,0.11436928354962296
34.32357999999999,2.834097500153903,0.1224313561505593
34.328176,3.16584185411515,0.1305220345822313
34.332752,3.517472288453645,0.13855319479606884
34.337352,3.880072501958427,0.14654764999842362
34.341939999999994,4.247702768006659,0.15448695942818946
34.346532,4.621696878822205,0.16229524842629056
34.351124,4.980780580723588,0.16079634545534455
34.35570799999999,5.308519684224853,0.1602653987941608
34.36031199999999,5.611576784601974,0.15992795815437366
34.3649,5.890484762160159,0.15971162051744162
34.369499999999995,6.150562180319779,0.15950976440231338
34.374092,6.397327830480868,0.15913480469375593
34.37868,6.626773279261767,0.15870270657375798
34.383284,6.839020711376623,0.158193706546134
34.387876,7.0269968359584,0.15776813438606468
34.392467999999994,7.195731705550545,0.1573474083395203
34.397048,7.351443318021079,0.15683188394739303
34.401644,7.494908923103503,0.15625419365009358
34.40623599999999,7.626372890226107,0.15558479493468255
34.410836,7.742481851026592,0.1548854792877065
34.415423999999994,7.84233637105731,0.1541588823952876
34.420024,7.925936450318261,0.15339308548114577
34.424608,7.991038622506194,0.15268909180224663
34.429196,8.042550755450415,0.15199669830250798
34.433795999999994,8.080683316762324,0.15137220640484517
34.43839199999999,8.104747339605675,0.15088923250992486
34.442992,8.127423189144796,0.15044820001547726
34.447584,8.158604644303812,0.14991900214569465
34.452175999999994,8.191506925092606,0.1494081112814653
34.45676,8.229849954015917,0.14886757108590015
34.461352,8.271668536015673,0.14829612896806665
34.465948,8.313364933301282,0.14773872271940133
34.47053999999999,8.358536883663337,0.14715587421573395
34.475131999999995,8.406817832959403,0.14656516574335324
34.479727999999994,8.460661715104127,0.14594465986954483
34.484308,8.510952000906892,0.14540213636786328
34.488904,8.562386090585592,0.1448440056318416
34.493492,8.609978073045411,0.14434779678926646
34.498084,8.65589337132408,0.1438735401269991
34.502672,8.69808874709801,0.1434513602632587
34.507259999999995,8.736319830938914,0.14308831853890902
34.511864,8.778148652570408,0.14269124928045385
34.516456,8.823819581420784,0.14224813559906818
34.521044,8.866792206928219,0.1418358025194932
34.525631999999995,8.914628558816329,0.14136211599758533
34.53021999999999,8.967861517390325,0.14083582380473855
34.534816,9.023792779307266,0.14028779972316138
34.539404,9.077802987614765,0.13976908990217915
34.544003999999994,9.134633683979352,0.1392196703557493
34.548592,9.189010446429288,0.1386914471911771
34.553192,9.23823497162163,0.1382107244350847
34.557784,9.285904997346968,0.1377408252983372
34.562388,9.326257362776971,0.13735191806808272
34.566979999999994,9.363256359844678,0.1369914930444886
34.57157599999999,9.39816797714017,0.13663410202067197
34.57617199999999,9.440353113282365,0.13617644562221304
34.580768,9.48020650022405,0.13573213514133087
34.585359999999994,9.517850322679378,0.13529135640571938
34.589955999999994,9.552262961486548,0.13486940716131335
34.594544,9.587286523864446,0.13442248765546608
34.59914,9.627007486460249,0.13389605158201626
34.603728,9.660921146779097,0.13340803373972548
34.608315999999995,9.69119292785873,0.13292724756445953
34.61290399999999,9.72219781722323,0.1324147714582935
34.617484,9.749316457920225,0.13191976038451236
34.62208,9.773692653825647,0.13142359978864457
34.626676,9.795082035511205,0.13093518006051533
34.631268,9.818348329357576,0.1304002089853517
34.635848,9.840915416735964,0.12983713375410208
34.64044,9.86433779711337,0.12924051303713033
34.645028,9.888248916347358,0.12862311686424646
34.649615999999995,9.910972090256783,0.12799595684671414
34.654224,9.935327806898725,0.1273295556401116
34.658812,9.960416631825543,0.12663560648904415
34.663411999999994,9.98137483865656,0.12596325738109135
34.668004,9.99460468960118,0.12534319072979266
34.672608,10.007668214383028,0.12470160464323152
34.6772,10.02452970493513,0.1239960329063317
34.681788,10.04122486932446,0.1232663902775316
34.686384,10.058286587856225,0.12252527369404685
34.690963999999994,10.070851134149752,0.12182053527150533
34.69555999999999,10.083904419299863,0.12109443888439347
34.70014,10.092993412516943,0.12040870054446141
34.704739999999994,10.10028353683873,0.11973602444655504
34.709328,10.105774792265217,0.11907650241328868
34.713928,10.10754612518697,0.11844805782161637
34.718523999999995,10.106741339479923,0.11783320933393646
34.723116,10.10005120823041,0.1172766474782256
34.727712,10.08837516588607,0.11677110567341459
34.732304,10.071835397161056,0.11631112032666605
34.736904,10.055173443721896,0.11585526589129017
34.741496,10.039410924730387,0.1153925063471285
34.746084,10.020705732967642,0.11495654620153292
34.75068,9.998036249271868,0.11455921033760565
34.755272,9.974878026719512,0.11418016965303449
34.75986399999999,9.952252684472365,0.11380828828064382
34.764452,9.927461919187486,0.11346234338847475
34.769051999999995,9.897196503951202,0.11318566308219323
34.77363999999999,9.869140653201278,0.11290955683138007
34.77823599999999,9.836876141090034,0.11268101728035397
34.782827999999995,9.80796499734109,0.1124374739076821
34.78742,9.782285037240303,0.11218430540150318
34.792016,9.761346618806044,0.11189102299993291
34.7966,9.745149742038318,0.11155857726893552
34.801179999999995,9.727686876680508,0.1112454576165925
34.805764,9.710634706913758,0.1109454237405481
34.810351999999995,9.698734774404608,0.11062094097545708
34.814964,9.694030317476638,0.1102514378338175
34.819556,9.69382303278691,0.10985327941949044
34.82416,9.699012354783063,0.10942152006984968
34.828756,9.707677229855667,0.10897432319790591
34.833344,9.715853366071688,0.10854801268447353
34.837948,9.732002227602392,0.10807939922669037
34.84253999999999,9.75252607665719,0.10758965846213764
34.847131999999995,9.780489770721463,0.10704996265841038
34.85171999999999,9.81192901786218,0.1064959471863601
34.85632,9.845455644775114,0.10595171010356547
34.860907999999995,9.883601628640431,0.10537736011196519
34.865508,9.920359439201519,0.10483012604410342
34.870096,9.961736606714991,0.10425319159038766
34.87469599999999,9.998905112867144,0.10372272454619
34.879276,10.03595143430515,0.1032020073139059
34.883872,10.076351124105459,0.10267744017631966
34.888464,10.116628629191622,0.10216492901244309
34.89306,10.16344654483961,0.10161192571770537
34.897648,10.21525037158242,0.10101903698247179
34.90224,10.264888775287497,0.10045498691690845
34.906828,10.310152191468479,0.09991416840062184
34.91141999999999,10.357991726278263,0.09937019127353774
34.916008,10.404565272497964,0.09884867137299684
34.920604,10.448440515374715,0.0983445241640423
34.925192,10.494358996575055,0.09782567371943082
34.929768,10.536679739984805,0.09732987788783831
34.934363999999995,10.577079429785115,0.09685000313894296
34.938944,10.613759197080686,0.09639672924663542
34.943535999999995,10.650316779662113,0.09595151324193142
34.94812,10.68454261304303,0.09550554089233004
34.952707999999994,10.718890631138098,0.0950588734163129
34.9573,10.75589281112748,0.09457586145349972
34.961892,10.793017175831007,0.09409244928959909
34.966496,10.83549400577179,0.09356075823998157
34.97107999999999,10.874128728493694,0.09305467543272586
34.97567599999999,10.907244659815563,0.09257940615791434
34.980272,10.9381951680997,0.09212836644274457
34.984863999999995,10.964526319431451,0.09170295241625043
34.989467999999995,10.992656339658499,0.09127570274458806
34.994048,11.018332425970893,0.0908509996113116
34.998648,11.045807381178586,0.09042076132544709
35.003235999999994,11.06788572970039,0.0900133923992163
35.007836,11.09147443624057,0.08958374584669392
35.012424,11.115307512209043,0.08914699950736305
35.017016,11.135542850386923,0.0887249668152025
35.0216,11.14935996271712,0.08832930953100579
35.026191999999995,11.164443063637403,0.08791891545244704
35.0308,11.178216034518979,0.08749936783196156
35.03538399999999,11.187736202590601,0.08708786996992395
35.039984,11.203386085632983,0.08663416841556218
35.044576,11.21453879643713,0.08619674288905585
35.049164,11.219561792270516,0.08580308402518573
35.053752,11.218288746970364,0.08543048519436512
35.058339999999994,11.208309868070655,0.08510561307170511
35.06293599999999,11.19984134718932,0.08475604171018788
35.067524,11.18904107710748,0.0844016465301972
35.07212,11.174887438663342,0.0840502672769016
35.076716,11.160855984933347,0.08369405594964624
35.081295999999995,11.133621525365553,0.08339913845737502
35.085888,11.107653054387846,0.08308736895894521
35.090467999999994,11.07910846478134,0.08277916187808425
35.095051999999995,11.057470839879098,0.08242983421986425
35.099664,11.030070054148535,0.08210886981746275
35.104251999999995,11.000748214808526,0.08179646793108335
35.108847999999995,10.971182006040229,0.08149109053722324
35.113428,10.95109888060499,0.08114062543828944
35.118016,10.925374779055572,0.08081342643929383
35.122612,10.898018134773634,0.08051280267928027
35.127204,10.874137043568142,0.08020474704054727
35.1318,10.84375968324945,0.0799496240434034
35.136376,10.816735691293058,0.07969153112637725
35.140975999999995,10.794697610431488,0.07940286302858057
35.145556,10.777034517094016,0.07910419499580346
35.150156,10.772940983736778,0.07873711882416656
35.15474,10.773222437903632,0.0783631330954993
35.159336,10.778900498756371,0.07797454021324259
35.163923999999994,10.785233624628468,0.077590696467419
35.168516,10.794387238557656,0.07719667834226351
35.173103999999995,10.813023935819905,0.07675993025696269
35.177699999999994,10.834891816730305,0.07632838010962127
35.18228799999999,10.859990881288862,0.07590119246073146
35.186871999999994,10.877816427000718,0.0755253492690898
35.19146,10.900261329664959,0.07513416627816889
35.196048,10.927203404567438,0.07473363758705663
35.200632,10.960030825012389,0.07430599686930794
35.205223999999994,10.991836626295544,0.07388954330791381
35.20981999999999,11.03288114148347,0.07344602440754935
35.214408,11.079033752480365,0.07297436557229868
35.218999999999994,11.126330167353197,0.0724962409887317
35.22358799999999,11.17591418997791,0.0719984613255651
35.228171999999994,11.225742582030913,0.07149549196958122
35.23278,11.277247658265068,0.0709972168950241
35.237359999999995,11.332594841718103,0.0704878749852367
35.241947999999994,11.378214572409785,0.07002640713006196
35.246536,11.419992195882587,0.06958349309704316
35.251124,11.459726581031802,0.0691544710601429
35.25571599999999,11.505346311723486,0.06870257844933599
35.260307999999995,11.551865476862817,0.06825357227264864
35.26489599999999,11.60337055309697,0.06778721618771015
35.269484,11.65356549929241,0.06731298532405199
35.274083999999995,11.702328130734992,0.06683311018557968
35.278668,11.75452217380539,0.06632740584774298
35.28326799999999,11.807860020751727,0.06581675761945845
35.287851999999994,11.858743933783414,0.06530675954744376
35.292444,11.907706793205653,0.06480855087735335
35.29704,11.952294665103809,0.06431609134821044
35.301632,11.992507549477867,0.06383060302681505
35.306231999999994,12.031820999404275,0.06335071965778445
35.310832,12.07150100347312,0.06286403993786166
35.31542399999999,12.113590800007993,0.06236045292298206
35.320015999999995,12.154248281790004,0.06185042829628439
35.324608,12.19449506798095,0.06133153083378929
35.329192,12.232165735543099,0.06081620315801142
35.33378,12.270980206981186,0.06029321790961986
35.33837199999999,12.309506167542354,0.059755103062070714
35.342968,12.349420301407752,0.0592043690160836
35.347559999999994,12.385981066910853,0.05865428640850435
35.352144,12.41726741044221,0.058107425189073615
35.356728,12.44099172424995,0.057580657919230144
35.36132,12.46381660361004,0.0570568659686306
35.365911999999994,12.485986417950773,0.056528016475197944
35.37049999999999,12.50353687533912,0.05600600321330567
35.375096,12.517245225508589,0.05549442776669038
35.379684,12.525312599563875,0.05499188465448711
35.384272,12.525162878876188,0.054496468452080456
35.388859999999994,12.525790407922003,0.054003573879259845
35.39346,12.518611537815904,0.05352939760634881
35.398064,12.502849018824394,0.05307168667758658
35.40264,12.478136296805031,0.0526404705902451
35.407236,12.445128436777177,0.052242209526442665
35.411824,12.409055719263938,0.05185335166499542
35.416424,12.360435060932263,0.05149005896134067
35.421012,12.302209134553376,0.05114439049426152
35.425619999999995,12.238342232060312,0.0508041196028844
35.430212,12.168101245168195,0.05049034166191889
35.434808,12.09197491273361,0.050189095925699805
35.439392,12.007675627004678,0.04991433718505899
35.44398399999999,11.917246626304985,0.04965808947501361
35.448592,11.821831714510466,0.049413448644213945
35.45318,11.71440174220272,0.04920339125803735
35.457767999999994,11.596999947705326,0.04901976236642232
35.462363999999994,11.474367872684821,0.048855207566590834
35.466952,11.345972636835988,0.0486985535902699
35.47153599999999,11.216067042968785,0.048557433405756564
35.476124,11.0838738413497,0.048427551025789
35.480712,10.942608251988622,0.04832642972438701
35.485304,10.805062585132283,0.04821777182099133
35.489895999999995,10.664329876076412,0.04812272463017768
35.494488,10.520898863677598,0.04802431028832822
35.499075999999995,10.375546797669346,0.047928333337064206
35.50366,10.22574170087148,0.04785878596428468
35.508247999999995,10.07941215715006,0.04779052516511786
35.51283599999999,9.935658732057439,0.047723796495376496
35.517444,9.794237056165324,0.04766631288667701
35.522032,9.652038130539708,0.047601698356787604
35.526619999999994,9.502810055495683,0.04756101495425942
35.53120799999999,9.351538742128069,0.047528492875152234
35.535791999999994,9.203865166551049,0.047494163261884055
35.54038799999999,9.053248918202792,0.04746678201310449
35.544976,8.907374211521066,0.04743101316254989
35.549572,8.76881716513467,0.0473895011803154
35.55416399999999,8.633080606805363,0.047341750824199
35.558764,8.495955875171823,0.047312808385173453
35.56334,8.359974947414225,0.04727167747214447
35.567944,8.22554851912363,0.04724006375886101
35.57253599999999,8.090467025813677,0.04719852802267608
35.577132,7.950521806123049,0.04716908001762893
35.581712,7.814540878365449,0.04712193735140889
35.586304,7.6789706461989145,0.04709577588882892
35.590903999999995,7.5426231642988775,0.04706191022060186
35.595504,7.4030444987506865,0.04700975463110483
35.60009599999999,7.263221463774204,0.04696825277807241
35.604696,7.119800691007129,0.046922479219208196
35.609283999999995,6.970861126840024,0.046879348361092275
35.613868,6.818734520473392,0.04685955275918125
35.618455999999995,6.670450021325642,0.046828874664851354
35.623048,6.521388272444392,0.04679104374972698
35.627644,6.368606601058403,0.0467564747132545
35.632231999999995,6.215702744958269,0.046728945507491466
35.636827999999994,6.061122204676985,0.046690261504941016
35.64141599999999,5.89730295049093,0.046662821516289435
35.646007999999995,5.728742154638344,0.04664835995212278
35.65059599999999,5.558626859318754,0.04662001360981157
35.655184,5.38442508735199,0.04662334549105464
35.65978,5.211367119261165,0.046608318499968736
35.664359999999995,5.045748996179815,0.04656986541837901
35.66894799999999,4.878209819489023,0.04653985553964533
35.67354399999999,4.704785297255762,0.04654471785921344
35.678132,4.533526198060233,0.046521356201548555
35.682728,4.363166533312352,0.04648721829992814
35.687316,4.1973040408027105,0.046442187634897006
35.691911999999995,4.030664298559566,0.046384880854407125
35.696492,3.865579055783427,0.046346868437077506
35.701092,3.6984505746837004,0.04633817541776371
35.705676,3.5323437127457677,0.04632965618420609
35.71027599999999,3.366236850807834,0.046317051339040995
35.71487199999999,3.205648780269934,0.04627927075296365
35.719468,3.0469817633414755,0.046209925352985834
35.724048,2.8931784727936933,0.04607241897705994
35.728644,2.7400302472652673,0.045955054652535035
35.733231999999994,2.5953434859081086,0.04575955184223953
35.73782799999999,2.4533550278938945,0.04555925170114492
35.742416,2.3177847957273596,0.045308309355570016
35.747004,2.1833583674367647,0.04498326673710413
35.751583999999994,2.0440682127654934,0.04265088875489093
35.756176,1.8988927125517523,0.04034343927262416
35.760768,1.7610348726333396,0.03802884243511812
35.765364,1.632660116047988,0.03569303835623626
