Time,Force,Position
34.68034,0.03578127274874944,0.0
34.684920000000005,0.03575432669919657,0.0
34.689508000000004,0.03356195761191099,0.0
34.694096,0.030347969362831885,0.0
34.698688000000004,0.02611236195195925,0.0
34.703284,0.021859559142011337,0.0
34.707876,0.018523386178786558,0.0
34.712468,0.013921224625476913,0.0
34.717056,0.008419628624519416,0.0
34.721656,0.007642378891017235,0.0
34.726243999999994,0.00813111774759992,0.0
34.730847999999995,0.006576618280595558,0.0
34.735432,0.006576618280595559,0.0
34.74002,0.009502095652755171,0.0
34.744612000000004,0.010890268956985708,0.0
34.7492,0.01945672244332377,0.0
34.753804,0.028800425663164014,0.0
34.758404,0.0401873672065913,0.0
34.762996,0.05001980928301423,0.0
34.767588,0.06291710884481773,0.0
34.772180000000006,0.07977870033964965,0.0
34.776768000000004,0.09639592240619022,0.0
34.781347999999994,0.11199152531093726,0.0
34.785944,0.1265655090538908,0.0
34.790532,0.1390962544732573,0.0
34.795124,0.14947877225396636,0.0
34.799716000000004,0.16098789851153933,0.0
34.804308000000006,0.17225265534082096,0.0
34.808899999999994,0.1805747393988677,0.0
34.81348800000001,0.18699296524654832,0.0
34.818076000000005,0.19610949443717252,0.0
34.822672,0.21074481502782946,0.0
34.827259999999995,0.22830561299064606,0.0
34.831852,0.24191931441950953,0.0
34.836444,0.25390047311585107,0.0
34.841036,0.2608176774518532,0.0
34.845631999999995,0.26757879525682027,0.0
34.850228,0.27517154387565645,0.0
34.854820000000004,0.2910018665009465,0.0
34.859412000000006,0.31834508822947305,0.0
34.864012,0.3641523152141275,0.008976057257943303
34.86859200000001,0.43132207877751655,0.01749341303933655
34.873192,0.5165451520059684,0.02605667097583115
34.87778,0.6223535120796526,0.034417911985067225
34.88238,0.7467039206749824,0.04280972701231752
34.886976000000004,0.8915174314013989,0.05113763523990432
34.89156800000001,1.055650240382963,0.059338977843792884
34.896164,1.2392245323338205,0.0674949845395272
34.900760000000005,1.4462045991869996,0.07555099247384298
34.905348000000004,1.668373346199524,0.08362071108319538
34.909944,1.9026659158860135,0.09176672009376333
34.914524,2.1483050585129657,0.09996067391398888
34.919112,2.405823654385591,0.1082177706633883
34.9237,2.684826971551096,0.11639501911741047
34.928292,2.98371636909385,0.12451627872169146
34.932884,3.298194902755275,0.13259187442663373
34.937479999999994,3.6309947776952054,0.14053324227446912
34.942076,3.974665909272427,0.14837995544555746
34.946656000000004,4.321347517254663,0.15613543388313794
34.951252,4.655128052829434,0.16387249598129983
34.955832,4.960306434795659,0.16271740299645904
34.960424,5.242812150144435,0.16203259370819265
34.96502,5.506853860237085,0.16130600344913554
34.9696,5.7503102834845015,0.16080245073196608
34.974211999999994,5.9829088726480375,0.16017365594241975
34.97880000000001,6.196188163556427,0.15962185747331073
34.983388000000005,6.389126537047875,0.15919662462789994
34.987992000000006,6.562212731978964,0.15881492418178333
34.992580000000004,6.713692020903028,0.15856139763901386
34.997176,6.852436563582397,0.15825651517581052
35.001756,6.984331705559543,0.1577730197975403
35.006356,7.103614286006142,0.15722579120753805
35.010943999999995,7.211428108798133,0.1565875336312483
35.015544000000006,7.299311709764248,0.1560382455277092
35.020132000000004,7.37049627255264,0.1555347056067242
35.024732,7.428090796097321,0.1550475410405818
35.029332,7.465354641856799,0.154734937810488
35.033928,7.4896496115750315,0.1545118933128497
35.038523999999995,7.50784876813939,0.1543319536819177
35.043111999999994,7.527069543865544,0.15413491093165396
35.047700000000006,7.556306283229969,0.1537936814337552
35.052296,7.590939629280279,0.153381740567155
35.056884,7.6306030278740415,0.15292101800152766
35.06148399999999,7.672720360382456,0.1524371818363264
35.066072000000005,7.707930728186606,0.15207909148764873
35.070660000000004,7.747638268228996,0.15166380096610202
35.075252000000006,7.790821361347832,0.15121171272972161
35.079848,7.839278876438408,0.15070176380859196
35.084436,7.89542060596675,0.1500785013794245
35.089028,7.950907270475737,0.1494625794607709
35.093624000000005,7.999975709137042,0.14894523030127882
35.098208,8.048877821635573,0.1484050378335764
35.1028,8.095936923790182,0.1478580611546041
35.107380000000006,8.14385131894381,0.14726751618694867
35.111971999999994,8.195441495153547,0.1466028782686441
35.116568,8.24457773744863,0.14596146199331866
35.121148000000005,8.297267576085677,0.14524296442039455
35.125736,8.35314445692225,0.14447499783125278
35.130332,8.408488457453613,0.14371044619213152
35.134928,8.466120065736856,0.14291405744536473
35.139523999999994,8.521175555391299,0.14215190155142546
35.144116,8.570467884217416,0.14147195042046024
35.148712,8.617672833271321,0.14079897772564287
35.153304000000006,8.665977444752537,0.1400764645080749
35.157895999999994,8.71795783728986,0.13927751952782186
35.162476,8.765929796445528,0.13850812334115958
35.16708,8.81103712609548,0.13774701369736345
35.171672,8.851114403201978,0.13703097402173745
35.176272,8.88334113970794,0.1363936227928542
35.18086,8.909516204508655,0.1358080605576319
35.185447999999994,8.938467615917833,0.13516157514344218
35.190036000000006,8.967663396755306,0.13450927902654206
35.194627999999994,8.994160874249829,0.13388495158987446
35.19922,9.019636732582562,0.1332780779820986
35.20381999999999,9.03910506065868,0.13275781967329203
35.208408000000006,9.062004800362613,0.132180561590974
35.212996000000004,9.08424947504719,0.1316043502207502
35.217588000000006,9.103795846388826,0.13105834990428436
35.222179999999994,9.120643914387516,0.1305403977818974
35.226772,9.131318125966818,0.130077151616333
35.231356000000005,9.141092903098471,0.12962328407551738
35.235952,9.156097960753238,0.12909635689095972
35.240532,9.169714845103774,0.12860161257051078
35.245116,9.183087360026017,0.12812196529119302
35.249712,9.191596148567589,0.1276985751913212
35.2543,9.2028032404521,0.12725332292330188
35.25889599999999,9.215687016517766,0.126800512555622
35.263484000000005,9.229225857602783,0.12635146075402776
35.268072000000004,9.245463002030746,0.12588020237553163
35.272668,9.268362741734679,0.12533981933196559
35.27726,9.286931635363148,0.12486563638154885
35.281856000000005,9.304478909829824,0.12440769406669903
35.28644,9.325379552658799,0.1239322868017035
35.291036000000005,9.346280195487775,0.1234579877933455
35.295627999999994,9.368569011620982,0.12295498616344629
35.30022,9.386526981678724,0.1225164151504776
35.3048,9.40321896314638,0.12210297789656051
35.309404,9.418356445147031,0.12169410698801367
35.313996,9.433493927147683,0.12128607765342689
35.318591999999995,9.449164289453543,0.12088671258991049
35.323184,9.464834651759407,0.12048820111837794
35.327772,9.478828329884118,0.12010166109720903
35.33237200000001,9.49228912770362,0.11970607612551104
35.336968,9.502929437466031,0.11933770286496441
35.341556,9.520354527218561,0.11890185627422677
35.346152000000004,9.535203498342295,0.1184827394522846
35.35074,9.548497969999021,0.11806864447511464
35.355328,9.563180614959977,0.11762837103113417
35.359916,9.574265522130345,0.11721433175110954
35.364515999999995,9.581752691510122,0.11682817925337166
35.369108,9.588829165298831,0.11642673977729896
35.3737,9.592185716582804,0.11605609002184886
35.378296000000006,9.596275376151652,0.11565622183376481
35.382884000000004,9.59868835153935,0.11526346095826542
35.387484,9.6009791422129,0.11487648441237892
35.392072,9.60388085645718,0.11446309514632004
35.396668000000005,9.608292928719836,0.11401854192520355
35.401264,9.615403304325437,0.11355688182683224
35.405852,9.624024037949411,0.11306490125361121
35.410467999999995,9.633133510429971,0.11255210960460921
35.41506,9.643631156214758,0.11201444620280605
35.419668,9.651063944514165,0.11151051241214921
35.424248000000006,9.659396167261221,0.11100100339648152
35.428839999999994,9.66989381304601,0.11046542694733363
35.433428000000006,9.672052179373676,0.1099928716403444
35.438008,9.674987795434841,0.10951986236971377
35.44260799999999,9.673836934848834,0.10908908124747946
35.447188,9.671542270386889,0.10867505546631852
35.45178,9.676809635648564,0.1082021831201566
35.456360000000004,9.683875869805536,0.10771907865435659
35.460956,9.695317091486597,0.10721490519879064
35.465552,9.711377670120045,0.1066786452067005
35.470136,9.722985217963883,0.10620067417678594
35.474728,9.736391634703017,0.10571184901834393
35.479316,9.748121367261,0.10522886154908442
35.483912000000004,9.759484545676544,0.10476103921754615
35.488508,9.771502789111446,0.10430084860728656
35.4931,9.781599978936908,0.10385804479596723
35.49768400000001,9.787244137972758,0.10347072963141699
35.502275999999995,9.7964860347992,0.10306482307504906
35.50686399999999,9.804461943035555,0.10268020575264046
35.511448,9.811538416824265,0.10229916826489001
35.516043999999994,9.81873707532712,0.10191393806160846
35.52064,9.826712983563475,0.1015308142646047
35.525228,9.842905986542808,0.10109946809280472
35.52982,9.86179729286509,0.1006562152486653
35.534408,9.888250628910987,0.10016122921675771
35.53899199999999,9.91458178024274,0.09967245098402536
35.543580000000006,9.932084913260786,0.09925701391100174
35.548168000000004,9.949465861564686,0.09884854653265221
35.552760000000006,9.965292310401585,0.09844266501390568
35.557348000000005,9.97842045589554,0.09805166872932024
35.561936,9.9978005010744,0.0976025638951871
35.566548,10.019101599862703,0.09714225123563444
35.571136,10.044000436441596,0.096666185187106
35.575744,10.07274138023937,0.0961660112592841
35.580327999999994,10.098661835980058,0.09568554007127714
35.584924,10.1244601070066,0.09521100929576683
35.589516,10.157165342737404,0.09468569245198033
35.594120000000004,10.182841429049798,0.0942181302500791
35.598699999999994,10.208395330648049,0.0937564600075815
35.603303999999994,10.238568589198682,0.09327042127409595
35.6079,10.268497478321025,0.09279527995529367
35.612504,10.29446207551034,0.09235149423447624
35.617096000000004,10.314785696585478,0.09194304506547916
35.621688000000006,10.33151157987002,0.09155218293604381
35.626268,10.343740290916328,0.09118289126900561
35.63086,10.356990621124428,0.09080628771869834
35.635459999999995,10.37216200494197,0.09041548448403
35.640052,10.385290150435923,0.09004213722924229
35.644639999999995,10.39331020012091,0.08971026002089398
35.649227999999994,10.404150737862984,0.08936361253217252
35.653816000000006,10.406041072577208,0.08908271059293975
35.658404000000004,10.409852460900876,0.08879202593039302
35.66299600000001,10.41623996785334,0.0884975801745886
35.66757199999999,10.420706421196364,0.08821618243759918
35.672168,10.424029070663446,0.08794673636568583
35.676748,10.426452285682883,0.08768075305998003
35.681340000000006,10.425810643216938,0.08743975059838503
35.685936,10.434119203778842,0.08713811518058805
35.690524,10.444104448521898,0.08683521999776632
35.695128,10.4542118779791,0.08652977048773053
35.699715999999995,10.46636254575989,0.08621035793003155
35.704308,10.479657017416619,0.08587857796384679
35.708904000000004,10.49679359629223,0.0855261432692743
35.713492,10.514829609615488,0.08517111540599916
35.718087999999995,10.5335206879581,0.08482229407361686
35.72268,10.552578320443153,0.0844623948772752
35.727276,10.576866233451318,0.08406294777788283
35.73185599999999,10.604463373373154,0.08363463817811177
35.736456000000004,10.633448686599221,0.08318382240251379
35.741048000000006,10.657814642872903,0.08275320462388192
35.74565200000001,10.687943759974912,0.08229078840794227
35.750236,10.711410281800944,0.08186387642629306
35.754828,10.72396140554106,0.08147613018999884
35.759420000000006,10.73303697620473,0.08109560656223129
35.764016,10.745421773782072,0.08068531207148011
35.768604,10.760094179111288,0.08025311630564551
35.773191999999995,10.771779770220647,0.07981071290896899
35.777792000000005,10.776025516320527,0.07940043898256213
35.78238399999999,10.779327686524134,0.07896687506949616
35.786972000000006,10.781075357260736,0.07853144304738494
35.791560000000004,10.780369094082687,0.07809614928052383
35.796144,10.779907200332927,0.07765210506776618
35.800743999999995,10.778790241563813,0.07720374891919579
35.80533199999999,10.779183640813072,0.07673294974234653
35.809928,10.780065778918914,0.07624591075985862
35.81452,10.776206375358226,0.07577831474815167
35.819100000000006,10.772224787083394,0.0753177217497228
35.823691999999994,10.764523276303825,0.07487049019598234
35.828272,10.76642703357146,0.0743832111418031
35.83286,10.774338321095714,0.07386373353676536
35.837468,10.782738347476549,0.07332982358919055
35.842056,10.796368654380498,0.07276208437245031
35.84666,10.817805360436356,0.07215633603361085
35.851240000000004,10.842062554549306,0.0715406407127943
35.855828,10.865420314214605,0.07092962734264321
35.860423999999995,10.888000824146406,0.07031925513103573
35.86501199999999,10.913934702440503,0.06971083506900555
35.86961599999999,10.941789634344044,0.06909442816852075
35.874204000000006,10.963637035990969,0.0685078089233867
35.878804,10.986506056799687,0.06791816037529162
35.883388,11.01141831593199,0.06731956120681798
35.88798799999999,11.040294866997323,0.06670599127513047
35.892576000000005,11.067494733881508,0.0660940717870824
35.897176,11.091385373852022,0.06550823984487866
35.90176,11.114254394660735,0.06492929917488528
35.906356,11.142642206869487,0.06433852371960996
35.91093600000001,11.169231150182942,0.06375485676500554
35.915532,11.19774114710584,0.06316566020521491
35.920128000000005,11.21946636403862,0.06260706180699575
35.924724,11.23824890820016,0.06206340504013657
35.929316,11.257930886809355,0.061521967710419505
35.93391200000001,11.274548007933166,0.06099766202603557
35.938500000000005,11.29218674821877,0.060471725008469264
35.943096,11.30994767321852,0.05994347540032332
35.947680000000005,11.32746422878998,0.05942424958458891
35.952271999999994,11.344614230219003,0.05891791722424361
35.956864,11.357922124429141,0.05842292914499814
35.961456,11.371230018639281,0.05792830996085086
35.966055999999995,11.39438755032492,0.05739993820502052
35.97064399999999,11.412436986201588,0.05689449472723565
35.975235999999995,11.427177195164589,0.05641119453495753
35.979828,11.437953112194556,0.05594414112750535
35.984408,11.449261909529737,0.055488468183479495
35.989000000000004,11.46081507629321,0.055024672169112755
35.99359200000001,11.47326767750433,0.05456099355344174
35.998180000000005,11.48122310647721,0.0541006742695867
36.002776,11.48047270185053,0.053661781303226096
36.007368,11.476535255024327,0.053238746822628386
36.011964000000006,11.467734081817447,0.05282785792394292
36.016544,11.45292537835395,0.05243656030612814
36.02114400000001,11.428267037414955,0.05207378618573259
36.025735999999995,11.397601166219346,0.051729701507874086
36.030336000000005,11.356841288119945,0.05142123377211112
36.034916,11.312117118087517,0.05112335718082539
36.039512,11.262529221674415,0.05083642938484974
36.044108,11.206400914699483,0.05055637484369577
36.0487,11.146308315791522,0.05028596384913104
36.053284000000005,11.080208186626948,0.05003348808737821
36.057872,11.002748061968498,0.049827461857180434
36.062464000000006,10.92324469898646,0.04962708328299509
36.06706,10.835934936852512,0.04944542793694186
36.071648,10.740818775566655,0.049281607723639695
36.076236,10.635320096500086,0.04913215497065687
36.08082400000001,10.523569517748612,0.04900903904022337
36.085424,10.399026628750406,0.04892245040972967
36.090012,10.271052328124382,0.04885778109693756
36.094604,10.14692013471724,0.04878058884382436
36.0992,10.019068018805358,0.048704794595021056
36.103788,9.88533055735101,0.04864471007695452
36.108388000000005,9.749549857573072,0.048591724168478206
36.112968,9.613769157795137,0.04853685782016758
36.117564,9.479010077178993,0.048474955951374105
36.122148,9.342452127667555,0.04841221770474486
36.126736,9.197721224861771,0.04838651020208165
36.131332,9.047471530655953,0.04836336325409823
36.13592,8.892113740641166,0.04836374734863069
36.140512,8.736878135340522,0.048356702262717564
36.145104,8.583563583649322,0.048341908711966745
36.149696000000006,8.426651294167531,0.04832890706508328
36.154292,8.267817951076298,0.0483201021191583
36.158872,8.1119272807563,0.0483005423015441
36.163464000000005,7.954770621846217,0.04829805036355066
36.168044,7.799046277688992,0.04831337187962758
36.172648,7.643688487674206,0.048311031315367695
36.177244,7.496381466239621,0.04826686098835962
