Time,Force,Position
38.995336,0.04964988746231313,0.0
38.999932,0.03488926886867971,0.0
39.00452,0.02294913833213552,0.0
39.009112,0.015750549462121927,0.0
39.0137,0.011128079220906213,0.0
39.0183,0.008304477874986203,0.0
39.02288,0.006380310976714047,0.0
39.02748,0.0031901554883570233,0.0
39.032072,0.0,0.0
39.036672,0.0,0.0
39.041256,0.0,0.0
39.045844,0.0,0.0
39.050432,0.0,0.0
39.055028,0.0,0.0
39.059616,0.00032552598263964534,0.0
39.064212,0.0003255259826396453,0.0
39.0688,0.0003255259826396453,0.0
39.073388,0.00032552598263964534,0.0
39.077976,0.00032552598263964534,0.0
39.082572,0.00032552598263964534,0.0
39.08716,0.00032552598263964534,0.0
39.091756,0.00032552598263964534,0.0
39.096348,0.00032552598263964534,0.0
39.10094,0.00032552598263964534,0.0
39.105536,0.00032552598263964534,0.0
39.110124,0.00032552598263964534,0.0
39.11472,0.00032552598263964534,0.0
39.119312,0.00032552598263964534,0.0
39.123904,0.00032552598263964534,0.0
39.128496,0.0003255259826396454,0.0
39.133088,0.0003255259826396454,0.0
39.137684,0.0003255259826396454,0.0
39.14228,0.0003255259826396454,0.0
39.146868,0.0003255259826396454,0.0
39.151464,0.0,0.0
39.156048,0.0,0.0
39.160648,0.0,0.0
39.165228,0.0,0.0
39.169832,0.0,0.0
39.17442,0.0,0.0
39.17902,0.0,0.0
39.183608,0.0,0.0
39.188204,0.0,0.0
39.192792,0.0,0.0
39.19738,0.0,0.0
39.201976,0.0,0.0
39.206572,0.0,0.0
39.21116,0.011027273535484546,0.0
39.21576,0.03221317468686436,0.0
39.220348,0.06699935471369582,0.0
39.224936,0.12544591870287913,0.01058024151237815
39.229524,0.20984047440629264,0.020133057936674296
39.234108,0.31699597962441006,0.029416374905642646
39.238704,0.4513654651468427,0.03819324712655309
39.243296,0.6061641509834728,0.04695316531545203
39.247892,0.7834352754578873,0.0556033038971923
39.25248,0.987020945788969,0.06403143779852595
39.257064,1.2129568700436895,0.07241896217570581
39.261652,1.4652073401550774,0.08065470725934541
39.266244,1.738497934151391,0.08886996081347
39.270856,2.0340946406227154,0.09702157676553001
39.275444,2.3498320365313177,0.1051774494229242
39.28004,2.686365186896554,0.11333829352257159
39.284636,3.045492960613721,0.12147464761448444
39.28924,3.427459727111109,0.1295747954115547
39.293832,3.8295230415971475,0.13764505159618684
39.298424,4.253393490069876,0.1455963566957344
39.30302,4.676429194439906,0.15354747255791815
39.307612,5.098388898567776,0.1614509151863213
39.312208,5.512389299934371,0.16927584381944832
39.316796,5.904073349194219,0.16645318405489515
39.321396,6.266411896928907,0.16465653735708052
39.325984,6.60577902753749,0.16307098160635672
39.330584,6.912247060278949,0.16203646548256018
39.335176,7.200162804867024,0.16095843001308693
39.339768,7.460942612416304,0.16001774820776432
39.344352,7.6907443757079035,0.1593272385653101
39.348948,7.899662101645611,0.15860158241467023
39.353544,8.07976720636337,0.1580145461474916
39.358132,8.238665861033429,0.1574209658345468
39.36272,8.373948273189766,0.15688747353231255
39.367316,8.489945288907844,0.15630545096834011
39.371908,8.586490582024888,0.15564923754545457
39.376492,8.65998641475031,0.15496966622384473
39.38108,8.70880024435159,0.15431393033611845
39.38568,8.737595569229732,0.15364831135116944
39.390268,8.741596945901325,0.1531121280363702
39.394864,8.73703833587265,0.15252783039402482
39.39946,8.724252391469262,0.1519472904427919
39.404048,8.708724002274302,0.15136884723109448
39.408648,8.686044278946786,0.1509040223310626
39.413236,8.667495173715075,0.1504029030979183
39.417832,8.647724221341907,0.14996177760602888
39.42242,8.634782190407485,0.1494532899805044
39.427008,8.621595790044772,0.14895766373321195
39.431604,8.614338876673154,0.14840582011327028
39.436192,8.615954123063872,0.14775571316370986
39.44078,8.614304283989545,0.14720083099951667
39.445376,8.612454216935557,0.1466886164384127
39.449968,8.611792095206132,0.14618737170957571
39.454564,8.614483341839012,0.14565777221972798
39.459144,8.61913978352996,0.14513734118304575
39.463736,8.62310725838466,0.14468873104215332
39.468324,8.628184635298412,0.14429056250008188
39.472928,8.637803325899029,0.14387621591320726
39.477516,8.649797907148782,0.1434854347706358
39.482108,8.667477605961341,0.1430562213288933
39.4867,8.68238095816544,0.14269653598556128
39.491296,8.701581254628115,0.14233726574458552
39.49588,8.720336953682835,0.1420388926534631
39.500476,8.751195996148045,0.14163175530846744
39.505072,8.782509875652947,0.14127349934498207
39.509672,8.818487253558862,0.1408958200246601
39.514264,8.855896946217634,0.14052060337050615
39.518852,8.894005845344394,0.14018418877709773
39.52344,8.939065850624042,0.13979516249949375
39.528036,8.981227324581083,0.13948177963342465
39.532624,9.029440470243367,0.1391189737490712
39.53722,9.08358310289675,0.13871064579969317
39.541816,9.143000157521877,0.13826286548076597
39.5464,9.205648395795157,0.13780578223183176
39.550996,9.268052264640144,0.13736614110659154
39.555576,9.334298240704015,0.13688623773784958
39.560164,9.402587455091473,0.13638146555293681
39.564756,9.47177610392658,0.13587590905903763
39.569344,9.540187503028182,0.13537712610724056
39.573952,9.610519955739228,0.13486537794920653
39.57854,9.687759373154535,0.13427534688710485
39.583152,9.7597243685981,0.1337337707446633
39.58774,9.828335995679367,0.13321466486770803
39.59234,9.893594254398334,0.1327274068639113
39.596932,9.959952175544611,0.13219565554236415
39.601524,10.023201097756882,0.1316768419040796
39.606124,10.085139889930439,0.13115691294419574
39.610708,10.144214052598276,0.13063785893498572
39.615312,10.19555985937972,0.13018053534907473
39.6199,10.245307025245534,0.12969994587686004
39.6245,10.291412311872127,0.12922496299657926
39.629092,10.337595641764239,0.12872215352786975
39.633692,10.377194419645894,0.12825721841795887
39.63828,10.410330830231242,0.12782226897766896
39.642872,10.438559372987283,0.1274098700826108
39.647468,10.460325548447019,0.12702544669493057
39.652064,10.479227094401034,0.12664057598432332
39.65666,10.496407814725274,0.1262398206652395
39.661252,10.511090459686233,0.1258224830956205
39.665856,10.520987421532032,0.12542334470469327
39.670444,10.522134408329645,0.1250822492867289
39.675028,10.52270437337342,0.12470504507511049
39.679624,10.525273435292151,0.12427722509019669
39.684208,10.52317899880987,0.12385982876965324
39.688792,10.521695485898316,0.12342002934684691
39.693384,10.521189450699929,0.12294190430134068
39.697976,10.518596035729324,0.12245873842639925
39.702572,10.51943403238654,0.12192881072502462
39.707168,10.516141410947952,0.12141409080745225
39.711764,10.514236962813598,0.12087409442851631
39.716352,10.511921819088176,0.12032130204120117
39.72094,10.505476057266948,0.11978561659648551
39.725528,10.493633688759841,0.11928346628706829
39.730116,10.482935124128668,0.11876457182149797
39.73472,10.476567405572963,0.11819202320336336
39.739308,10.473919609521994,0.117590267105927
39.743916,10.472171247918672,0.11698275769259522
39.748496,10.466458594382322,0.11641305126456346
39.753084,10.462300440312976,0.11584086356652515
39.757684,10.455321798186542,0.1152892183933043
39.762268,10.456149555212018,0.11466786085869513
39.766872,10.459309061438,0.1140442528054445
39.771464,10.46005877519796,0.11345588906375269
39.77606,10.462240803710777,0.11286942313586551
39.780652,10.46123579002407,0.11232033492280172
39.785244,10.461130210785008,0.11176729049265603
39.789832,10.462456946298806,0.11121740796424873
39.794432,10.458675586003634,0.11071850039783925
39.799032,10.461967516575502,0.11018119579440658
39.803628,10.463749089128992,0.10967322376594517
39.808224,10.46414248837825,0.10918891905725121
39.81282,10.463924964056787,0.10872711067544764
39.817416,10.47372340337359,0.10820246892569127
39.822012,10.484299092423896,0.10767821137484844
39.8266,10.492464989008178,0.10718902848150959
39.831196,10.497443843392935,0.1067342759229966
39.835776,10.504099381958842,0.10627580159401229
39.840364,10.514230473601193,0.10580191531649631
39.844948,10.525260999691195,0.1053247451663785
39.849544,10.542587566914728,0.1048138743965431
39.854136,10.557259972243946,0.10434955381835223
39.858728,10.57181019285902,0.10389200166203903
39.863324,10.593023008750066,0.10339081657134332
39.867912,10.616034693536408,0.10288187034744281
39.872512,10.637902574446809,0.10238628396066264
39.8771,10.656094674301103,0.10194168401510817
39.881696,10.677107262212484,0.10148183409922962
39.88628,10.70466026068569,0.10098370825964545
39.890868,10.72939277110181,0.10050667430574267
39.89548,10.75808957345096,0.10000168246123414
39.900068,10.792182982485993,0.09947386244346959
39.904656,10.829463433720557,0.09891698069995217
39.909252,10.86608881993576,0.0983626354244441
39.91384,10.899893718093875,0.09782554378681911
39.91844,10.936641289023225,0.0972700144278883
39.92302,10.979640759637478,0.09666379117411916
39.927628,11.020308481051229,0.09606012349931034
39.932216,11.058522268550327,0.09546115960489439
39.936816,11.094815002439981,0.09487664661103043
39.941396,11.124933879910252,0.09431627434911868
39.946,11.151044323998862,0.09375882622561084
39.950592,11.173923584439319,0.09320447793503316
39.955192,11.190506803746239,0.09267947994565352
39.95978,11.204758273852653,0.09215362696505924
39.964372,11.219498482815649,0.09160989867950384
39.968968,11.236892853672959,0.09102914121509074
39.973564,11.247868998682591,0.09047837269001424
39.97816,11.249728614501603,0.08996708736059199
39.98276,11.249911546139458,0.08945833440158554
39.987348,11.246374555272581,0.08896901489922475
39.991944,11.236785892700457,0.08849557306108546
39.996532,11.225520545947184,0.08802473767796029
40.001128,11.210290907260882,0.08758022241740575
40.005716,11.199802810241112,0.0871109558809934
40.010312,11.186860779306686,0.08664327409688817
40.014904,11.165990164506209,0.08622523030388393
40.019496,11.145774614725084,0.08581172606097776
40.024092,11.128501737715196,0.08538028537486039
40.02868,11.111473230133598,0.08493977201018275
40.033272,11.098286829770883,0.08447784471217527
40.037864,11.085999863855818,0.08401135490241063
40.042452,11.077843516036555,0.08354271915012447
40.047036,11.070220048522504,0.0830828216720435
40.051624,11.062885091885368,0.08263999222420558
40.056228,11.060047307486474,0.0821840446284091
40.060816,11.055943534497496,0.0817432971078012
40.065408,11.056459118460902,0.081284345125171
40.070004,11.066213416329077,0.08079051470262197
40.074596,11.077644398378403,0.08029568712588805
40.079192,11.087032142104144,0.07981356256300334
40.08378,11.101572123087479,0.07932530192386972
40.088372,11.115745549928375,0.0788498778800133
40.09296,11.129918976769272,0.07837466509966373
40.09756,11.14102754612479,0.07792063185681437
40.102152,11.15242462635723,0.07748517043456608
40.106752,11.166642194646753,0.07703732024896474
40.111348,11.18163701266978,0.07659268142881638
40.11594,11.194344222940932,0.07617018361915524
40.120536,11.208605932679088,0.07575233766918586
40.125132,11.223278338008306,0.07534994091009878
40.12972,11.240282492538032,0.0749537505702909
40.134316,11.257408831781902,0.07455608826873707
40.138904,11.276700594063506,0.07414334082521461
40.143492,11.302122071315871,0.07369715513211929
40.14808,11.32267982218756,0.07327488539377462
40.152672,11.345158626668692,0.07284597850200213
40.15726,11.366737996702174,0.07242087914311512
40.161856,11.384597444230922,0.07201027396116365
40.166452,11.405399564530901,0.07158866907286192
40.17104,11.429144357602116,0.07115388438591475
40.175636,11.452234085653975,0.07071651169302443
40.180228,11.478144301762924,0.07027183336148037
40.18482,11.506219940909606,0.06981396058258127
40.189408,11.539403675865252,0.06933173794189867
40.193996,11.573076149677485,0.0688358151485004
40.198604,11.609813480975095,0.0683262813722529
40.203192,11.643852508929765,0.0678226722486736
40.207788,11.681978013531605,0.06730071055580403
40.21238,11.718304649238153,0.06678347615716568
40.216984,11.75794051185837,0.06624759398987297
40.221576,11.796921309459233,0.06570788373154579
40.226168,11.832182184555355,0.06517932145021182
40.230764,11.866421440489688,0.06465840148817387
40.235352,11.893875916433903,0.06416469954678071
40.239956,11.927337922634731,0.06364779594098052
40.244536,11.960799928835561,0.06313361612436569
40.249128,11.99618298864583,0.06261634250530122
40.253708,12.030544429294308,0.0621051882664442
40.258316,12.061185947438046,0.06160483042583065
40.262908,12.095547388086523,0.06110019509978406
40.267504,12.124267852620823,0.060609821787646054
40.272088,12.15490937076456,0.06011803268178732
40.276684,12.184407085032365,0.0596366523889369
40.281288,12.209940507367136,0.05917291053280812
40.285876,12.233552876092471,0.05871522714452489
40.290464,12.256798690675366,0.058271015402068485
40.295056,12.284008797191285,0.05781466935334001
40.299648,12.306599546754821,0.057367599673575236
40.304232,12.330456284908443,0.05691042712253639
40.308824,12.34356395113892,0.056485115187755786
40.313416,12.353851129312307,0.0560650865183403
40.318008,12.363238873038046,0.05564480057963126
40.3226,12.370705563154344,0.05522928740082333
40.327196,12.381114926041876,0.0548056083383342
40.33178,12.382696270615703,0.05440798499985474
40.336368,12.381701496560732,0.054008576800148755
40.340956,12.37404412722979,0.053622245169411664
40.345548,12.366386757898848,0.053235518562292194
40.350156,12.350023554968347,0.05286693704406637
40.354736,12.32429945341893,0.05251193182589135
40.359336,12.29281219104119,0.05216579161286022
40.36392,12.248899172559153,0.05184356367294681
40.368512,12.19538088602991,0.05153935749086569
40.373116,12.133156765901107,0.05125294175674619
40.377704,12.066068919391629,0.050975469860452025
40.3823,11.988720739815587,0.05070911371635878
40.38688,11.89690356581166,0.05047181865017969
40.39148,11.799733926570479,0.050258052959534914
40.396068,11.69361408430144,0.050068089866830034
40.400668,11.587494242032408,0.04987496685193139
40.405256,11.476266303954404,0.04969848684371861
40.409856,11.360174639495726,0.04953038779324296
40.414444,11.237420379761076,0.04937085408270359
40.419028,11.098931137008456,0.04925363289629725
40.423624,10.951858245370428,0.04915112462030688
40.42822,10.792770293219165,0.04908742665935147
40.43282,10.626775376363641,0.04904286387995277
40.437416,10.44937632256561,0.04901720963997521
40.442012,10.273776137662878,0.048989848353242646
40.446608,10.092168422503528,0.048982563664211234
40.451196,9.916856748477715,0.048971494500142675
40.455784,9.741422889737755,0.048964271096481514
40.460372,9.567665715178947,0.048960775936558655
40.464972,9.389944248687112,0.04897294607410903
40.46956,9.210057359157538,0.048997380625196534
40.474152,9.030048284913823,0.049024671323644804
40.478748,8.85273751401305,0.049052793798072036
40.483328,8.670929570874039,0.04908265491779815
40.487916,8.48989887746853,0.049117437972602984
40.4925,8.308745999348874,0.0491550069755667
40.497088,8.126038621762214,0.04918112805897729
40.501684,7.940266386690174,0.04922373279956778
40.506268,7.752328728580403,0.049283574725507436
40.510856,7.570276416013099,0.04932751496401634
40.515452,7.393742894845828,0.04936796470101409
40.52004,7.222972534506882,0.0493954452791647
