Time,Force,Position
35.940208,6.166742301522062,0.046067353517570825
35.944807999999995,5.936609267638357,0.04597937253603658
35.949403999999994,5.704432995431067,0.04589987247101307
35.953996,5.473278342385568,0.04580805548180444
35.958592,5.245965796558954,0.045683598550418085
35.963179999999994,5.023272607684723,0.045538172371388866
35.96778,4.797514561325114,0.04540147335392151
35.972359999999995,4.573433199146654,0.04525634513626913
35.976955999999994,4.347308598644606,0.04512419895920861
35.981548,4.12616990923738,0.0449267645179474
35.986148,3.9088733270490366,0.04467881129358625
35.990736,3.699016589870168,0.04438226571551292
35.99532799999999,3.4887932985488628,0.04408213942050411
35.99992,3.282167745018148,0.04374713115940188
36.004512,3.0813494937643857,0.04344706707961902
36.009108,2.8832295458535673,0.04309375119021791
36.0137,2.6876857165715458,0.042709245108299376
36.018291999999995,2.506122142860826,0.04224529503007674
36.022876,2.3289335566741993,0.04174867101074911
36.027468,2.1577966421928156,0.03947403418169677
36.03206,1.991811964969029,0.03721549015149726
36.036648,1.8318789594504852,0.0349664555823184
36.041244,1.6819619175702136,0.03271558138692393
36.045836,1.5371971129475377,0.030473627603251396
36.050428,1.394519688097077,0.028266302491591316
36.055016,1.2562172507707101,0.026082060338141352
36.059596,1.130751265139704,0.02390248647548797
36.064188,1.014035254556885,0.021740035925034873
36.068784,0.9140860857855665,0.019567506206436037
36.073372,0.8329572367810743,0.017451175910483924
36.07798,0.7796532916516253,0.022051173450119532
36.082572,0.7514759470542763,0.027106879976731165
36.08716,0.7501018871701776,0.03261543597811957
36.091756,0.7760639923045394,0.038305134699268995
36.096352,0.8282523603983118,0.04394217812746304
36.100948,0.9070776870425608,0.049649460062693135
36.105524,1.0135615913990792,0.05537243716663857
36.11012,1.1374437404013038,0.06126431068802833
36.114704,1.2884957282592153,0.06717590055498135
36.119304,1.4665512288100402,0.07479339253644485
36.123892,1.6666243309589561,0.08244125698681182
36.128492,1.893578761086639,0.09005593941832112
36.133076,2.1402190436119066,0.09767390782850098
36.137668,2.4120639699347923,0.1052557776281028
36.142248,2.710790224236445,0.11280888164953352
36.146844,3.029124287670165,0.12043414584388958
36.15144,3.3674327143783884,0.128052330051393
36.156028,3.724649743750695,0.13568020183126164
36.160616,4.091770791678867,0.1433049837493456
36.1652,4.452796026453169,0.1509667993845944
36.16978,4.797400494294929,0.15189298619427963
36.174372,5.119698849661678,0.15244318310106134
36.178968,5.42606517695247,0.15251155574895425
36.18356,5.711835977766291,0.15238376083998234
36.188152,5.981763033401409,0.15224466641585402
36.192732,6.229672487438437,0.15213403583948082
36.197324,6.456585959039167,0.15205423011028274
36.201912,6.669043858765424,0.1518333771602534
36.2065,6.856208831796809,0.15165332781694685
36.211096,7.021844942086686,0.1515212245401214
36.215684,7.165419309329843,0.15137625484707998
36.220272,7.287709183259782,0.15123826670942822
36.224864,7.393744616419955,0.15104169473509407
36.229456,7.4802944251622066,0.15082393504913152
36.23406,7.543883056410091,0.15062031878748144
36.238652,7.591006779276807,0.15027756170004655
36.243248,7.615413694077445,0.14993132828284017
36.247836,7.621112234193666,0.14954845740976971
36.252436,7.609867366703874,0.1491867738361229
36.257016,7.5935822070388905,0.14875628089507412
36.26161999999999,7.569979387078579,0.14842709364075182
36.266212,7.546987490688995,0.1480599400367291
36.270808,7.524117779013557,0.14768313283301857
36.275392,7.497816655710301,0.1473827570288917
36.279984,7.463664991806507,0.14717521226293337
36.284576,7.433844173978178,0.14687430548819067
36.289168,7.4018137916634865,0.14657942872097252
36.293748,7.368473279310083,0.14627666157296826
36.29834,7.337586700871332,0.14595025319849164
36.302928,7.302735830499549,0.1456937796022016
36.307516,7.272259947651864,0.14538100833357484
36.312104,7.244115814004684,0.14505117216867913
36.316696,7.211640834282037,0.14481381881859026
36.321292,7.175734442931573,0.14465584149390143
36.325872,7.142281985495761,0.14447337858042728
36.330464,7.106830431184991,0.14436735309170276
36.335052,7.074243506379939,0.1442562019318399
36.339632,7.043743961347102,0.14414387791487823
36.344224,7.0194182727336525,0.1439533057687106
36.348804,6.99910101750186,0.14373114164653014
36.353392,6.985490498994667,0.1434431210295899
36.357988,6.975766229154987,0.14313196438761594
36.362576,6.9668633504974355,0.14285688497584287
36.367168,6.96454502385034,0.14252473409219962
36.371756,6.9662351305848995,0.14216071188143628
36.376356,6.967847194053941,0.1418457060044395
36.380944,6.979519362609886,0.14143678308113505
36.385544,6.993567421814963,0.14105789408127645
36.390124,7.014977282763997,0.14062319081036861
36.394724,7.045014934047075,0.14009715010147963
36.39932,7.076651226245784,0.1396068866729226
36.403912,7.104489552674238,0.13921542331829143
36.408496,7.134903997731491,0.1387937767816786
36.413088,7.169326876170401,0.13834314278927964
36.417688,7.203793896057938,0.13793514885655822
36.422288,7.243535337917218,0.13746961891594273
36.426876,7.282788040919915,0.13703353681620256
36.431472,7.3205303859042345,0.13664625941139924
36.436064,7.35815054617441,0.13627483239000923
36.440652,7.393849652835143,0.1359398789155443
36.44524,7.427505521172289,0.1356428825823077
36.449832,7.462471519548148,0.13535630393826825
36.454428,7.498581321799946,0.13504996373093633
36.459016,7.532237190137093,0.13476450032447465
36.463612,7.57345508819786,0.1343812892072846
36.4682,7.617737843744007,0.13395210313114736
36.472792,7.657889981194353,0.13356353572281665
36.477372,7.6970985427484235,0.13315148526005297
36.48196,7.732543040349128,0.1327559321047489
36.486556,7.76295748540638,0.13240230726124808
36.491144,7.794349408176799,0.13200042931105146
36.495732,7.832359784774561,0.13147795729586567
36.500316,7.875722626609584,0.13087052523346052
36.504916,7.918141892548331,0.13023953264324403
36.509508,7.9623158859337435,0.129558861804826
36.5141,7.997739904270971,0.1289556447043002
36.518692,8.035285204197303,0.1282819752649434
36.52328,8.073275101531586,0.12754690958066592
36.52788,8.107012196055924,0.12684741259625465
36.53246,8.13608579217925,0.1261632914117409
36.53706,8.163682932101088,0.12544063724819443
36.541648,8.190414539392165,0.12465495784271323
36.54624,8.209539975510998,0.12392111826687154
36.550832,8.225678597409962,0.12318814142624118
36.555424,8.233311613689034,0.12252120094512463
36.560016,8.233338458795858,0.12190530993792774
36.564608,8.230500674396962,0.1212858564936962
36.5692,8.224798260492351,0.12066111845975144
36.573784,8.214965228491934,0.12005709746145339
36.57836399999999,8.203944251166954,0.11943556095855862
36.582964,8.187482525707455,0.11882573895137762
36.587552,8.165213497971008,0.11824623124853423
36.592148,8.134072310472225,0.1177374533036574
36.59674,8.100599373772939,0.11723019048071344
36.601328,8.061074765368405,0.11676139870713124
36.605928,8.030500359991725,0.11617634161893134
36.610508,7.996083847396158,0.11563124371605132
36.6151,7.963344018981745,0.11507471459984188
36.619696,7.931870179157416,0.11448925893443865
36.624284,7.904649142143034,0.11387650314982324
36.62888,7.881436538510309,0.11325018015433781
36.63346799999999,7.854181599679039,0.11271098161796765
36.638056,7.833222701981304,0.11211814450946805
36.642652,7.8195814645788975,0.11146150806496202
36.64724399999999,7.810070845272293,0.11078774450927065
36.651848,7.809798939870458,0.11003309594939839
36.656428,7.81239166397434,0.10928935018860295
36.661028,7.81952570176509,0.10854979055731724
36.665616,7.831445422670999,0.10780079005076251
36.670216,7.8519929339109495,0.10701100046396914
36.674808,7.880801681342505,0.10619970821290844
36.679412,7.914396111889217,0.1053848271388986
36.684004,7.957517767217619,0.10452435085407198
36.6886,8.007346159270623,0.10364624514164665
36.693184,8.06298185360058,0.10274987646797497
36.69778,8.121482177436251,0.10188620700452648
36.702384,8.1907757146437,0.10096750885939994
36.706976,8.262645370479945,0.1000527803635829
36.711568,8.340444513307288,0.09913045129034302
36.71616,8.422863013087015,0.09819283210798779
36.720752,8.506836012333746,0.09727016520976911
36.725336,8.599392660465893,0.09628782570575457
36.729924,8.696324296122132,0.0953043717569259
36.734524,8.793422257941144,0.09437017401628481
36.739112,8.8898651547408,0.09344167199001188
36.7437,8.98312100934093,0.09256740669739705
36.748284,9.075966168349996,0.09168722622667419
36.752872,9.1673790126062,0.09081155342402122
36.757468,9.264022137385522,0.08990214367049941
36.762056,9.354613590459598,0.089029476604983
36.76665199999999,9.440052806276078,0.088186135574314
36.771236,9.525203511215638,0.08733486351159601
36.77582,9.605568533040039,0.08649610737370508
36.780408,9.680126252587488,0.08567357587419262
36.784996,9.75553926513396,0.08482723334315244
36.789588,9.82166942232703,0.08400535792447479
36.79418,9.878272354738412,0.08322025160653491
36.798772,9.932787907377579,0.08243219661061386
36.803364,9.980063842986935,0.08164789218049616
36.807944,10.018956357690541,0.08087821238838214
36.812544,10.050975809506772,0.08009236494323115
36.817128,10.075511274864901,0.07931601966708106
36.821728,10.089986635136132,0.07854899666257016
36.826312,10.097711117234129,0.07775899418263632
36.830908,10.102570969826413,0.07695293656257614
36.835504,10.10313387816012,0.07612166029141036
36.8401,10.096867865055083,0.07529398384048443
36.844688,10.084916734387239,0.0744580666440525
36.849284,10.05767521810938,0.07366110810243011
36.853876,10.024626399554569,0.07285672599644552
36.85846,9.985525909294514,0.07205336397816409
36.863052,9.940129377900924,0.07126176767457296
36.867636,9.886637936478504,0.07048146495780493
36.872224,9.83363523391267,0.06967709069532772
36.876816,9.774214305499152,0.0688862665917071
36.881412,9.712872323476194,0.06809453951881754
36.886,9.646133734767343,0.0673041661601112
36.8906,9.572610366068382,0.06653784407095285
36.895188,9.498187562921768,0.0657632667595002
36.899784,9.421354967309133,0.06500485995393955
36.904368,9.34660975146871,0.06425507172389425
36.908956,9.268555308714618,0.06352338720177272
36.913556,9.194631484056329,0.06278878635175408
36.918136,9.12099617027496,0.062066409819125916
36.92272,9.0478937367988,0.06134802831530575
36.927316,8.973813825609474,0.06065784939632836
36.931908,8.907584455020688,0.05995852671829432
36.9365,8.842420845042323,0.05927555883105067
36.94108799999999,8.78780607900744,0.05858058387996384
36.945688,8.738754245821221,0.057899873439405024
36.950268,8.695631899626097,0.05721997212807657
36.954868,8.653941868183834,0.05654554826005014
36.95946,8.620757442361466,0.0558750205846973
36.964052,8.587617157987726,0.0552342789768279
36.968648,8.557585872547994,0.05460506928695784
36.973244,8.53156302048992,0.053986741155004375
36.977832,8.512002535728152,0.05338719056015575
36.982428,8.494407246024458,0.05280981981558001
36.987016,8.477266793360455,0.05228224800573972
36.991608,8.464256958792252,0.051762994828176714
36.9962,8.452068515406182,0.05128164558506029
37.000792,8.444787939849418,0.05081458630226069
37.00538,8.436652071293631,0.05038187046567308
37.009972,8.430359213081768,0.04998194696889625
37.01456,8.42002401967136,0.04963569443998579
37.019152,8.411898390747314,0.04930687601500291
37.023748,8.396254873548274,0.049029623241292924
37.028328,8.38077768251201,0.04878046162205288
37.03292,8.35814915734319,0.04856737070380959
37.037508,8.333233024422492,0.048373998125063926
37.042096,8.301942807102742,0.04822099749519107
37.046692,8.266976808726882,0.04810779507817562
37.05128,8.226902714542057,0.048019794927242815
37.055868,8.182497774281764,0.04796205697551039
37.060464,8.134661422393656,0.04793470457148389
37.065052,8.082616409144226,0.04793299469779151
37.06966,8.026607103961767,0.04794639820999143
37.074252,7.96969836433166,0.047959196971486186
37.078848,7.907393018015666,0.04797238540373541
37.083428,7.841245564480791,0.047994894675924125
37.088028,7.770723123421822,0.04801158736041655
37.092616,7.693660271801025,0.04803845837050301
37.097216,7.610179194332549,0.048070587928417806
37.1018,7.515538349349861,0.04812101715684174
37.106404,7.419098635471878,0.04817532516184089
37.110988,7.314319642136773,0.04824264829886161
37.115572,7.206964530172869,0.048308032821152924
37.12016,7.098054918741963,0.04836205171601762
37.124756,6.988490242291699,0.04840259256500446
37.12934,6.872507339993755,0.048449371852595347
37.133936,6.755991557390599,0.04847888383404674
37.138524,6.640986132805819,0.04847499697437731
37.143108,6.5223829704304475,0.04847116426343882
37.147696,6.399160451102693,0.048478239606049835
37.152292,6.27360618257443,0.04846338010993315
37.156872,6.147396849026812,0.04843419168986422
37.161452,6.015913093507451,0.04839576365586114
37.166044,5.876989492978616,0.04837156309526616
37.170632,5.737943707735637,0.04835644963876341
37.17522,5.594034196111981,0.04836738079505393
37.179816,5.446526946697734,0.04837474979693869
37.184404,5.300163501159425,0.048360955186641685
37.188992,5.152778436459324,0.04835797287672451
37.193584,5.0103792828540445,0.048318811963303475
37.198172,4.869612671981286,0.04821797506486424
37.202768,4.7319109185939086,0.04808235268087998
37.207364,4.592776850453672,0.04790780622448726
37.211956,4.450045044522844,0.047719588071102145
37.216544,4.304248381106635,0.047551359349988775
37.221144,4.157552283242779,0.047373269903034324
37.225724,4.010078935645422,0.047161836203695795
37.230324,3.8595407305626828,0.046962185294904576
37.234916,3.710923579089385,0.04673566283986822
37.239512,3.565371285101468,0.04646129959087483
