Time,Force,Position
36.756392,7.2153731394883796,0.04796597903467324
36.760988,7.041127226072988,0.04795879717719473
36.765584,6.869457431286394,0.04795966917440571
36.770184,6.692513214528059,0.047959743508927614
36.77478,6.511194010245631,0.047951502123413495
36.779376,6.327176502620259,0.04793920510412742
36.783964,6.1405828763660875,0.047916790309750296
36.788552,5.950147142893034,0.04790465124155595
36.793144,5.7538260638775105,0.047919991849074896
36.797736,5.5514533131567445,0.04791183328912682
36.802328,5.345727194073678,0.04789112107276421
36.806924,5.133827218571222,0.04785468911622906
36.811516,4.916164082240442,0.04784274362474967
36.816104,4.694003773671424,0.047818241126668964
36.820704,4.472087834530695,0.04775413423521296
36.825292,4.247351407332878,0.04768786665514905
36.829884,4.020038861506263,0.047589085913717855
36.83448,3.79015019705085,0.04744909131607613
36.839068,3.5621825862048784,0.04728263231136998
36.843676,3.338834332311291,0.047092011541704275
36.848264,3.1208826851035916,0.04687716227513247
36.852856,2.905096460933624,0.04655862031226258
36.857452,2.6885329870301553,0.044145210341599
36.86204,2.482352030907396,0.04172232801826636
36.866636,2.2823449312040256,0.03930734582141068
36.871228,2.0845473959870158,0.036901130134611125
36.87582,1.8935787822087518,0.03450458834222218
36.8804,1.7122595779263226,0.03210819611467487
36.885,1.5389130989585786,0.029700657797066318
36.88958,1.3757489097918805,0.027316733633032584
36.89418,1.22775292152105,0.024934090260864135
36.898768,1.0910830269272047,0.02256709106848118
36.903364,0.9590766307343735,0.020187398011789242
36.907956,0.8370625359946638,0.01782646895324226
36.912552,0.7450048663508408,0.015505545600800908
36.91714,0.6873566525925158,0.023390727044665303
36.921736,0.6602757875008057,0.030784533153472148
36.926324,0.6711240728196677,0.0375182457349408
36.93092,0.7168264114319819,0.04364525671167046
36.935508,0.7861008511093917,0.04980419672349028
36.940096,0.8875310407373104,0.05565930084497063
36.944676,1.018174307544503,0.061540723616858826
36.949268,1.1833492149513394,0.0694104763228514
36.95386,1.3735285381761297,0.07721609527175399
36.958448,1.5879350274853723,0.08505045236632955
36.96304,1.834986005601706,0.09274609206963445
36.967628,2.103477563562292,0.10042515160614646
36.972224,2.388423790272309,0.10815758509363657
36.97682,2.6922786196464075,0.11592525315579251
36.981408,3.0147976822562974,0.12373500184806571
36.986016,3.354837174226039,0.13154100601530822
36.990604,3.7140296382881552,0.1393327015479374
36.995216,4.104634504384165,0.14698876084610596
36.999796,4.51395092808627,0.1544612179860465
37.004384,4.895265882118819,0.16193705947249643
37.008988,5.2499336379691535,0.1592028092148424
37.013576,5.582040672284446,0.15694782459379322
37.01818,5.876619012148492,0.15542520181792316
37.022776,6.138630906470966,0.1545967304359134
37.02738,6.3821346540886825,0.1537041104648482
37.03196,6.591639641411966,0.15322431396908545
37.03656,6.780637385155536,0.1527872853859415
37.041148,6.939512377640443,0.1524452001638512
37.045752,7.0730944434304766,0.15217088943147233
37.050336,7.188290547229902,0.15179747619890444
37.05494,7.274517943278343,0.1516015592576904
37.059524,7.343269051415558,0.1514275085772819
37.06412,7.401162325468896,0.1511083767040033
37.0687,7.4419017243048176,0.15074136207930428
37.073292,7.466220356208199,0.1502842050288355
37.077892,7.468843799207298,0.14981253778822634
37.082484,7.4512485095036025,0.149362379735125
37.087064,7.410902509916942,0.1489971087926878
37.091656,7.354566918252281,0.14878784440437953
37.096236,7.3109116917519446,0.14848442962341166
37.100828,7.271675594224331,0.1481642039089985
37.10542,7.235103898222772,0.1478891293268618
37.110008,7.2088027749195165,0.14758355608423931
37.114604,7.189086203626713,0.14721824046083118
37.119184,7.172566914165175,0.14691155710222964
37.123776,7.167950740134463,0.1465175709820598
37.12836,7.169430379257621,0.14609503699657742
37.132948,7.178604472450285,0.1456702154419594
37.137548,7.195428878263826,0.14520677730411147
37.14214,7.21209719754633,0.1448379344037088
37.146728,7.234616960554417,0.14445033638811322
37.151316,7.262699656411164,0.1440258127644846
37.155916,7.28715071266043,0.14373777727789833
37.160508,7.31397765955883,0.14347504560334093
37.165088,7.3465338654686665,0.14321115797116019
37.169688,7.383431157085705,0.1429808936025294
37.174276,7.422215600495296,0.1428008989673621
37.178876,7.459167273192702,0.14272921870254024
37.183464,7.497473217377449,0.1427024366777832
37.188064,7.531248087507068,0.14281937575637518
37.192648,7.565233425248089,0.1430051962817341
37.197244,7.5999179694570955,0.14323001748436542
37.201832,7.634768839828875,0.14348455548288208
37.206428,7.6687644172016345,0.14378659091754398
37.211032,7.703781613736189,0.14406805915210008
37.215624,7.736999941375449,0.14437054261796484
37.220212,7.763555673738736,0.14477331244807418
37.224808,7.789989221387878,0.14518103375845479
37.229396,7.809515804332757,0.14570194364509068
37.23398,7.828675833135198,0.14624198792988347
37.23856,7.851677969156522,0.14671876752896695
37.243156,7.875457354911348,0.14718699799439072
37.247748,7.902179413437409,0.14760507977199283
37.252336,7.9372407514205925,0.14790835106641717
37.256928,7.968337797470747,0.14827359237389243
37.261516,7.996858724892102,0.14866224143387255
37.266112,8.033674790321953,0.14890329746043082
37.270696,8.074943886541416,0.14905344348365934
37.275276,8.115147222150455,0.14918434652697568
37.279884,8.155428601025013,0.1492706715706511
37.284476,8.200407380117474,0.14925666314026648
37.289064,8.249184124980188,0.1491537968850484
37.29366,8.302047346490076,0.14898433862985436
37.298252,8.359241414075429,0.1487333319962658
37.302848,8.413981547746129,0.14850222783869835
37.307436,8.467167181949826,0.1482768385980221
37.312032,8.525216542534197,0.14797834475507893
37.316612,8.584776261136946,0.1476425446294392
37.321212,8.650710064138746,0.14719129793526123
37.325796,8.720441832910803,0.14665429396960913
37.330392,8.784121929977614,0.1461811270843736
37.334976,8.841339659748117,0.1457573089684923
37.33958,8.895937129441192,0.14532733296975833
37.34416,8.939452874885575,0.14500631644786038
37.348752,8.982269413861976,0.1446518422215771
37.353336,9.027984484160982,0.1442232098451599
37.357928,9.065726829145301,0.1438847002158066
37.362516,9.096273698548439,0.14362406677880823
37.3671,9.126043318218073,0.14336775266353738
37.371692,9.159899414534884,0.14305200861291478
37.376284,9.18991340363281,0.1427909337904948
37.380868,9.216085285511854,0.14258213750187446
37.385448,9.241602102371543,0.1423748069884726
37.39004,9.265686604478372,0.14217100630138774
37.394628,9.29001547601349,0.14195585449137768
37.39922,9.320596247233519,0.14164890361506433
37.403816,9.348845269253037,0.1413540769994066
37.408404,9.372474934320174,0.14111100861862072
37.413012,9.392506861596717,0.1409051740807264
37.4176,9.409718300816174,0.14073328019048625
37.422204,9.430116782235155,0.14051306706729474
37.4268,9.450393078939989,0.14029752605465018
37.431388,9.475166547883065,0.14004112587161174
37.43598,9.496508605198322,0.1398412505438256
37.440572,9.516706858637642,0.13966208066064958
37.445164,9.538581796258109,0.13947402831996317
37.449744,9.559679484145075,0.13928882812428656
37.454336,9.589072310040535,0.1389858688075928
37.458924,9.621896547563813,0.13862729778395574
37.463524,9.65328847033423,0.13827517430311495
37.468108,9.680549775008846,0.13794772915301748
37.4727,9.709321437701837,0.13758646036851804
37.477292,9.735883535908467,0.1372319150286438
37.481884,9.763711622705186,0.1368567753429585
37.486476,9.794193871396217,0.13643132637908503
37.491072,9.820545501991448,0.1360357797529092
37.49566,9.848529675319199,0.13560358088079347
37.500252,9.879412379969557,0.1351097991696923
37.50484,9.91192762735244,0.13457875841663922
37.509436,9.944520918000837,0.13401606069209326
37.514016,9.976825697772314,0.13343928138306613
37.518612,10.012928443314046,0.13279549307102262
37.523204,10.04310170186468,0.13219276176485442
37.527792,10.080915033404452,0.13147893910009942
37.532384,10.11970584265739,0.13072590772347586
37.536972,10.15256716491923,0.1300121413177695
37.541568,10.186283780180089,0.12926275549118488
37.54616,10.21292710457391,0.12857159007039956
37.550748,10.23376312669078,0.1279136143052136
37.555344,10.250468530711847,0.12727858525777916
37.559932,10.270194650769668,0.12657760960429335
37.56452,10.288322129911855,0.12585542625437077
37.569108,10.302563360386532,0.12514264695777297
37.573708,10.310997288584257,0.12445902261539135
37.5783,10.312602295343234,0.12381541107443304
37.582888,10.308033445682824,0.12321262917789867
37.587492,10.297535109031314,0.12264124386789632
37.59208,10.281395796265627,0.12211886408540867
37.59668,10.263946353461227,0.12158931076412345
37.601268,10.241877553704443,0.12109579651602692
37.605868,10.21555595113771,0.12062334284500559
37.61046,10.18330486157988,0.12017912506977127
37.615056,10.15076526114513,0.1197135528719418
37.61964,10.116016096224019,0.11924529436299777
37.624236,10.07419364043587,0.11881940722305512
37.628824,10.033226477646743,0.11835467477202163
37.633416,9.993647488161844,0.1178603581512627
37.638008,9.956233921714677,0.11733533785760808
37.6426,9.918043105534007,0.11680763639401688
37.647192,9.875477301829243,0.11630181369151983
37.651776,9.832789313410334,0.11579739570768399
37.656356,9.785359783324896,0.11532874884923223
37.660948,9.7380524379536,0.1148503404319639
37.665544,9.691111646724746,0.11435181547452347
37.670132,9.648912397162418,0.11380849140612614
37.674732,9.61182124340906,0.11320497433198254
37.67932,9.57755057771279,0.11257383683107187
37.683912,9.549287442273139,0.11187831961859304
37.688504,9.518326003490541,0.11119667802378413
37.693092,9.49337209496456,0.11045132943246665
37.697704,9.469317620886226,0.10969566742321088
37.702296,9.445673842398957,0.10894926723473962
37.706888,9.421907879197544,0.10820403830233764
37.711476,9.39699811212019,0.10747243382045327
37.716064,9.3823486781094,0.1066603824336991
37.72066,9.370153178013263,0.1058407063468345
37.725252,9.354770635717598,0.10505654657913253
37.729848,9.337467039812493,0.104285907246378
37.734428,9.32016344390739,0.10351023778181621
37.739016,9.31029969301176,0.10267818604464435
37.743604,9.301213191849632,0.10184640179115692
37.748204,9.296257308783307,0.10100010402246115
37.752796,9.295309859098639,0.10014796748052232
37.757392,9.297593593062123,0.09928994439895082
37.761984,9.299632957597318,0.09844472931437105
37.76658,9.30286026745708,0.09761780905846236
37.771168,9.307642076783843,0.09679225828011967
37.775764,9.311280082234672,0.09598498908139766
37.780352,9.319293075209591,0.09516000448159842
37.784948,9.325917894880282,0.09436346749827686
37.789536,9.33793932123686,0.09354332081362056
37.79412,9.357400592602911,0.09268166298797348
37.798712,9.38250284008314,0.0917891986864247
37.803308,9.408504522011018,0.09089418518140037
37.807896,9.430175357863432,0.0900512630884627
37.812496,9.450458020411613,0.08923460029816743
37.817092,9.474338420750385,0.0884041413083867
37.82168,9.502715993327397,0.08755801144593497
37.826272,9.540332279809178,0.0866721745418059
37.83086,9.57794856629096,0.08579431110584779
37.835452,9.613643799163302,0.08493146455701572
37.84004,9.65330332396867,0.0840473163745874
37.844628,9.694717576220704,0.08313521776507374
37.849224,9.737397817062828,0.08221267961529946
37.853812,9.7809774923526,0.08129377753566791
37.8584,9.82312485288951,0.08037239525587726
37.862996,9.86743763646415,0.07943905381950186
37.867596,9.912772039200588,0.07850534927652579
37.872196,9.956307573041729,0.07758307469840828
37.87678,9.998166422701718,0.07666506750194318
37.881372,10.037571338447059,0.07575464767019828
37.885952,10.07272345138245,0.07485616863351455
37.890548,10.104033457098957,0.07398331975933423
37.89514,10.137264516424908,0.07310605534055065
37.89974,10.173027552931028,0.07220217579852699
37.904324,10.210300947455524,0.07127758385864548
37.90892,10.250106319160187,0.07033204805919974
37.913512,10.28463726889311,0.06939765780705863
37.9181,10.311728373616562,0.06849574105158791
37.922688,10.338164413320655,0.06759268040302245
37.92728,10.366888060776628,0.06667166496304223
37.931872,10.392013970442006,0.06576341977203103
37.936468,10.40945566566962,0.06488591505341129
37.941056,10.426775176183089,0.06401789907281273
37.945644,10.436777026401229,0.06316353506482944
37.950232,10.44485782300993,0.06231572219426196
37.954816,10.448197077952099,0.061484476981840105
37.9594,10.442952684008855,0.06067750568918841
37.96398,10.435009986722665,0.05987172382458647
37.968576,10.4222035630558,0.05907869110218091
37.973172,10.401468555522879,0.05831453355426641
37.97776,10.37370439857155,0.05757693196769081
37.982352,10.341076515239543,0.056851878709498864
37.98694,10.301663851917418,0.05614600700259267
37.991528,10.253178800853297,0.05547612687359244
37.996124,10.19586573147547,0.0548315790637975
38.000712,10.123472744099033,0.05424619467366544
38.005316,10.048669964256572,0.05367530837320109
38.009896,9.965938600548055,0.0531265643894418
38.014492,9.870947806898016,0.05262854021762106
38.019076,9.761776529697013,0.05218629150462149
38.023668,9.638791323087483,0.05178604193291166
38.028256,9.512907585155347,0.051419071347792084
38.032856,9.37051161447174,0.05109609407990695
38.037452,9.223662612998522,0.050797452360479
38.042048,9.06377693185028,0.050548233304337886
38.046644,8.889055702131715,0.05035036638361265
38.051236,8.711147430213627,0.05016356384546638
38.055836,8.523800216411104,0.050028617806240024
38.060424,8.332366525961408,0.04990574198334692
38.065016,8.136846358864538,0.04979739209799547
38.069608,7.938139149568142,0.04970352634845235
38.0742,7.727661249186806,0.0496540346790577
38.078784,7.508355330491765,0.04963453613656281
38.083376,7.284185685416048,0.049627572841684855
38.087968,7.057728432588454,0.049636829719429044
38.092564,6.830493930027354,0.049635334414930773
38.097152,6.593531974704905,0.04967184067149818
38.101748,6.350684673839984,0.049739266875927064
38.106336,6.106038504079768,0.04981356690527636
38.110932,5.865356626252581,0.04986414903534141
38.11552,5.629416290091925,0.04989386355624647
38.120116,5.387302097511878,0.04991717528526124
38.1247,5.148785642722421,0.04994466302975211
38.129284,4.9123124262565545,0.04993586694322112
38.133892,4.682746174494949,0.04986795627543954
38.138476,4.460986321885255,0.0497332836635526
38.143064,4.240003719009063,0.04958678057643187
38.147656,4.020164920008811,0.049417696070644536
38.152252,3.8021249899038536,0.04920884165514431
38.156844,3.587804982303634,0.04894636924659323
38.161424,3.375161658884564,0.04867030624801848
38.16602,3.172778668532058,0.04832908345646983
38.1706,2.9757922848654386,0.047952927916003085
38.1752,2.7842025078847064,0.04751636723744737
