Time,Force,Position
35.742416,2.3177847957273596,0.045308309355570016
35.747004,2.1833583674367647,0.04498326673710413
35.751583999999994,2.0440682127654934,0.04265088875489093
35.756176,1.8988927125517523,0.04034343927262416
35.760768,1.7610348726333396,0.03802884243511812
35.765364,1.632660116047988,0.03569303835623626
35.76995599999999,1.5067392933772892,0.03337409941636547
35.774548,1.3851934582306835,0.03107413343483067
35.779135999999994,1.2689220450558196,0.028794350957400724
35.78372399999999,1.159068857728636,0.02652133605687089
35.788315999999995,1.0517917890302502,0.02423852410693325
35.792911999999994,0.9536312495224887,0.021928945860613336
35.79749999999999,0.8665082928147927,0.019606509653735775
35.802096,0.7863364422599882,0.017290056352726162
35.806684,0.7084963409056904,0.015001567082256178
35.81127599999999,0.633765238485401,0.012747094760976145
35.815867999999995,0.5621431349991205,0.010554695914744729
35.82046,0.5015586143129056,0.008354003428281603
35.82505199999999,0.44216203895125816,0.006226074503414409
35.829635999999994,0.3918819927802348,0.004096309581697662
35.834224,0.34609911884745065,0.002020751958623182
35.838815999999994,0.3095991002680645,0.0
35.843419999999995,0.2858235883016328,0.0
35.84800799999999,0.2794021795322791,0.0
35.852608,0.29397675319922306,0.008821485920499906
35.857204,0.32725970155058637,0.01758417652660048
35.861804,0.38501418541469296,0.026026756889265555
35.866384,0.4625767063905299,0.03435172320427266
35.870971999999995,0.5563495266875058,0.04268887242690443
35.87555999999999,0.6635121582485313,0.05116455695122385
35.88015599999999,0.790849381063724,0.059613121806735336
35.884747999999995,0.9404485749052993,0.06790730429722563
35.889332,1.1084676325543743,0.07608195132892598
35.893919999999994,1.294495858419884,0.08422464306123856
35.89852,1.5013537405589177,0.09230404532375727
35.903108,1.7270760839134056,0.10035752267733464
35.90770799999999,1.9690087265890321,0.10845575202839994
35.912299999999995,2.2239646263862713,0.11656512311486353
35.916892,2.500527432190536,0.12462992981547572
35.92149199999999,2.795632286516447,0.1326392472016453
35.92608,3.108135385488064,0.14063963936898238
35.930676,3.4416683687128677,0.14851583394208343
35.935264,3.79290153001371,0.15619087986600044
35.939843999999994,4.145790896232226,0.16372166942024421
35.944447999999994,4.48254800639512,0.16238495683214887
35.94903599999999,4.80431666437833,0.16106154764125402
35.953627999999995,5.105822448210118,0.1600297794749114
35.95822,5.394593485797213,0.15906410527957285
35.96281199999999,5.671651396301407,0.15804032091328435
35.96741599999999,5.9412489825326515,0.15682432331766125
35.972004,6.200687941148,0.1555764361160228
35.9766,6.4437502742794335,0.15442011056985916
35.981188,6.665816624974572,0.15338063180332134
35.98578799999999,6.874326838242888,0.15229833138875182
35.990376,7.067237675760792,0.1512226254483384
35.994975999999994,7.246802843463274,0.15015558459079922
35.99956399999999,7.417186861263027,0.14895918115882445
36.004164,7.568373765521779,0.14776815177640734
36.008748,7.701873914257903,0.14656757987272112
36.013344,7.814989004128459,0.1453878608163949
36.017936,7.910539523190535,0.1441729675707162
36.022532,7.980518844312557,0.1431076424160004
36.027128,8.026736076021557,0.14227565656920602
36.031728,8.061094333748361,0.1415752836166509
36.03632,8.092343592541157,0.1408953413148012
36.04091999999999,8.121383286847593,0.1402255581641653
36.045508,8.147436166934165,0.13956477078218052
36.050096,8.166249429990925,0.13895527139500313
36.054684,8.179744129627318,0.13836867609935283
36.05927199999999,8.190452243023511,0.13774834259639218
36.063864,8.19645271657006,0.13711906958517805
36.068456,8.192393085029712,0.1365691565712738
36.073052,8.18583537812608,0.13599713279009262
36.07764,8.168728827278969,0.1355300618641795
36.082232,8.145037724421398,0.13510780422233123
36.08682399999999,8.11831566589534,0.13465476596985348
36.091412,8.081289132854089,0.13429034529329684
36.096008,8.045362262240147,0.13386353044733695
36.100596,8.00350590463511,0.13348058412542602
36.10520399999999,7.959073428401274,0.13311605633205442
36.109796,7.912431387681076,0.13274847948994534
36.114392,7.864967955778746,0.13234423009637955
36.118992,7.822568478236759,0.13181678371338562
36.123588,7.780002674531995,0.1312537762054713
36.128188,7.734982936912582,0.13070071943896544
36.13278,7.687875819520952,0.13013630618605398
36.137372,7.643467005472264,0.12953726185674663
36.14196,7.602123048908959,0.1288844048629935
36.14656,7.560534722917361,0.1282398941522607
36.15114,7.510895628345562,0.12771232389957177
36.155744,7.458602371879447,0.12724500512961118
36.160332,7.414404025442161,0.12668715930821026
36.16493199999999,7.373314677938884,0.12611325515095562
36.16952799999999,7.3405646098927315,0.1254362366109128
36.17412,7.311945159942378,0.124728747155098
36.178716,7.284758024744885,0.12402010582294754
36.183308,7.260924257909692,0.12328252101963807
36.187896,7.239177870846715,0.12254876241094972
36.192496,7.222339351613041,0.12178336191608738
36.197088,7.209875819903464,0.12097737852727339
36.20168,7.196190441052426,0.12023616509431123
36.206268,7.192809536716583,0.11941654663122084
36.21085599999999,7.188861850258638,0.11867327627598484
36.215444,7.188433858325768,0.11794239174759005
36.220032,7.194590418403354,0.11717753387531643
36.224624,7.203900118863574,0.116445233987657
36.229216,7.21529719909601,0.11572581284614243
36.2338,7.2258389863294274,0.1150545395960667
36.23838,7.24320969500159,0.11434236570936963
36.242972,7.268308759560147,0.11357366867353913
36.247568,7.297538442214506,0.1127859589894744
36.25215599999999,7.325546277727408,0.11207178097026824
36.256752,7.356418742746029,0.11137169217813309
36.261332,7.389911467842074,0.11070495813997999
36.26592,7.42843424548157,0.11002322284450763
36.27052,7.468022783731489,0.10937193117176018
36.275108,7.5125191898107095,0.1087086166025566
36.2797,7.563844517328677,0.10802142702140012
36.284288,7.619833343247659,0.10734134640457703
36.28888799999999,7.675866310615266,0.10670667645694351
36.293468,7.739339122992349,0.10600917193065938
36.298068,7.7975816548463195,0.10539587773625905
36.30266,7.856601436433791,0.10478631822224801
36.307256,7.91537684859297,0.10419609983288246
36.311848,7.974030076038004,0.10362265373469554
36.316444,8.033827107358977,0.10303614687410519
36.321052,8.09145871564222,0.10248530807317416
36.325644,8.153831865591991,0.10189784159294606
36.330236,8.214406146646468,0.10133457947636972
36.334832,8.278944719633971,0.10074222207713183
36.339424,8.344382727069123,0.10015174902842586
36.34401999999999,8.411453277236799,0.09952599877933918
36.348608,8.47966763128041,0.09889316174412384
36.353196,8.543751367228223,0.0982790489077013
36.357784,8.596675335661823,0.097749179798506
36.362376,8.64804480462842,0.09722223463063036
36.366972,8.699125762718095,0.0966822496734526
36.37156,8.741334561045438,0.09619602468896217
36.376152,8.776836622648183,0.0957323329535681
36.38074,8.811395108354649,0.09524342453000158
36.385336,8.842600225698817,0.09476947146404517
36.38992399999999,8.873761201594357,0.09426472546561229
36.394512,8.90422297102191,0.09372444555625721
36.399108,8.934396229572544,0.09316586678499289
36.403696,8.960194500599087,0.0926274443365235
36.408284,8.985459891320415,0.09208163172203868
36.41288,9.010436771164827,0.09151456040311615
36.41746799999999,9.032959717094586,0.0909557610789164
36.422076,9.050452610480894,0.09040889590566906
36.42667599999999,9.059728409124226,0.0899087354132816
36.43127199999999,9.0642185246524,0.08940852923719583
36.435852,9.066376890980068,0.08890669224643129
36.440448,9.065548443087872,0.08839788022678295
36.44504,9.06598598378576,0.08787095699710427
36.449636,9.072675424168557,0.08728177189124513
36.45421999999999,9.080875222569729,0.08666493582887577
36.45882,9.080491372085488,0.08610235067730683
36.463412,9.080351891029535,0.08552796819898605
36.468008,9.082500017725463,0.0849253218850757
36.47259999999999,9.083748709973744,0.08432703976042238
36.477196,9.082543468307371,0.08372976775025745
36.481788,9.083137095536294,0.08312768903965316
36.486384,9.083486353336927,0.08253709421775288
36.490976,9.082281111670556,0.08194422132958586
36.495568,9.083485662470208,0.08131935183490374
36.500148,9.083912963536358,0.08069446510685867
36.504736,9.084340264602508,0.08006937587630193
36.50932399999999,9.081047643163922,0.07946143988338762
36.51392,9.083395997839512,0.07882619910202236
36.51850399999999,9.084844918067455,0.07819032645018656
36.523092,9.092589879428935,0.07753566996923521
36.527688,9.104709828314506,0.07687556031607001
36.532276,9.115685973324139,0.07622961540545152
36.536868,9.125762683886123,0.0755890880974574
36.541456,9.14058093611464,0.07493116400694264
36.546044,9.15527700362901,0.07428190533919059
36.550656,9.180599958352381,0.07357746432029269
36.555244,9.21180825861822,0.07284431794212155
36.55983199999999,9.242650004741622,0.0721289028522231
36.56442,9.276067869493822,0.07141541557813072
36.569008,9.312306222303112,0.07069365740210586
36.573612,9.34584627176946,0.06998301353047195
36.578208,9.380285755683456,0.06927468189362566
36.582804,9.418445162102186,0.06855961880250863
36.587392,9.460202306311508,0.0678449630520072
36.591992,9.503103254396773,0.06712466772722057
36.596576,9.547270191072117,0.06639247205183962
36.60117999999999,9.597566842718228,0.06562731358077224
36.605772,9.644387941287889,0.06487140358580605
36.610372,9.70105867733305,0.06407434666377021
36.614968,9.75551984889185,0.06327433282847932
36.619564,9.803807164031259,0.06248570519116983
36.624144,9.852461033313107,0.061686858982640425
36.62873999999999,9.9004598375756,0.06088471051172089
36.633328,9.942939850438059,0.06010264027994299
36.637924,9.979901071900485,0.059332442886369956
36.642512,10.011343501962878,0.05858025736781763
36.6471,10.034979532873358,0.05786111842733314
36.65168799999999,10.056161629869187,0.057136278687349655
36.65628399999999,10.07386817378857,0.05641289218796742
36.660868,10.088387675508429,0.05571061337768217
36.665468,10.098043450847609,0.05502231492113654
36.67005999999999,10.103979303682053,0.05434159125467214
36.674652,10.097367215698053,0.05369683619960368
36.679248,10.078984436629117,0.05309251480421798
36.68383599999999,10.052673073694125,0.05251557250876153
36.688424,10.023174668559605,0.05195543272030134
36.693008,9.98153901819771,0.05144530565561053
36.697596,9.930708795379667,0.050972616990515376
36.702192,9.865409578133745,0.05053698408170814
36.706788,9.786829311784508,0.05015714328547252
36.711376,9.705717068255101,0.049798949138273554
36.715972,9.615410252269553,0.04947726324305131
36.72056,9.513865625504275,0.04920212867901997
36.72516399999999,9.403248610997,0.04895949844156344
36.72976,9.290221804023702,0.04873438807766185
36.734364,9.16889985904191,0.0485472980376577
36.73894799999999,9.045290306308239,0.04837423835752097
36.74354,8.91632828833731,0.04822937356861854
36.74811999999999,8.778416067338531,0.048112972403075424
36.75272399999999,8.63576230467322,0.04800108082390184
36.757316,8.493641422313122,0.04789896298695391
36.761912,8.344369205820467,0.04782710659557343
36.766504,8.199471976851905,0.04775658012275094
36.77109599999999,8.055474182330993,0.047683011969696716
36.775704,7.913808137010587,0.047621854575137325
36.78029599999999,7.766789626452923,0.04759476027668534
36.784884,7.622591603952348,0.047560660664701736
36.78948,7.482768568975866,0.04753273119661639
36.794068,7.342212425714509,0.047538582269893014
36.798656,7.212283169662153,0.04750783936893864
36.80324,7.0810879250197125,0.04749314647411467
36.80781999999999,6.954267667901366,0.047485408587074535
36.812416,6.834887255792493,0.047467657141068674
36.81699999999999,6.721147819797799,0.047435277756167904
36.82159599999999,6.609085067984254,0.04740766829809497
36.826184,6.499720619513653,0.04738165037352419
36.83077599999999,6.387413498271817,0.047367910802612545
36.835368,6.278948484248865,0.04733840912135094
36.839956,6.175391338055216,0.04734043059789518
36.844564,6.073510876042716,0.04734600369550845
36.849152,5.973307098211369,0.04735757789014682
36.853748,5.880420980675348,0.04736382323151157
36.85834,5.788434297586976,0.047367865234222456
36.862944,5.698779363699111,0.0473953437073125
36.86752799999999,5.60732556091595,0.0474229583031809
36.872128,5.521512734246967,0.047438519085561306
36.876724,5.436354972597339,0.04746979952946236
36.88130399999999,5.352341014823652,0.04748579730933286
36.88590799999999,5.274212402592436,0.04747277269386549
36.890496,5.188932456228664,0.04751483544784678
36.895092,5.102630890703099,0.04757032316457259
36.899672,5.017350944339326,0.04761962811170596
36.904276,4.932315367403846,0.04764938932737117
36.90886,4.8448699980023395,0.04772530554149231
36.91345199999999,4.76036730137207,0.047781156541508545
36.918032,4.679051646941327,0.04779863261803507
36.922628,4.602355349462967,0.04780910036393318
36.927224,4.523493628946876,0.04784621912902207
36.931816,4.4472860703251005,0.04781830894517202
36.936404,4.366869850342005,0.047844033499047804
36.941,4.280934838958876,0.047882587004574075
36.945588,4.186660548118626,0.047948742602488575
36.950176,4.088421965345346,0.048053435130289465
36.954764,3.9887510678192086,0.04812991552850201
36.95935599999999,3.8870369319694844,0.04824026981352946
36.96394,3.7808256238815208,0.04835530526191652
36.968528,3.675103054650139,0.04841592951522368
36.973128,3.5665599973616686,0.048488561090449016
36.977716,3.4572396903396956,0.04853686166421689
36.982308,3.34828593746016,0.04855904544123173
36.986904,3.2407203578848556,0.048523355170481286
36.991492,3.1324997132901937,0.048445672028724705
36.99608799999999,3.020192592048357,0.048427894279760665
37.000676,2.90849639437725,0.04833109915703767
37.00528,2.789893232001879,0.04832620383382141
37.009876,2.665404724084039,0.04838286677462656
37.014464,2.540916216166198,0.048441899988307224
37.01906,2.4165498929625033,0.04849382575507195
37.023652,2.291161950597015,0.04851272540212692
37.028244,2.1698604848787006,0.04848455972187077
37.032832,2.0507244421981192,0.048356742851060175
37.037432,1.939028244527012,0.0481951164437335
37.04201199999999,1.832973022970083,0.04799898152026205
37.046612,1.7266734319848627,0.0455373895974638
37.0512,1.623438698485023,0.04304223681049178
37.0558,1.5227800836139813,0.040542510348911986
37.06039199999999,1.4204889260104174,0.038088530108125365
37.06498799999999,1.3247381789686798,0.03563171198910203
37.069576,1.226699824175064,0.0332085791946129
