Time,Force,Position
36.203016,0.6424606290581032,0.011082256281542068
36.207604,0.5947464618841392,0.008728324222431966
36.212188,0.5519401625394791,0.0064862409507608285
36.216776,0.5106883626618236,0.004254575967951313
36.221376,0.4671489550322898,0.0021073558739387113
36.225964,0.4335033263268823,0.0
36.230556,0.4059093693267184,0.0
36.23514,0.3849780076025265,0.0
36.23972,0.3580391156217191,0.0
36.244312,0.3385400686503858,0.0
36.2489,0.318019402517259,0.0
36.253488,0.2954554980605452,0.0
36.25808,0.2764893313944228,0.0
36.262668,0.26496300973777454,0.0
36.267272,0.2598549139288069,0.0
36.271868,0.2532364601014631,0.0
36.276456,0.24445258323638658,0.0
36.28106,0.23758975998075144,0.0
36.28566,0.22394215673499857,0.0
36.290264,0.21143835736518496,0.0
36.29484,0.20420897996711282,0.0
36.299436,0.20094389450206906,0.0
36.304016,0.19600212485587526,0.0
36.308616,0.1944578650206106,0.0
36.313204,0.20629317681765685,0.0
36.317804,0.22898632269858302,0.0
36.322388,0.2759507761125894,0.007694194481497797
36.326984,0.3423228106789997,0.01559754373593137
36.331576,0.43349903308370097,0.023634428574167296
36.336172,0.5503347363257131,0.03140192155682532
36.340768,0.6938073981182011,0.0389895778644576
36.345368,0.8619959648517239,0.04650299629310248
36.349964,1.045539537907366,0.054115332830730105
36.35456,1.246114801466277,0.06177820942569532
36.359148,1.4659313200148183,0.06946889661886373
36.363736,1.7087870593232444,0.07713661300702723
36.368324,1.9766030730009967,0.08473080125003887
36.372916,2.266025992685775,0.09225720482767666
36.377512,2.5761563839299306,0.09981479059362114
36.382096,2.9017639662103516,0.10740275835444829
36.386692,3.242193674507681,0.11501806062369227
36.39128,3.597611834984693,0.1226879283810701
36.395872,3.973903793183857,0.13035615454635432
36.400464,4.3654963766247725,0.13797800234162638
36.405052,4.761786360283591,0.1455019230086238
36.409648,5.145375499514607,0.15298031816116597
36.414236,5.496998877143038,0.15276343629145164
36.41884,5.826960967684076,0.1522847936949294
36.423436,6.132885880488586,0.15160193029792812
36.428024,6.403457761511322,0.1512504443420969
36.432624,6.645183119497222,0.15112690068164727
36.437208,6.861859920216539,0.15105488462382066
36.441804,7.060561454536311,0.15085170993376723
36.446384,7.240099777131968,0.15053795279073678
36.45098,7.397365889069505,0.1501475378244439
36.455572,7.532692442674469,0.14976120286069897
36.460168,7.64518000349921,0.1494042964165728
36.464752,7.736182843031071,0.14910826464837038
36.469352,7.810320318222439,0.14878105069186126
36.473936,7.869347156519976,0.1483668925186605
36.478532,7.912363923476038,0.14788034833070063
36.48314,7.938182673766056,0.14730922531717036
36.487732,7.9448823537805895,0.14669224265167743
36.492324,7.934149887332527,0.1461255208326998
36.49692,7.907505872071985,0.14567135475927234
36.501512,7.883071421297801,0.14521040002016639
36.506104,7.867475228469063,0.14472280862851508
36.510684,7.85527654545125,0.1442403865852914
36.515268,7.846397328978851,0.14380513542907264
36.519856,7.851420324812233,0.14322487375934848
36.524448,7.866337099569742,0.1425283917020794
36.529044,7.883263210833949,0.14187390491804522
36.53362,7.901010713280287,0.1412516586572551
36.538216,7.921544801966825,0.14067344373098878
36.542804,7.945232031036001,0.1401186722575345
36.547396,7.973049878200976,0.13953568225398064
36.551984,8.000911866814583,0.13899050067567204
36.556572,8.029673289875836,0.1384366997930707
36.561164,8.063298439317764,0.13781872947820278
36.565752,8.096557034617257,0.1372271525853117
36.57034,8.13124794466961,0.13664200015512956
36.574936,8.168148419208322,0.13605737040497465
36.579528,8.203416351014512,0.13552282293058607
36.58412,8.243425824487232,0.1349321064082953
36.588708,8.287932470198195,0.13429559771292868
36.593308,8.33117312731907,0.13369479293959916
36.597896,8.37375871942059,0.13309576949923363
36.6025,8.410581150693785,0.1325712830908918
36.607088,8.447770136109417,0.1320324052521136
36.611688,8.480339764572664,0.13155292594797222
36.616284,8.508778774940106,0.1311062208145037
36.62088,8.539216882182512,0.13059704624085341
36.625468,8.57206478189094,0.1300429946575691
36.63006,8.603069671255444,0.12947598416876827
36.634648,8.634030419171317,0.12888057672695202
36.639244,8.663436667620191,0.12829606869011065
36.643832,8.693209470211498,0.12769500771284406
36.648424,8.721017077744737,0.12708438221308002
36.653016,8.74289519828688,0.1265184424415321
36.657604,8.761664319895011,0.12596309399226127
36.662192,8.777324442569135,0.125419370088056
36.666788,8.792940423794631,0.12484659304762748
36.671372,8.810188947752648,0.12423155421792792
36.675952,8.82252960388136,0.12364328439107608
36.680544,8.826364654390177,0.12310737255411273
36.685132,8.827579444821566,0.12255641232585941
36.68972,8.825685236318948,0.12201245315910852
36.694316,8.83106454666303,0.1213688350557892
36.698904,8.833867738378316,0.12074271150953854
36.703512,8.834216996178947,0.12012656570523203
36.708092,8.829824712313048,0.11955735488005233
36.71268,8.823633559551858,0.11900360603178178
36.717284,8.815887907323658,0.11845439829439153
36.721876,8.805566136466663,0.11792002568251136
36.726472,8.793201127286078,0.11741161767638349
36.731052,8.776461130581403,0.11693179531529514
36.735652,8.759310438285661,0.11643518085348516
36.740244,8.74383643017107,0.11592897086461904
36.744844,8.731182910113567,0.11539541563069479
36.749436,8.719428824503712,0.1148535113043138
36.754032,8.707796923608003,0.11430493944708595
36.758632,8.695798468569857,0.11377437472319026
36.763232,8.68380001353171,0.11324375852023508
36.767824,8.672578808227067,0.11271082561694343
36.77242,8.672517370436635,0.11208182066574371
36.777016,8.675687116294357,0.11144509128412125
36.781612,8.68245459994267,0.11078302189686001
36.786208,8.683214553334365,0.11018848240006725
36.790808,8.6876944292308,0.10956467740629498
36.795396,8.69372880459424,0.10893815758619341
36.8,8.706425775233653,0.10825100997041541
36.80458,8.719244930587209,0.10755897649152706
36.809164,8.729776478188889,0.10690163417898244
36.813748,8.745826817190599,0.10620486109586422
36.81834,8.76073335231637,0.10552472600006925
36.822924,8.77821600607094,0.10483041934053881
36.827516,8.796109355416576,0.10415422740897971
36.832112,8.812981085600416,0.10349091075464494
36.8367,8.827032327727169,0.10285220164577834
36.841292,8.84198300430157,0.10220919962444647
36.845884,8.856689311447678,0.10157797381805458
36.850472,8.865510273051317,0.10100112359190096
36.855068,8.873964680512517,0.10044237354607573
36.85966,8.882296903259574,0.09988934370417787
36.864264,8.884499411035868,0.09940525249798762
36.868856,8.884780865202723,0.0989389450262617
36.873444,8.882896896331843,0.09850013777798536
36.87804,8.884732849965701,0.09803471158834608
36.88262,8.88542499972362,0.09758752976493705
36.887216,8.889304191681065,0.0971050637380459
36.891796,8.891017960600777,0.09665048262469388
36.896396,8.896984532330439,0.09618473728122101
36.900988,8.905893776831334,0.09569432078095681
36.905584,8.9108387293992,0.09524091725122844
36.910184,8.918726354738302,0.09476345697517963
36.914784,8.929190098706203,0.09427901556834482
36.919368,8.939776027388247,0.09379046377094168
36.923964,8.952038640251441,0.0932993278708339
36.928568,8.96753243676279,0.09280736124311308
36.93316,8.984580732741144,0.09231974117764126
36.937752,9.005104581795946,0.09182269775739166
36.942348,9.035233698897951,0.09125891987229207
36.946936,9.066384435161751,0.09068868533415103
36.951532,9.098190236444909,0.09012587879839881
36.95612,9.131506395746442,0.08953483202106804
36.960708,9.164045305314472,0.08894440376400221
36.965296,9.200304137387242,0.08833654162840981
36.969892,9.236685154174156,0.0877281869432144
36.974484,9.270123498189834,0.08714323688687668
36.979072,9.2991088114159,0.08661152166055235
36.983664,9.331158982127347,0.08605779858963016
36.988244,9.357568176724616,0.08553967924113218
36.992836,9.387941663254917,0.0849985773911362
36.99742,9.422035072289951,0.08444168623000127
37.002008,9.454740308020755,0.08391067185970165
37.006596,9.484869425122762,0.0833878584308369
37.011192,9.517696845567713,0.08285897104284747
37.01578,9.553344754069752,0.08232052565517024
37.020388,9.591280270323669,0.08176265433722844
37.02498,9.626639667948789,0.08121248762734226
37.029584,9.658645697211607,0.08066890677710344
37.034164,9.683866946484311,0.0801695641812856
37.038764,9.708310946023511,0.07967105363800747
37.043356,9.736841422209887,0.07914612373427178
37.047944,9.766149148129761,0.07862621778991143
37.052532,9.800320600430314,0.07808288079225853
37.057128,9.834736422159157,0.07753659162142613
37.061712,9.872094916659236,0.07697945251111284
37.066308,9.911618834197048,0.07640442826066081
37.070896,9.959315705029208,0.07577790267766454
37.075492,10.002148849480694,0.07518119898348691
37.080088,10.050090089741143,0.07455342118206489
37.084684,10.091368734725622,0.07396131351219136
37.089272,10.128272392186009,0.07337961343196256
37.093856,10.168729645988357,0.07276451775398687
37.098444,10.210330703666644,0.07214075188710142
37.103036,10.249600012144427,0.07151538334617327
37.107624,10.286537571421704,0.07088935765804238
37.11222,10.317956339298943,0.07028381677913205
37.116812,10.351296160785628,0.0696723151188605
37.121392,10.386557035881752,0.06905547731639294
37.125988,10.424227703443902,0.06841457796289503
37.130572,10.459855132682463,0.06778703114595452
37.13516,10.490985389682786,0.06717317223849491
37.139756,10.523259450559046,0.06655365734082928
37.144344,10.54989253532113,0.06595638251505438
37.148952,10.572028447844973,0.06536995071005512
37.15354,10.588523384254641,0.06480415656832705
37.158128,10.607183743702038,0.06422596065442299
37.162732,10.615583770082873,0.06367793556578463
37.167324,10.62729302337738,0.06310600440513957
37.17192,10.631562431662411,0.06255310262014029
37.176508,10.63427734048044,0.06199249169474524
37.181112,10.639035487622056,0.0614213146924918
37.185692,10.635332170592404,0.060872593784502056
37.190292,10.6317510382769,0.06032048877076266
37.194872,10.626248852351951,0.059774370451991896
37.199472,10.616127309474619,0.05923649035545646
37.20406,10.604451267130282,0.058689847576676134
37.208652,10.590321290871291,0.05813742442906343
37.213244,10.568629284888681,0.05760145046097888
37.21784,10.54501622529663,0.05706994176704992
37.222436,10.523935142884747,0.05651099665384025
37.227032,10.499011953253985,0.05596008843798131
37.231624,10.466404549185455,0.0554287115019874
37.236208,10.430976657059835,0.054899514850339455
37.2408,10.39248390744884,0.05438057737777607
37.245388,10.349904681190667,0.05387637248779927
37.249968,10.297720186885288,0.05339427620523837
37.25456,10.24823399592285,0.05290603975872773
37.259156,10.193761893865588,0.052433456430184947
37.263744,10.141988095151271,0.051954878196042664
37.268336,10.08984774229452,0.051483960073358294
37.272924,10.029900990285856,0.05103173552966518
37.277528,9.970364933868256,0.05059043123926235
37.282112,9.903677543318103,0.0501765002582146
37.286704,9.83086043779719,0.04978436733388629
37.291308,9.75371248620081,0.04941290971358652
37.295896,9.674687622443617,0.04907151653634093
37.300484,9.589410859001518,0.048756075970433965
37.305076,9.509530702245305,0.04843480410738913
37.309664,9.423398645804184,0.048140199140178946
37.31426,9.330770320249865,0.04788074832781
37.318856,9.238430505572467,0.04763980063822371
37.323448,9.149444059257371,0.04740364749625721
37.328028,9.059846689371543,0.047186248142684094
37.33262,8.964896854248458,0.04699792034645718
37.337208,8.870968638287165,0.04680031951908732
37.341808,8.78104885570753,0.046618116433859345
37.346392,8.68487717344299,0.046464964933483115
37.350988,8.58220922206525,0.04635270560904117
37.355568,8.473045001574313,0.04628168432428734
37.360164,8.3631476727985,0.04623893922862834
37.364752,8.254682658775545,0.04620894238352105
37.369348,8.14711707920024,0.04617593515740595
37.373936,8.040328749358439,0.046146893134907684
37.37852,7.937138157307227,0.046116505192785116
37.383112,7.83832255278011,0.046091095776569446
37.387704,7.737463709929406,0.046076943227084353
