Time,Force,Position
41.194948,1.72023071849198,0.0387157158486288
41.199556,1.5603418544220644,0.0363498746601496
41.20414399999999,1.4068712161998296,0.03397289676501961
41.20873999999999,1.2604738688446318,0.03158355822247453
41.21331599999999,1.1213941817847624,0.029179975244057
41.217908,0.9950287617061081,0.026743203988695848
41.2225,0.8733241037537356,0.024321716080024487
41.22709199999999,0.7604916055636957,0.021917012940065365
41.23169599999999,0.6585745054595757,0.01949116863373969
41.236276,0.5806838968133037,0.017085393282772275
41.24087599999999,0.5322507347745968,0.014628785052305384
41.245456,0.51229754163029,0.02415811232281414
41.250064,0.5213910995024833,0.03244970895628823
41.254656,0.5486160103052571,0.040555263586230586
41.25924,0.5960155123621979,0.04832237626965555
41.26382399999999,0.666532278444541,0.05563157896664283
41.26841999999999,0.7642969266480885,0.06250902186142343
41.273008,0.8894316416869862,0.07146321888127395
41.277604,1.0396046743607275,0.08028965134700139
41.282192,1.2180030668688386,0.08883857372559917
41.286788,1.4165319091824888,0.09734887440275347
41.29137599999999,1.6347024624450954,0.10581455125597215
41.295968,1.8692054997429868,0.11431035036381858
41.30055599999999,2.1251491168851304,0.122715255526142
41.305148,2.401267325281441,0.13103176797991
41.309732,2.6936738762644086,0.1392862776074626
41.314312,3.013076436583282,0.14725054285642883
41.31890799999999,3.350756196732034,0.15494457618304827
41.323492,3.6911681620406185,0.16250388721175504
41.32807999999999,4.012495405537548,0.1700214693273407
41.33267599999999,4.315725197920788,0.1774723665930097
41.337264,4.590675249389291,0.17301998170425778
41.341868,4.843852068687992,0.1697706297919903
41.346456,5.085682315046233,0.16668294268637143
41.351044,5.314244934854567,0.163849094742636
41.35564,5.525086897323386,0.16150118341228759
41.36022799999999,5.714810692641763,0.15949185034896857
41.36483199999999,5.8788411053059395,0.15797341878330218
41.369424,6.026416849220686,0.15657445527882355
41.37402,6.152429828577034,0.15546689463677751
41.37859999999999,6.272292613699144,0.15427272534039496
41.3832,6.3800757175959175,0.15306764645093468
41.38778799999999,6.4783111174475225,0.1517493948880026
41.39238399999999,6.557926425511966,0.15054261215930234
41.39697999999999,6.620187630379331,0.1494036472504487
41.40157599999999,6.665916123231748,0.14835032845465843
41.406172,6.688615634956019,0.14756504354333794
41.41076399999999,6.695369696050917,0.14703586076177216
41.415356,6.706098288710584,0.14657421576007054
41.419952,6.722556140381687,0.1461066465462257
41.424548,6.74204494772128,0.1456738974035256
41.429144,6.773436870491698,0.14515376016083908
41.43373199999999,6.81170185614949,0.1446015265795932
41.438324,6.853242166904063,0.14407402115626278
41.442916,6.895726053554913,0.14358149779359905
41.447512,6.941318939139773,0.1430753270372682
41.4521,6.9945179958968815,0.14249828856891741
41.456684,7.0568335818446135,0.14179839123656418
41.46128,7.124545774478233,0.14104075855401085
41.46585999999999,7.197654573797739,0.14022105488262712
41.470452,7.258748312604014,0.13961809326106805
41.47503999999999,7.3192311278395605,0.13906112792279562
41.479632,7.377304150609085,0.1385743402486824
41.484216,7.439341465311636,0.13802504824988365
41.488804,7.5034220183377744,0.1374485607394018
41.493396,7.572732851887027,0.13678310249067957
41.49798799999999,7.640733555397565,0.13611811034833707
41.502588,7.707546313583538,0.13544562456657894
41.507184,7.766342205006197,0.13483298317549502
41.511776,7.823050716656643,0.13422756201596053
41.51638,7.876361718496159,0.1336188284091004
41.52096,7.922555288020009,0.1330526665522619
41.52555999999999,7.966372966894727,0.1324680472534
41.53013599999999,8.00380632173865,0.13188298648986974
41.53473999999999,8.03526604814285,0.13130822171393955
41.539328,8.063694818878558,0.13070693090799487
41.543928,8.0842289075651,0.13014583458278517
41.54852399999999,8.094702891164738,0.12965969972015734
41.553116,8.094339519943976,0.12924908537443516
41.557712,8.088002520283487,0.12884782857717758
41.56229999999999,8.088972941286587,0.1282491624815816
41.56689599999999,8.083559038258898,0.1276396620476817
41.57149199999999,8.069473203448535,0.1270612935342074
41.57608,8.049413740198451,0.12648847291885457
41.580676,8.024157898242139,0.125917815612567
41.585264,7.988309070893717,0.12540093334915717
41.58985199999999,7.9462422456772765,0.12489883465370197
41.59443999999999,7.899878476202257,0.12438648463317171
41.599032,7.850772261935669,0.12385788965029551
41.603616,7.794059876496831,0.12337775796541307
41.60820399999999,7.731950884372108,0.12294639641655808
41.612796,7.672618238855846,0.12243447195156187
41.617384,7.605435052739043,0.12198227612805523
41.621976,7.535431378565152,0.12155682975255777
41.626572,7.467593127428992,0.12108568496655413
41.63116,7.398200376825828,0.12060833174693902
41.63575599999999,7.3317502989939,0.1200809729679435
41.64034399999999,7.269508882523292,0.11947530712280804
41.644932,7.209843584681481,0.11884293977446087
41.64952,7.146091810192496,0.11826582334911252
41.654112,7.074822147428519,0.11781023606430152
41.658716,7.007683102760345,0.11732253451079848
41.663304,6.952358890625739,0.11670586458346169
41.667912,6.900021492710995,0.11608141183480501
41.67249999999999,6.849649289854321,0.11546588084399524
41.6771,6.806394519313315,0.1148238302925669
41.681688,6.768824866335114,0.11415156921213779
41.686288,6.734897092596133,0.11348154461698924
41.69087999999999,6.707309501439315,0.11279000029108782
41.69548,6.686062092864661,0.11207577370780429
41.700076,6.672665224890545,0.11129634473027464
41.704668,6.656536151756596,0.11063127052045187
41.709264,6.651122248728904,0.10991448210511293
41.71386,6.6539695818928175,0.1091581458601746
41.718448,6.661236044029452,0.10841305667393167
41.723044,6.669490223510992,0.10774354941345048
41.72763199999999,6.678077055318077,0.10714672461923479
41.73222799999999,6.687651604470067,0.10662811996758619
41.736808,6.706509008975456,0.1060643524838702
41.741396,6.735426518567745,0.1054506409082839
41.74598399999999,6.775547937122873,0.10476915117247095
41.750576,6.819966299936577,0.104115200087633
41.755168,6.862019011732885,0.10356634748325265
41.75975999999999,6.909390286949563,0.10303148586940486
41.764348,6.959137452815376,0.10254073622494009
41.768936,7.01109418316755,0.1020642653089178
41.77352799999999,7.067836596634882,0.10159010490874909
41.77812,7.131285746826815,0.10110058566513339
41.78270799999999,7.1987433304004025,0.1006181244315193
41.787316,7.274418008716968,0.10008568130028776
41.79190799999999,7.351935697377458,0.09959111986847627
41.796496,7.437914850209213,0.09902832243656137
41.801092,7.521195699698027,0.09849495695595979
41.805676,7.6043543644726945,0.09798044538082165
41.810272,7.689189713428512,0.09747265146360623
41.814852,7.778111539031501,0.09692018905109401
41.819444,7.870997656567523,0.09633482148006883
41.824032,7.968092435464864,0.09570495550406798
41.82863199999999,8.060690042123964,0.09511845725557945
41.833212,8.15312132262029,0.09451756342505223
41.83781199999999,8.24436465779205,0.09391790237260667
41.842396,8.33556385151518,0.09329720740156094
41.84699199999999,8.427740522951478,0.09264066851096257
41.8516,8.516030945720264,0.09199061723021278
41.856196,8.603089281715855,0.0912932292729376
41.860784,8.690225660976962,0.09056960414081924
41.86538,8.771799107389409,0.0898546827661881
41.86996799999999,8.8434346334291,0.08916362898166655
41.87456399999999,8.909751596048423,0.0884711482656436
41.879144,8.966663518600203,0.08781529050110927
41.883732,9.021443919931139,0.08712092406316546
41.88831999999999,9.066697096480384,0.08646026982220695
41.892912,9.110107262685707,0.0857786103124832
41.897508,9.148198865470661,0.08508624417633513
41.90209599999999,9.180072470387596,0.0843870920506246
41.906696,9.2077713157601,0.0836631408448613
41.911284,9.228352728816942,0.08293404852039932
41.915876,9.24247177457747,0.08220626384097268
41.920464,9.252049506651133,0.08146361517671327
41.925052,9.254676132571905,0.08073960618882421
41.929656,9.24663172983505,0.08004963110487145
41.93424399999999,9.230736786497655,0.07937811656239023
41.938832,9.208012921721515,0.07871499894511191
41.943428,9.180503373830213,0.07804199508983554
41.948016,9.150295522595968,0.07737514116082683
41.952612,9.111748391904602,0.07674171892916133
41.95719199999999,9.070747327298584,0.07610232206605616
41.961788,9.031667316302007,0.07544697850811355
41.966376,8.987967948353047,0.07480574837392215
41.97097599999999,8.94157027706114,0.07416672857534795
41.97555199999999,8.88748839133147,0.07356337497402188
41.980152,8.835694113353677,0.07292831549421469
41.984736,8.785043639251823,0.07227619391246456
41.98932799999999,8.734926045455182,0.07163129077168584
41.99391599999999,8.685463516677897,0.07098838000039845
41.998512,8.639476540977055,0.0703373500231017
42.0031,8.594921880029073,0.0696909009152059
42.00769199999999,8.552821152995746,0.06904388583786965
42.012284,8.514318163753007,0.06838362941226342
42.016876,8.480067977320216,0.06771998840051734
42.021464,8.453013266468611,0.06703566694062055
42.02605199999999,8.432132412036392,0.06634041122143215
42.03064799999999,8.415259990985833,0.06565267533976284
42.03524399999999,8.404317056926368,0.06496580927029312
42.039836,8.397749110391,0.06427536777585213
42.044428,8.39927607388446,0.06356871460644262
42.04901999999999,8.406077459349664,0.06285780883215007
42.0536,8.41443334428187,0.06215445642216977
42.058192,8.430106889509405,0.06143521134940133
42.06277599999999,8.453875344765772,0.06070541056341482
42.067364,8.485860894765112,0.05995758887368894
42.071952,8.51825714035552,0.05923032123115558
42.076544,8.546977604889818,0.058548235040032266
42.081144,8.580195241662356,0.05786430967018547
42.08574,8.613701389311812,0.05720478122906571
42.09032,8.645697178942896,0.05657775853789879
42.09492399999999,8.680024717774483,0.05596510709308226
42.099512,8.71320845273013,0.05536604579646146
42.10411199999999,8.743738025791464,0.05480516379411968
42.10869999999999,8.771447110795707,0.05425377564950106
42.1133,8.79494753443863,0.05373101178866243
42.117884,8.81244042782494,0.05323781550079509
42.12248399999999,8.827890082887661,0.052756084283914546
42.127072,8.838353826855561,0.05229779147461118
42.131664,8.839745183081465,0.05188244078307585
42.136256,8.834351759317252,0.05149051949968432
42.140848,8.82192918613463,0.051130497992428796
42.145448,8.804398517143039,0.05079542088229988
42.15004,8.773953353190569,0.050512670071283856
42.15462,8.732759117314954,0.05026702152917082
42.159204,8.686334600916224,0.05005103958561853
42.163792,8.637989030908052,0.04983754202057994
42.16838799999999,8.587844592004586,0.049621778456194345
42.17298,8.529116504215708,0.049425248905410106
42.177576,8.464092375293292,0.04922685750871593
42.182168,8.383699817495348,0.049069226966108284
42.186756,8.292802557202547,0.04893678408437499
42.191348,8.193077278596043,0.0488339159365962
42.19593999999999,8.089754262198948,0.048728105660004635
42.200528,7.978624846649939,0.04864566915303207
42.205124,7.861854454986754,0.04857237076328616
42.20971599999999,7.741364140818832,0.048501597891942486
42.214324,7.6094696897084075,0.04845862203748527
42.218912,7.468214339979067,0.048432632898451095
42.2235,7.3284693482681025,0.04837257983063278
42.228084,7.181162326833518,0.04832920715835008
42.232672,7.03001319818005,0.04829811100308795
42.23726799999999,6.877065200631288,0.0482639254547986
42.241848,6.728081495015553,0.04821065219224444
42.246448,6.57627730134273,0.04816478562893085
42.25103599999999,6.418054881822226,0.04812393850630587
42.255636,6.253824932045104,0.048112979152180685
42.260224,6.088573363106189,0.048103509728909144
42.264824,5.91821369835831,0.04813363765396999
42.269412,5.74556642585855,0.048196207028573246
42.274008,5.58138061753006,0.04824344627879887
42.27858799999999,5.41797205893507,0.04830849008371575
42.28318,5.258283422844817,0.04836942332630121
42.287772,5.0947526795356834,0.048446260196462684
42.29236399999999,4.9326542509794065,0.048562936024470496
