Time,Force,Position
36.072572,2.334360849003372,0.045511934572929215
36.07716799999999,2.14781136419783,0.04307884771301614
36.081764,1.9661256057729632,0.040623037700161804
36.086352,1.7899586387481303,0.03816400254182192
36.09094,1.6182888439615362,0.035713586465170956
36.095536,1.4566350128132144,0.03324722012650875
36.100136,1.3013994075125732,0.0307770760145723
36.104732000000006,1.1545030816690538,0.028287722937596224
36.10932,1.0168454697303047,0.025791963514922987
36.11392,0.891002690325123,0.023270856424344788
36.118508,0.7725997559294155,0.020723826990576063
36.12309199999999,0.6640855657876348,0.018142625117985492
36.127680000000005,0.5664867737317739,0.015519607151043106
36.132276,0.47841520645760244,0.012943653489310182
36.136872,0.400359602821703,0.010318186396648834
36.14146,0.33027672450048856,0.007696825568118799
36.146052000000005,0.2661233331703721,0.005152789274096221
36.150636,0.20826598297379054,0.0025929755608198515
36.155228,0.16030241170133538,0.0
36.159816,0.12055593517185655,0.0
36.164396,0.08722768449005833,0.0
36.168992,0.061994343837090786,0.0
36.173584,0.04293485960351253,0.0
36.178172,0.029149797341675728,0.0
36.18276,0.0197397226039325,0.0
36.187352,0.012128516761484971,0.0
36.19196,0.007093429547835328,0.0
36.196540000000006,0.01085431057952848,0.0
36.201132,0.03504439192541907,0.0
36.205716,0.07949734742273325,0.011558848352340648
36.21032,0.14666711098612328,0.021889519505651545
36.214904,0.23680308671408007,0.03158990270633473
36.21950399999999,0.3454811109636823,0.040949706565128446
36.224088,0.4742556832019341,0.05001960024509625
36.228684,0.6230046187146903,0.05889723137123732
36.233276,0.7921386130930157,0.0676622447322856
36.237872,0.9824349160704123,0.07632422521460393
36.242468,1.1942600817893179,0.08486345878135551
36.247068000000006,1.4258152413544358,0.09334951754937786
36.25166,1.6815534255553777,0.10162825499442353
36.256252,1.9566109080114673,0.1098592558329903
36.260844,2.252420003475563,0.11804197403854667
36.265432,2.5696357769670213,0.12618407857009248
36.27002,2.908380413199989,0.13428246713934494
36.274612,3.2684095427461726,0.14235783321454587
36.279208,3.6514337516036144,0.15031098838654483
36.283796,4.052334704331606,0.1581365517106366
36.288392,4.462961258072423,0.16576457867734562
36.292984,4.852870100622123,0.17336924286938438
36.297568000000005,5.221205938981687,0.1694113159300371
36.30215999999999,5.567435892845904,0.16665335265391593
36.306748000000006,5.894380450271862,0.16445762738800992
36.311356,6.205481262519119,0.16256966304209983
36.315948,6.496607711491872,0.16096514840624954
36.320556,6.769803035513708,0.15951844248932734
36.325148000000006,7.026944146745439,0.15810377276675908
36.329744,7.26263443850118,0.1567709235220583
36.334332,7.476262987210201,0.1555522381744454
36.338924,7.671183161234804,0.154370030676359
36.343528,7.840776506747642,0.1534181759724911
36.34812,7.990928369291188,0.1525203960376151
36.352724,8.122371857150315,0.15163750498265344
36.35732,8.234818459448102,0.1507433856029858
36.361916,8.328145991470404,0.14984171846278085
36.3665,8.4038648112356,0.14888417795361047
36.371100000000006,8.456832921117828,0.14803660270832808
36.375692,8.489881048805922,0.14734842590562475
36.380296,8.505429226397638,0.14686513953351757
36.38488400000001,8.524086402923365,0.14636711936051208
36.389472000000005,8.544542448344385,0.14584831013034535
36.394068,8.564509754908823,0.14535514034241398
36.39866,8.580146215397797,0.144943319628494
36.403252,8.593084372543826,0.14456431733646763
36.407848,8.608965202461091,0.1441443558945781
36.412444,8.622924978768912,0.1437527445239734
36.417032,8.632920463143709,0.14342342394677196
36.421624,8.644592631699652,0.14308152720902356
36.426212,8.659085288312687,0.1427053270652847
36.4308,8.672145630172862,0.14233102410165838
36.435392,8.688637383660854,0.14189128410750673
36.43998,8.709337798510164,0.14138530090056162
36.444572,8.725663225835383,0.14092183408745904
36.44916799999999,8.739045980389367,0.14050137436048193
36.45376,8.748708812438615,0.14012636065635334
36.458356,8.753263548678893,0.1398303695862578
36.462944,8.758062654347466,0.1395227277127656
36.467528,8.767436975519791,0.13912982949514363
36.472124,8.782574457520445,0.1386653288941949
36.476712,8.795258005606444,0.13821828839332623
36.481308000000006,8.809862607301882,0.13774967365495208
36.485896,8.82483376313976,0.13726305110017395
36.490484,8.842336896157805,0.13672262130804794
36.49508,8.859551518298936,0.13616159636021374
36.499672,8.873412772077762,0.13562736944577736
36.504276,8.888129318855611,0.13505316973422288
36.508872,8.903989669509398,0.1344605326941744
36.513468,8.917273901534386,0.13388909266926344
36.518048,8.926060961321136,0.13336166110592626
36.522648,8.937790693879123,0.13279865809666264
36.52724,8.946944307808309,0.13225739432210792
36.531832,8.949924065318106,0.13177107631624788
36.536428,8.960832406693962,0.13118564737051397
36.541016000000006,8.972107302212253,0.13058282299037968
36.545608,8.986447055215924,0.1299389740866549
36.55019599999999,8.999110124038445,0.1293024527330875
36.554788,9.010340878108106,0.1286653202768933
36.559388000000006,9.019239882977262,0.12803831890813205
36.56398,9.020943412265233,0.12747699400843956
36.568564,9.021869691819703,0.12691713170354293
36.573156,9.018420983850078,0.12639153099550196
36.577744,9.014972275880455,0.1258654310399449
36.582332,9.010379764034893,0.1253587307356722
36.58692799999999,9.00488781774168,0.12485882692866489
36.591524,8.999273686734323,0.12436405075979842
36.596116,8.992393567136883,0.12389412015684914
36.600712,8.983714578644147,0.12343965903904487
36.605304,8.978877697370292,0.12294367929807855
36.609896,8.97788292331532,0.12240569331405995
36.614484,8.970347738698521,0.12193064723791595
36.61908,8.964733607691167,0.12143526896882767
36.623676,8.960018911131458,0.1209305210156681
36.628268,8.948397249867487,0.12050702577257544
36.632876,8.934732350279928,0.12010795329486187
36.637464,8.917225343473486,0.11974817089007447
36.642052,8.905603682209513,0.11932148865759959
36.64664,8.8946370859649,0.11889778510827978
36.651232,8.881016327825968,0.11852653260558153
36.655840000000005,8.872669991658782,0.11811749631671126
36.660428,8.870253142482692,0.11767742272303441
36.665028,8.868124804183521,0.11725679159309353
36.669608,8.866773715617853,0.11683481731033926
36.674200000000006,8.867099311233336,0.1164050751763959
36.678792,8.873065882962996,0.1159247995502296
36.683392000000005,8.88197512746389,0.11541466972531521
36.68798399999999,8.894359925041233,0.11488570591733467
36.692576,8.907521972352075,0.11435638333456902
36.697168,8.915820293282243,0.11387755648438827
36.701752000000006,8.921175941441174,0.11342993279552943
36.706344,8.933971434609578,0.11291944190680983
36.71093199999999,8.946522558349693,0.11242262729094415
36.715520000000005,8.964348104061548,0.1118958866720433
36.720116,8.980130411449817,0.11139003412504273
36.724704,9.003230379133418,0.11083123335761122
36.7293,9.031482584074613,0.1102477064491713
36.733888,9.057324996549777,0.1097079606727601
36.73848399999999,9.083822474044306,0.10917410394528557
36.743076,9.117104731528949,0.10857876683285135
36.747668,9.147933055098939,0.10799413454110926
36.752256,9.171033022782538,0.10744958638415036
36.756836,9.202305943760484,0.10682069502322848
36.761416,9.238564775833252,0.10614935411938
36.766012,9.27506797733431,0.10547214951060907
36.7706,9.305808018007045,0.1048487929030626
36.775200000000005,9.33102926727975,0.10426469782841516
36.77978,9.351997713742506,0.10369998295293989
36.78436799999999,9.375253767957137,0.10310751543495239
36.788968,9.404272983000093,0.10247032410256927
36.793552,9.437378674690223,0.10179464447943261
36.798148000000005,9.468807682199202,0.10113076444021182
36.802728,9.500603243850621,0.10045598362133623
36.807332,9.526591503225086,0.09979918607810939
36.81191999999999,9.556910608675018,0.09909148827720336
36.816512,9.580278607972057,0.09841685029322689
36.821108,9.600537608335086,0.09774461090224829
36.825708,9.618342674783465,0.09707576937348576
36.830296,9.63855753369787,0.09637599750913875
36.834892,9.655419024249973,0.09569010668887484
36.839484000000006,9.671381080354427,0.09500863178084079
36.844072,9.69130742839191,0.09429414591734114
36.84866,9.704038300848211,0.0936206796985038
36.853252000000005,9.710350947456831,0.09298582027221274
36.85784,9.714209660150798,0.09235454748066634
36.862428,9.721377599758437,0.09168737146852869
36.867016,9.735330319356194,0.09097363459476879
36.871604,9.750426842829892,0.09024627720185148
36.876188000000006,9.759227325170052,0.08954681173595026
36.880772,9.762631200824329,0.0888722293107897
36.885364,9.764358392297453,0.08820331181081982
36.889952,9.763509465141778,0.08754136560266139
36.89454799999999,9.75714174658607,0.08690455881138467
36.89914,9.750529658602074,0.08627464443499303
36.903732,9.741996517008632,0.08565617220167067
36.908328,9.735506613738782,0.08501953999279724
36.912912,9.730160514344869,0.08437013294139194
36.917504,9.730944129921717,0.08367300201301904
36.922088,9.72992887660327,0.0829851232269719
36.92668,9.726093135227734,0.08231088228920935
36.931276,9.725200066623431,0.08161811416121525
36.935856,9.724062628590838,0.0809360690678695
36.940456000000005,9.721537017254015,0.08027387012907296
36.945044,9.720932459526631,0.07960090508556975
36.94964,9.719306282637456,0.07893368294371443
36.95422799999999,9.716658486586487,0.07827587468502187
36.958832,9.711312387192576,0.07762929622409984
36.963424,9.709564025589254,0.07697416822018502
36.96802,9.71488895485297,0.07630280441830585
36.972616,9.720991133850186,0.07563176024563496
36.977212,9.726726758704967,0.0749762099613194
36.9818,9.73401688302675,0.07432525689081776
36.986396000000006,9.747847417910364,0.07364809672837845
36.990988,9.76936216723174,0.07293771335202455
36.99557599999999,9.796395707953153,0.07221340726998378
37.00016,9.825760997875069,0.07150000476774893
37.004748,9.854759733654546,0.07080345905262504
37.009328,9.882370296129794,0.07013414113702177
37.013928,9.908959239443249,0.0694736690575738
37.01852,9.940167539709089,0.06880151768693256
37.023108,9.969332601651342,0.06814502157079134
37.027708,10.00426082442192,0.06747208142290904
37.032292000000005,10.04303115441138,0.06678491495644605
37.03688399999999,10.081923669114985,0.066097641408494
37.041472000000006,10.127112224952128,0.0654032605272768
37.046056,10.172056411360977,0.06472143121365964
37.050648,10.214468620589654,0.06407056835278503
37.055240000000005,10.251117668990013,0.06344473410535803
37.05983199999999,10.286867282942719,0.06282648211277804
37.064432,10.329279492171398,0.06219132883642387
37.069024000000006,10.372835505276017,0.06155053780502199
37.07362800000001,10.418434756704222,0.06090365845835453
37.078224,10.463134573684782,0.06026392935161174
37.082816,10.500927425961075,0.05965816479209324
37.0874,10.53307930212319,0.0590709645967425
37.091992,10.562655059656509,0.058485587972827296
37.096572,10.595173489961061,0.05789344421825771
37.101172,10.620129890541994,0.05732056478430973
37.10576,10.643043052799339,0.056757467011830764
37.110356,10.66276917285716,0.05621540204245102
37.114948000000005,10.684416346524422,0.05566961265914678
37.119544,10.691594525763799,0.05516699862544607
37.124132,10.695052782498442,0.05467123326661764
37.12872,10.690993150958093,0.054218108707651
37.133304,10.67859423996062,0.05377822744325105
37.137892,10.660432168134824,0.05335156533509869
37.14248,10.639571792966082,0.052923780372802064
37.147068,10.614747125864312,0.052506501871001206
37.15166,10.58019500600119,0.05211622632302526
37.156256000000006,10.531173891710186,0.05176302907130565
37.160852,10.471159336067743,0.05144821791525705
37.16544,10.398474654892713,0.05116804528386225
37.170036,10.315040901794537,0.05091695973602971
37.174624,10.22686560702983,0.05067162029222809
37.17922,10.131905532275006,0.05044062895477164
37.183816,10.02607420088289,0.05024294729649844
37.188404,9.902831202291656,0.05008976050571781
37.19302,9.777300595948542,0.049951326569448944
37.1976,9.644863024901168,0.04983321424730567
37.202204,9.504086174396669,0.04972164021893992
37.2068,9.349617579197789,0.04965087691321121
37.211404,9.194782429856474,0.0495931091080021
37.216,9.03177432722081,0.04957246980990745
37.220588,8.868233344279934,0.04953657611473878
37.225188,8.701383134425388,0.049521810738332755
37.229768,8.53146806708546,0.04952042675281675
37.23436400000001,8.354768219755416,0.04954003427126128
37.238948,8.176924568549433,0.04956926341566485
37.243548,7.998059298181657,0.04960433602527423
37.248132000000005,7.822791765604471,0.049637483539190654
37.25272399999999,7.64854585218908,0.04966766984785433
37.257324,7.476876057402486,0.049705956566526585
37.261924,7.309825619568277,0.04973463039895039
37.266512,7.137544901210954,0.04980273380158817
37.2711,6.964897628711194,0.04989078313665302
37.27569999999999,6.798912951487407,0.049959272582858316
37.280288000000006,6.639468684825445,0.05001938159269926
37.28488,6.479247168429984,0.05007411924266525
37.289476,6.320824520929815,0.05013097810420455
37.294068,6.162812569020712,0.05021906586839137
37.298656,6.012484831549376,0.050279007246722206
37.303244,5.863178713239832,0.050336065113274035
37.307836,5.718736321310965,0.05037318229762224
37.312428,5.572128506344367,0.05043588439072683
37.317024,5.421556399444738,0.05053665478896194
37.321616,5.273804780602198,0.05062972655606448
37.326208,5.136557864254514,0.05067070594312466
37.330796,5.00045475178277,0.050691807914410275
37.335388,4.865251073758673,0.05071524788420145
37.33998,4.726982538249195,0.05077417995968018
37.344564,4.591534490796807,0.05082296867699088
37.34914800000001,4.4562086280585635,0.05086901576603613
37.353736000000005,4.316019038939644,0.05095136707484941
37.358324,4.180815360915547,0.051000671456502306
37.362916000000006,4.050475409272126,0.05101305020708331
37.367528,3.918214404019264,0.05103039193083081
37.37212,3.7887738868234915,0.051033089684053415
37.376716,3.661010053808868,0.05104670248744762
37.38130399999999,3.534145655241893,0.05106408346635721
37.385904,3.4113677333220913,0.05102809251862844
37.390488,3.287690376954643,0.0509744822323264
37.395088,3.164912455034842,0.05092166244512105
37.399672,3.04213453311504,0.050858348415911435
37.404272,2.92409815286177,0.05076021133053672
37.408868000000005,2.8110476837033214,0.05060199255138058
37.413468,2.6969755953830794,0.05045200375247079
37.418064,2.5740754887491324,0.05040809831601924
37.422656,2.4508088279727485,0.05042389218787956
37.42726,2.3245994944251307,0.05053725521743954
37.431848,2.2024766375246854,0.05055800308930378
37.436448000000006,2.078188357586508,0.05071456638403347
37.441044,1.9567205657054199,0.04815305554007673
37.445628000000006,1.8359078388436885,0.045567906738489074
37.450216000000005,1.7185706650584023,0.042989267134665714
37.4548,1.5988236988070927,0.04043592309643128
37.459396000000005,1.4803868625944954,0.03789099510412994
37.46398,1.362605091401255,0.0353571615359576
37.468576000000006,1.2521409805033432,0.03281652969207138
37.473172,1.1443751729483749,0.030268377355850997
37.47776,1.0330557690514435,0.0277513053459334
37.482356,0.9239306553389345,0.02526701958175873
37.48694,0.8211015827599604,0.022777514983417485
37.491528,0.7235469321527277,0.020304573863750137
37.496128000000006,0.6303672690695886,0.017850624735581442
37.500716,0.5433614624058388,0.015416835190183168
37.505324,0.46265169687562396,0.01298033566780316
