Time,Force,Position
44.256348,1.2871903249190288,0.030549193398551392
44.26092799999999,1.1995786293547503,0.028293148811990142
44.265512,1.1098015107527388,0.026079387112169745
44.270104,1.0182255232554318,0.023851663233922748
44.274692,0.9266495357581249,0.021628664492236847
44.27928,0.8443122621655876,0.019398454012038067
44.28387599999999,0.7636516727542008,0.017199351465447998
44.288468,0.6787824219814937,0.015050745239471794
44.293048,0.6023746353800548,0.012893250742602589
44.29764,0.5313634554645025,0.01075639919419146
44.302228,0.46230906436524727,0.008606778698845598
44.30682,0.40069451827546626,0.006419339806967128
44.311416,0.3434549597097788,0.004284639547765838
44.31600399999999,0.292633626991772,0.002142141701697134
44.3206,0.25002938901674154,0.0
44.32518,0.21192232327995034,0.0
44.329768,0.17831242978139836,0.0
44.334364,0.14888251914737638,0.0
44.338956,0.14142606866281734,0.0
44.343548,0.14879174419516675,0.0
44.34814,0.17825306459112483,0.01130530861853332
44.35274,0.22968784513654592,0.02172270495527235
44.357328,0.2976994791455429,0.03195598177490551
44.36192799999999,0.38858400775165075,0.041707978681911215
44.366512,0.4992765734694889,0.051171674846017576
44.371112,0.6247912652042356,0.060533242888013275
44.37569599999999,0.7690923748889189,0.0697339540575242
44.380292,0.9353669447230653,0.07878915213379636
44.38488,1.113887521945322,0.08780636854307035
44.389476,1.3113167018316614,0.09668815553958128
44.394064,1.528273814194584,0.10550975332717273
44.39865999999999,1.7652833330975282,0.11415885148088956
44.40324799999999,2.01964695519755,0.12272711851397439
44.407836,2.2952067877135334,0.13112465522663078
44.412424,2.590897070035056,0.13935447498886364
44.41702,2.9063071065710524,0.14741881763346448
44.42160799999999,3.2323203681308983,0.15549791664168805
44.4262,3.5629477633230295,0.16346085433224905
44.430796,3.884315965346913,0.17135199748754068
44.435384,4.196791528344988,0.17917962680540175
44.439984,4.4880708809271015,0.17572413197496656
44.444572,4.764982944531999,0.17314595321939813
44.449164,5.035989183330951,0.17065676031246022
44.453752,5.292994687295125,0.16861034923852755
44.458332,5.536366010566959,0.16680686252956906
44.46294,5.765936826983677,0.1650642869859894
44.46753199999999,5.980441147955196,0.16344929597741745
44.47213599999999,6.178857354319722,0.16195958390596185
44.476732,6.365682618315493,0.16045746833792088
44.48132,6.53809645188542,0.15904137028021884
44.485924,6.696709778600233,0.15762739683343885
44.490516,6.839234990708053,0.15631706431273332
44.49512,6.97041362987541,0.15498344931569258
44.4997,7.080762612769243,0.15379970134204377
44.5043,7.174701068362274,0.15273233068921993
44.508888,7.247898150579037,0.1518483455236009
44.513488,7.30971475803845,0.15095378966956807
44.518068,7.3647804873246345,0.15012181120539816
44.522656,7.416859402390957,0.14931958433330447
44.527248,7.461987211304384,0.1486064516323096
44.53184399999999,7.5091582585414,0.1478534838072118
44.53643199999999,7.554241926006202,0.1471043023080378
44.54102399999999,7.593640475908195,0.14641915814948553
44.545616,7.628008973266738,0.1457871336777596
44.550208,7.656447983634183,0.14521922465615852
44.554788,7.6811670714968905,0.1447074547297503
44.559376,7.703187856016655,0.14423301214518272
44.563964,7.72712969414586,0.14373242649436468
44.568556,7.746940914179263,0.14327246965381604
44.57315199999999,7.762621516116864,0.1428521415764239
44.577744,7.777524868320963,0.14244121747613298
44.58234,7.785110560229732,0.14212816562568467
44.58691999999999,7.781292115196002,0.1419846366645781
44.591504,7.778373104609917,0.14183006693645664
44.59609999999999,7.769280237604444,0.14174588856773485
44.60068799999999,7.761819913331492,0.141608845883555
44.605304,7.757546631258066,0.14141115541263213
44.609892,7.750941599984134,0.14122561919567458
44.614492,7.74073883091961,0.1410827345476227
44.619084,7.73270148489282,0.14089726239776626
44.623688,7.7240090738466725,0.14070870154277762
44.628284,7.71376216333352,0.14052742207554733
44.63287199999999,7.702738003086866,0.140349544069941
44.637468,7.695922504201533,0.1400948543165684
44.64206,7.693071297249228,0.13977701066699846
44.646652,7.694428751658242,0.13938339679740128
44.65124399999999,7.696030575495547,0.13897546867337426
44.655844,7.694279030970552,0.13859687519942318
44.660432,7.6895848136743234,0.13826138917275474
44.665032,7.684890596378094,0.13792531721965853
44.66962,7.676354271862982,0.1376444891219217
44.67421999999999,7.674480542623842,0.13727040281787542
44.678804,7.6814348316984065,0.13676105511501482
44.68339999999999,7.686590251877675,0.13627317742200723
44.68798,7.694566160114033,0.13574615030493906
44.692576,7.702419883636246,0.13522734112630927
44.697164,7.70540988077778,0.13478035498983038
44.70175999999999,7.70688951990094,0.1343777160956949
44.70634799999999,7.7122112662429805,0.13392178609418226
44.710932,7.7181880776043785,0.13346951286313288
44.715512,7.724164888965776,0.13301798486170696
44.72010399999999,7.732840003670117,0.13253671819689908
44.7247,7.740371314498518,0.13207917365505303
44.729288,7.745737202289188,0.13166392533020177
44.733884,7.7498371014897725,0.13127984998850153
44.738472,7.750627773776685,0.130959215820246
44.743064,7.753461684387184,0.13060662166399
44.747652,7.754374541388242,0.13027862792036563
44.75224,7.76399323198886,0.12983277592260214
44.75683599999999,7.770791434532388,0.1294198598000911
44.76142399999999,7.778855625666,0.1289764111078377
44.76602799999999,7.782300459847228,0.128588724421398
44.770624,7.780759382933633,0.12827559641904654
44.775212,7.778441056286537,0.12796434400945517
44.779816,7.776244914353588,0.1276466338064953
44.784404,7.77200553409705,0.12736027440075728
44.789,7.772752064935336,0.12700103136721635
44.793588,7.771166846573113,0.1266476820290824
44.798188,7.765983890420301,0.12633144861852894
44.802768,7.762189107571721,0.12597989479148572
44.807368,7.75581820609434,0.12564797267107256
44.811956,7.748259359292393,0.12530078328052038
44.81655599999999,7.740289816899381,0.12493493003851174
44.821152,7.727045852534627,0.12461442525815752
44.825744,7.714412811740602,0.12425999078704136
44.830328,7.701613444783803,0.1238731602461581
44.834924,7.686893024217562,0.12351022476174843
44.839528,7.674093657260763,0.12312136718415267
44.84412,7.6510339572374,0.122848535969955
44.84871199999999,7.633082353023005,0.12249681561242298
44.853304,7.613087510485024,0.12217441918127885
44.85789199999999,7.594236471822981,0.1218281481612271
44.862488,7.576773606465168,0.12144478419940685
44.867076,7.5612317947167975,0.12103596565584138
44.871672,7.544013298787278,0.12063646147087406
44.876272,7.5254846728190445,0.12022492380676807
44.88086799999999,7.503236124346074,0.11985339605122801
44.88546,7.485729117539634,0.11942362747770337
44.89004,7.4660566876954615,0.11902892185518828
44.89464,7.449204745908377,0.11860212521399073
44.89922,7.433252238568942,0.11816464174473336
44.903812,7.4183654918399276,0.11775007456731094
44.908408,7.405033244577918,0.11733106346960727
44.913,7.3996737226305935,0.11684293050735432
44.917592,7.39202659293139,0.11639736780898206
44.922172,7.384667974109107,0.11597593081610476
44.92676,7.378330974448617,0.1155392467032336
44.931356,7.374570093416924,0.11508568598466906
44.935948,7.375306384623472,0.11458816958366293
44.940544,7.376453371421084,0.11411216512651777
44.94512399999999,7.383119149618729,0.11358258852165048
44.94972,7.391095057855088,0.11306514301793032
44.9543,7.403201584187248,0.11253247447393919
44.958908,7.414042121929324,0.11202791251336332
44.9635,7.429257647195492,0.1114943635096715
44.968096,7.454122581957495,0.1108964952072347
44.97268,7.4814414506341524,0.1102910069339233
44.977276,7.509293199616019,0.10970364030546396
44.981864,7.543685359159713,0.10905350462290538
44.98646,7.570926184570851,0.10850277881798677
44.99104799999999,7.607405723886759,0.107877854293454
44.99563599999999,7.64412963263096,0.10724469887149123
45.00022,7.679587552785074,0.10663850990089799
45.00481599999999,7.714390407919832,0.10603457926117209
45.009404,7.750747762521596,0.10542931610867452
45.014,7.789925605180448,0.10480063377493108
45.018592,7.830535762592158,0.10418258723073871
45.023184,7.8724119085939535,0.10354841225733971
45.02777999999999,7.917108542652838,0.1028928983567611
45.03236799999999,7.963726230321164,0.10222844581324243
45.036964,8.009566668255987,0.10157370538187008
45.041552,8.056550910066752,0.10090673881478658
45.046148,8.098138545191627,0.10028044797285816
45.050736,8.14266885308774,0.09962788818930178
45.05531599999999,8.181924739012109,0.09900816097047405
45.05990799999999,8.214884583802943,0.09843780195768932
45.064504,8.247966613307923,0.0978655261654096
45.069092,8.277450905022315,0.09731729084196598
45.073696,8.30730175087914,0.09675957060421599
45.078276,8.34148344281143,0.09614568142439633
45.08288399999999,8.36282868304836,0.09562200199500137
45.087476,8.383518858265935,0.09509493523251626
45.09207599999999,8.406496641235385,0.09453598934520531
45.096664,8.427553370595396,0.0939964732632799
45.101264,8.44934320824028,0.09342454819886996
45.105856,8.469822915846454,0.09284352980706019
45.11044799999999,8.486172005356824,0.09227058655838871
45.11503999999999,8.495736314877075,0.09175465973586619
45.119636,8.503746124930322,0.09123949275631528
45.12423199999999,8.502761590507092,0.09077074402599956
45.128828,8.498057133579122,0.09032651542383519
45.133416,8.488855504412914,0.08990481601865978
45.138012,8.479898244674997,0.08947028068257404
45.142596,8.468364866308285,0.08904396980706251
45.147184,8.463127529075107,0.08858723807348225
45.151768,8.458911811003723,0.08812138752807072
45.156356,8.453019408751185,0.08765887733517044
45.16094799999999,8.44712700649865,0.08719468034997702
45.16553999999999,8.439191365922527,0.08675196545458516
45.170132,8.425370379803935,0.08635440189828313
45.17471999999999,8.415024946761786,0.08594271922505659
45.179312,8.4043129595772,0.08554758930141446
45.183892,8.392823722659116,0.08515117374089812
45.188484,8.384521527940556,0.08472201919177169
45.193068,8.377773832689002,0.08429706935470442
45.19766,8.372458452190306,0.08388195151892928
45.202268,8.370862994196347,0.08344615534560179
45.20685999999999,8.376296685620796,0.08295258053640127
45.211448,8.383407061226396,0.08245951484398924
45.216036,8.399878335450913,0.08191541818906986
45.22062799999999,8.418270663284869,0.0813593463048823
45.225224,8.441404532785354,0.08077668957019647
45.229804,8.46735889034293,0.08018035595024572
45.234404,8.498054789567037,0.0795620590060889
45.238996,8.522210278229318,0.07897997832308987
45.243596,8.542768029101005,0.07841151737143764
45.248184,8.564347399134489,0.07783626294605983
45.252776,8.593977537748174,0.07720556253005452
45.257372,8.620542818876478,0.07660069354861812
45.261968,8.657857171927931,0.07593044492683759
45.266564,8.698358567178909,0.07523299576775379
45.27115599999999,8.739470886000614,0.07451325370542644
45.27575999999999,8.781482639269965,0.0737957736810064
45.28035199999999,8.815810178101554,0.07312303196543973
45.28493999999999,8.845640544694902,0.07246562303448227
45.289536,8.870973739050012,0.0718225041667708
45.294124,8.89630693340512,0.07118371543851358
45.29870799999999,8.918697454988994,0.07056778081558891
45.303296,8.937612423496422,0.06995847999143465
45.307892,8.951908035051467,0.06936993530931486
45.312476,8.968369069644242,0.06876541241910379
45.317064,8.985318843093603,0.06814641748328432
45.32166,9.004189670152403,0.06752346633740952
45.32624,9.019584944134756,0.06690861700999716
45.330832,9.038289445030784,0.06626371572451321
45.33542799999999,9.06005880341219,0.06559919240635188
45.34001599999999,9.081828161793595,0.06493715598911531
45.344612,9.094769501861299,0.064323901537211
45.34919599999999,9.10946556937567,0.06367499705287612
45.35379999999999,9.11774341104236,0.06304743889233398
45.358396,9.12961899049964,0.06241977831927102
45.362984,9.142027450262132,0.06180742508439062
45.367588,9.149816553072238,0.06120601320786973
45.37218,9.164268251158315,0.06058120402784333
45.37677599999999,9.183461490910927,0.05994219978852578
45.38136399999999,9.206619022596563,0.0592851292797151
45.385964,9.23002092371049,0.058622894969220886
45.39054399999999,9.249458532891392,0.05797813467459738
45.395144,9.271594445415236,0.05733191783476853
45.399728,9.295651411548521,0.056681708976196093
45.404332,9.314722466586984,0.056056391252663325
45.40891599999999,9.328318871674044,0.05547384757852577
45.413512,9.332432193428042,0.054916797695602676
45.418104,9.328494746601839,0.05439477777736336
45.422696,9.322269692023756,0.0538923363662273
45.427296,9.310692172208412,0.053423670690808736
45.431896,9.29604979490769,0.05296949134539456
45.43648399999999,9.28140741760697,0.052512549467988154
45.44108,9.264233063126078,0.05208286608247618
45.445668,9.240562439531985,0.05169504801006378
45.450256,9.205487678995391,0.051334707155249286
45.454844,9.164771942344618,0.050983746668084404
45.45944,9.12843119321794,0.050633232908351956
45.464032,9.085061294672853,0.050311250857785345
45.46862399999999,9.035561681157006,0.050017325111426036
45.473212,8.979155102936893,0.04974544493329371
45.4778,8.912532333098845,0.04951998767790192
45.482392,8.846686812994303,0.04929598372186041
45.48698,8.774711577918996,0.04909917938958384
45.491568,8.693541770387549,0.04894440907132456
45.496172,8.60624224788534,0.04881752826270188
45.500764,8.515877867897753,0.04870451727457013
45.505368,8.431809529043697,0.048586845888131044
45.509956,8.354159416037325,0.04846089934744109
45.514544,8.275365499155011,0.04834181849793517
45.51913999999999,8.200291504777438,0.0482152667820428
45.523732,8.123174272076273,0.04809619602115793
45.528336,8.040948943566145,0.048000438656508236
45.532916,7.9545149536946935,0.04792957668432774
45.537508,7.873066874918065,0.047835508064282356
45.54208799999999,7.7912522419990005,0.047755631025905465
45.546688,7.708049435775705,0.047695529680152386
45.551276,7.612298688733966,0.04767285887506305
45.555872,7.513605268920994,0.04766114935688287
45.560456,7.411191926603285,0.04765420505515625
45.565048,7.308412030143138,0.047663899086258225
45.569636,7.211517479225462,0.04765003928040494
45.574232,7.112701874698343,0.0476394723997339
45.578824,7.014130639599517,0.04761484652815495
45.58340799999999,6.918624261986071,0.04757220960691817
45.588,6.83080209881039,0.04750450158641211
45.592584,6.743102120348855,0.047430053561538205
45.59717599999999,6.64645193885947,0.04739999936226185
45.60176799999999,6.544938030989409,0.047387931698645164
45.606364,6.437416592862732,0.04740967540426676
45.610952,6.320289886688847,0.047466835824401823
45.615548,6.205084234124405,0.04751390471993131
45.620136,6.09384287349299,0.04753955235716632
45.624732,5.985910739775249,0.047528827603010484
45.62931999999999,5.874913748572126,0.04753519500794047
45.63390799999999,5.766082180406737,0.04751831732818042
45.638504,5.658516600831432,0.04747726710661951
45.643084,5.561455723750981,0.04740045270347833
45.647672,5.467215334727619,0.04731575551669663
45.65226799999999,5.376572683494849,0.04722977329032142
45.65686,5.28617440169037,0.04712559557055892
45.66145999999999,5.190668024076925,0.047060434874988274
45.666044,5.093118408139892,0.04700990624296856
45.67063999999999,4.993525553879272,0.046971303064904
45.675228,4.891889461295065,0.04694851602990906
45.679828,4.783835142863177,0.046926338287280184
45.68440799999999,4.673981955535995,0.046902052851896456
45.689008,4.566782930103126,0.04681133235759544
45.6936,4.459828274098548,0.046697599983789806
45.69819199999999,4.355039041131705,0.04655595703694491
45.702776,4.255235719259682,0.046372117601639264
45.70737199999999,4.1486476173975415,0.04622246155488122
45.71195999999999,4.03875028862173,0.04612660475527806
45.716556,3.925543732932247,0.04608171175960762
45.721144,3.8086172547380266,0.046048667150220574
45.725736,3.6913242224013687,0.04604803996266242
45.730328,3.5709663325793306,0.04608068404333423
45.734916,3.4429242283195265,0.046167057319793155
45.739504,3.3151264934880142,0.0462145312030071
45.7441,3.180788348094676,0.04630344627662595
45.74869199999999,3.0462058332730457,0.04642753601000114
45.75328,2.913788741489148,0.04652731622148107
45.757884,2.7841921377623406,0.046620416028875844
45.762472,2.654473349321387,0.046746531788833715
45.76706399999999,2.523977311146931,0.046870065131455835
45.77165599999999,2.3959352068871267,0.04704612624880854
45.77624399999999,2.2725124595797075,0.04719350799378227
45.780836,2.1503998423110016,0.04742429352605329
45.785428,2.0290644747757987,0.047681178748786426
45.790032,1.909650160850036,0.04790797264430817
45.794624,1.7919125311054238,0.04816007625275014
45.799216,1.6798158774749898,0.045904382853675506
45.80381199999999,1.5700068315964344,0.0436113788594663
45.808404,1.4632626432032596,0.041292723647891896
45.813,1.3620372462101176,0.03896287210045007
45.81757999999999,1.259912414769328,0.036618639703345446
45.82218,1.162406940280923,0.034259821700466445
45.826768,1.074384549125579,0.03186523684435375
45.831368,0.988693907170742,0.029511318342523046
45.835956,0.9114647293871723,0.027117422494826807
45.84055599999999,0.8369338549465465,0.024699997565700432
45.84514,0.7681661413342447,0.022281368417171467
45.84973599999999,0.697599558826647,0.019861844760916434
45.854328,0.6326739524332278,0.017411568258354746
45.85892,0.574821636906846,0.014955632688537298
45.86352,0.5197898094375532,0.012460769259891365
45.86810799999999,0.46463579725411475,0.009997769011903697
45.87269599999999,0.41320170757541336,0.007489975522497896
45.877284,0.36524317097315767,0.004972165322607611
45.881872,0.32358067550443703,0.00248975361784213
45.88646,0.2875591561498948,0.0
45.891052,0.253092136262357,0.0
45.895652,0.22197848473711923,0.0
45.900244,0.192577252599887,0.0
45.904836,0.16587432380559836,0.0
45.909432,0.1446901864113425,0.0
45.914024,0.1262043523600301,0.0
45.91860799999999,0.10657471443277859,0.0
45.923204,0.08886613011496845,0.0
45.927792,0.07283422997830837,0.0
45.9324,0.05962281789873748,0.0
45.936988,0.04604485167672959,0.0
45.941576,0.0378634921406088,0.0
45.946172,0.030459382337990202,0.0
45.95076,0.02317745724951727,0.0
45.955356,0.01769440105634004,0.0
45.959948,0.01490964820610636,0.0
45.96454799999999,0.013024329803520534,0.0
