Time,Force,Position
37.381848,0.4695447614043871,0.005520552887970499
37.386432,0.4332008293560361,0.0036765065465656057
37.391028,0.40057681981242216,0.0018203873334619155
37.395632,0.3707732983258974,0.0
37.400228,0.34534476436346623,0.0
37.404824,0.32580157594350484,0.0
37.409424,0.3081794411329848,0.0
37.41402,0.29272272936019755,0.0
37.41862,0.2788205170544145,0.0
37.423208,0.2654511850538424,0.0
37.427792,0.25412509137685735,0.0
37.43238,0.24921722354755296,0.0
37.43698,0.24075575937628527,0.0
37.441564,0.23294936022437412,0.0
37.446152,0.22424352662481511,0.0
37.45074,0.2146382585776082,0.0
37.455328,0.20940797805449496,0.0
37.45992,0.21006304307385149,0.0
37.464508,0.21570401918802992,0.0
37.4691,0.22404329864515193,0.0
37.473712,0.23274913224471092,0.0
37.4783,0.2397782816631199,0.0
37.482896,0.2457858119197354,0.0
37.487476,0.24770686552917676,0.0
37.492064,0.24975010385276383,0.0
37.49666,0.2516711574622052,0.0
37.501252,0.25449164551929443,0.0
37.505852,0.25796719859574013,0.0
37.510444,0.26246437083397944,0.0
37.515044,0.2643854244434208,0.0
37.519632,0.2625865555481251,0.0
37.524232,0.2570677641480923,0.0
37.528812,0.26229804467120554,0.0
37.533412,0.2665067060325253,0.0
37.538004,0.27178112800426674,0.0
37.5426,0.2817190483770212,0.0
37.547196,0.29374434852199094,0.0
37.551788,0.30123857461183207,0.0
37.55638,0.3072326823150358,0.0
37.560976,0.3253064712435761,0.0
37.565568,0.3635989928749119,0.00713690230232103
37.57016,0.42121081276139527,0.014450112282211394
37.574748,0.4973646811695241,0.02186996610062533
37.579336,0.5968801830313464,0.02916842841084337
37.583924,0.7136276033761013,0.03650978273007099
37.588516,0.8426210311089665,0.04403343953953726
37.593108,0.9884798231823272,0.05161829628572351
37.597696,1.1581550857490748,0.05911792533758474
37.602292,1.3452285929615289,0.06668624472220586
37.606872,1.551987952571567,0.07426241729615315
37.611464,1.7801098487603397,0.08183710957668741
37.616052,2.0262409131655477,0.08942568012538432
37.62064,2.2832298116546355,0.09706659995901616
37.625236,2.5620699855790403,0.10465117722807771
37.629828,2.8551552637665143,0.11226816919270441
37.634432,3.1600317123024055,0.11992064065771349
37.639024,3.4788647542244475,0.12755321679006484
37.643612,3.8138978558358883,0.13515574070104472
37.648208,4.157803117209662,0.14271991458904668
37.652784,4.494536565187404,0.15022608320026526
37.65738,4.812195084338291,0.15056127856728568
37.66195999999999,5.1146207818812055,0.15065511561096787
37.66656,5.402302396672729,0.15055002668637377
37.671144,5.674306592448324,0.15051334677275138
37.675744,5.929078869740987,0.1504337748501194
37.680328,6.172748943521478,0.15011726460765087
37.684916,6.400575272123268,0.14972153393939963
37.68951199999999,6.604663173497189,0.14938490587398157
37.694108,6.79028706961498,0.14896024395504384
37.698696,6.955692233029977,0.14854017587061122
37.703292,7.101245217884615,0.14810902635715617
37.70788,7.228133969503462,0.14767235575337484
37.712468,7.3354149119902425,0.14719318968840658
37.71706,7.4237431103643114,0.14670988415851505
37.721648,7.4956946832544675,0.14616724787476335
37.72624,7.554867368451303,0.1455222138765334
37.730828,7.5933325820887605,0.14491679847340755
37.735412,7.616897626443792,0.14429925903882226
37.739988,7.622297416051355,0.1437691058802009
37.744584,7.619924708323895,0.14328764677822917
37.74918,7.609701459995893,0.1428952105200511
37.753756,7.592649290229148,0.14257447597498735
37.75836,7.567135656291133,0.14237969531817543
37.762948,7.533649297038433,0.14228315218332602
37.767552,7.496154504404077,0.14221752778292654
37.772144,7.452485855350331,0.1422255561173953
37.776732,7.410694118457397,0.14215707289258783
37.781328,7.370823435173905,0.1420533229267746
37.785908,7.330708382462122,0.14196237782543442
37.790512,7.293536002521572,0.1418206580614119
37.795088,7.257918122048028,0.14166856810905668
37.799688,7.223566230164568,0.1414818034960599
37.80428,7.192812076071699,0.14124708711182535
37.808884,7.158993064493452,0.1410658141305667
37.813476,7.124563129344473,0.14091969387692826
37.818072,7.089644455338913,0.1407981762778102
37.822664,7.059222953571594,0.1406188819013211
37.827248,7.026513844052394,0.14048966528372178
37.83184,7.00345414402903,0.14025041099439634
37.836432,6.98476943152976,0.1399605997712709
37.841024,6.973813074916883,0.1395899202328842
37.845616,6.965721347809723,0.13921615953137315
37.850208,6.959594815760634,0.13884955178022212
37.854792,6.961030313435165,0.13836714122668045
37.859384,6.97325902448147,0.13774964024688577
37.863976,6.989740538337723,0.13708825087906526
37.868572,7.000625217528427,0.13655272455009895
37.87316,7.009632984558316,0.13608913898974723
37.877756,7.023015739112301,0.1355789203513696
37.882344,7.037830808419143,0.1350720816903707
37.886936,7.055466365783075,0.1345293989008421
37.891524,7.075311487633368,0.1339861423317614
37.896112,7.094790055341223,0.1334669138810928
37.900708,7.113902068906641,0.1329673805353014
37.905296,7.14057611219568,0.13236646359639964
37.909904,7.1640631132851915,0.13182696538487515
37.914492,7.188982429127562,0.1312925828830518
37.91908,7.217499482760526,0.13071772096588494
37.923676,7.241519364155249,0.13019945962937018
37.928268,7.262107833922154,0.1297573272890846
37.93286,7.283717922850853,0.12930182973440066
37.93744,7.310191738160229,0.1287790415604332
37.94204,7.344594137335661,0.1281376865556685
37.946628,7.374787875149773,0.1275756038627986
37.951228,7.39586508377326,0.1271239992211743
37.955816,7.419107715434482,0.12663784956511528
37.96042,7.448235692638173,0.12606851726078952
37.965012,7.480428527327244,0.12545237225573946
37.969608,7.509023624225723,0.12487815060705508
37.9742,7.537985275266639,0.12429011334263707
37.978796,7.567069111021702,0.1237047655463683
37.9834,7.5957422511857,0.12310665034642648
37.987996,7.628379683282726,0.12246041187399824
37.992584,7.664204157579278,0.12176280624591879
37.99718,7.690912102685205,0.1211632719422125
38.001772,7.719374775237801,0.12050822717942697
38.006356,7.747304567485186,0.1198475156362755
38.010948,7.775967468017444,0.11915536505400501
38.015544,7.806917976301581,0.11842367428736242
38.020136,7.836924908689442,0.11765987582989325
38.024728,7.864722276590943,0.11689928374769602
38.029324,7.884424734463612,0.11621253030283883
38.033908,7.900896008688128,0.11554711673268073
38.038504,7.921165248682897,0.11480432715364854
38.043092,7.947319834220136,0.11399316467481935
38.047688,7.969099432233282,0.1132181187399718
38.052272,7.9848273585411835,0.1124843234791791
38.05686,7.998590089791017,0.11173860375277657
38.061472,8.011942125449785,0.11097433663262538
38.066052,8.018875935260871,0.11026604959755298
38.070652,8.01849208477663,0.10962121281745334
38.075236,8.01438831178765,0.10901056673775604
38.079828,8.002844693789198,0.10846935740803526
38.084424,7.990523826057243,0.10792927960223095
38.089,7.98204506554417,0.10734683954509223
38.0936,7.974221370050454,0.10676971593570532
38.098184,7.964843175089736,0.10619398673860776
38.102784,7.949579634586546,0.10568215605101512
38.107368,7.934560463511647,0.10515834237410474
38.11196,7.923794095246696,0.10461367678550462
38.116544,7.915481660896398,0.10406271103216302
38.12114,7.9137096371079245,0.10345371795919392
38.125732,7.907606767243988,0.10290604177965917
38.130328,7.898072485752233,0.1024144465576178
38.134924,7.884573912327449,0.10196621993940032
38.13952,7.8735292728173185,0.10151138488622903
38.144108,7.869557924174223,0.10101516099250567
38.1487,7.865630716979759,0.10055517100298392
38.153288,7.86595631259524,0.10007942520467976
38.15786799999999,7.875520622115492,0.0995357485141568
38.162452,7.888438299998043,0.09897807177787626
38.167048,7.908795822890069,0.0983666779282202
38.17164,7.935815941058067,0.09769962564690256
38.176232,7.964268373978924,0.09704394989410832
38.180824,7.992232068043199,0.0964144511642441
38.185404,8.020728642412683,0.09580027628188673
38.189996,8.049269358230795,0.09522331157282947
38.194588,8.080141823249415,0.09464536572838865
38.19918,8.10836012637372,0.09412224022724686
38.203784,8.137600048659817,0.09359443942411588
38.208376,8.164552363194037,0.09310344452574297
38.212968,8.192037558033466,0.09263071765535655
38.217564,8.224264294539427,0.09212258437785842
38.222156,8.261232572711918,0.09158323986828346
38.22676,8.301676403960856,0.09103434021388618
38.23134,8.341875865781503,0.09050066806504282
38.235936,8.37529054761203,0.09002549939357979
38.240516,8.406784175833115,0.0895648687361272
38.245116,8.435090761854674,0.0891443855056599
38.249708,8.457512002333765,0.08877778802660011
38.254308,8.481976481136444,0.08839229462284459
38.2589,8.500555614396651,0.08805912036428157
38.263496,8.514148836562036,0.08777137838927591
38.268084,8.525165940098624,0.08749209783373248
38.27268,8.538104097244654,0.08720021258751377
38.277268,8.550387189371326,0.0869026172584805
38.28186,8.563159020354583,0.08658359346699494
38.28644,8.57899570882322,0.08623699345143043
38.291028,8.598796689224883,0.08585957401025211
38.295616,8.61295669351237,0.08551832140326841
38.300216,8.626706002208792,0.08515970244182047
38.3048,8.636979757828767,0.08481304802546857
38.309396,8.647131328734595,0.084474184668769
38.313988,8.646778197145569,0.08420329722975384
38.318576,8.641150643584803,0.083949758630278
38.323176,8.633069156109386,0.08369639386229868
38.327756,8.628951960566996,0.0834115981399005
38.332348,8.628021807224131,0.08309413394041223
38.336932,8.629257076918996,0.08275422671855213
38.34152,8.63433445383275,0.08239040721827293
38.346128,8.639534015460647,0.08202282347405478
38.350724,8.644977946516835,0.08164432897535928
38.355312,8.65720665756314,0.0812226909744357
38.359908,8.669435368609445,0.08080115228618123
38.364496,8.6792101457411,0.0803806633937595
38.3691,8.687063869263314,0.07997193522124608
38.37368,8.69311872389023,0.07956968931212532
38.37828,8.697374709621851,0.0791754829759633
38.38286,8.699054576724674,0.07878746907164251
38.38746,8.701511693560999,0.078399831479679
38.392048,8.706667113740266,0.07800405783006115
38.396648,8.71362140281483,0.07760290442920799
38.40124,8.71824394268889,0.07719646008519956
38.405832,8.735536608095533,0.07671064231400757
38.410416,8.754505957683332,0.07622309922056002
38.415012,8.776295795328217,0.07572275528674442
38.419608,8.802416479048565,0.07518674134465195
38.424208,8.82673829387362,0.07465844698611386
38.428804,8.848728359498168,0.07412581852944833
38.4334,8.861724080646235,0.07361867532528159
38.437988,8.874719801794306,0.0731140832323616
38.442576,8.886938273208875,0.07260658580865077
38.447164,8.889918030718672,0.07213524475753025
38.451756,8.893919407390262,0.07165668751695563
38.456352,8.896121915166558,0.07118178581596636
38.46094,8.900489845980584,0.07068675245185203
38.465532,8.90714538454649,0.07016702106840643
38.47012,8.913923107826541,0.06964323668875864
38.474712,8.918124712477795,0.06912055141129196
38.479292,8.92677934791866,0.06855520169154913
38.48388,8.929137942225992,0.06800396567735092
38.488476,8.929286972046961,0.06743923915913057
38.493068,8.928780936848574,0.06686582092174512
38.497668,8.919935622193064,0.06632196496705456
38.502264,8.91067961194649,0.06575865761740408
38.506852,8.899869102232913,0.06518924003112515
38.511452,8.882029443100926,0.06466296820399584
38.516044,8.86635520700667,0.06411843001847722
38.520652,8.849781536464768,0.06357369457244437
38.525232,8.841791514808278,0.06299305897753393
38.529828,8.830570309503633,0.062402733039415265
38.534412,8.824335015293812,0.061786923400543384
38.539008,8.821042393855224,0.06115349664959122
38.543592,8.81709470739728,0.060511737456998685
38.548192,8.816866943444072,0.05985963317576008
38.552784,8.817782983366804,0.059198534310413144
38.557376,8.816411415537658,0.058558893725383046
38.561968,8.81348534824151,0.057911282392716985
38.56656,8.813135399574158,0.05726441183321935
38.571164,8.807799539811983,0.05664206885970833
38.57576,8.80888190589749,0.05600754974242452
38.580348,8.812418205897648,0.05538094194354463
38.584944,8.816898081794083,0.05478629169150591
38.589532,8.820111969100433,0.05420361942159292
38.594116,8.825779790321436,0.05362920127130501
38.598696,8.827238950181117,0.0530790635058826
38.603292,8.824978187536063,0.05253226876347858
38.607884,8.818508763529687,0.05201165617816984
38.612476,8.813471654276173,0.05150404728050737
38.617072,8.803204264499543,0.05102776073018031
38.621652,8.792981016171543,0.050582918614344045
38.626248,8.774584814549193,0.05017898229560698
38.630844,8.754922624336759,0.04978753007641416
38.635432,8.731051772763005,0.049418708854433085
38.640036,8.703338813970367,0.0490588842748798
38.644616,8.667452901883383,0.0487366324090019
38.649212,8.631322620368108,0.04842196281620857
38.653804,8.59266036167266,0.04813395486044617
38.658392,8.547868388006455,0.047873705504534035
38.662988,8.501566056321872,0.047635544506559206
38.667584,8.448356759933025,0.04742006089921266
38.672176,8.388240498839917,0.04722635164046002
38.676756,8.320029327717975,0.04702947349174109
38.681356,8.250674352720097,0.04683922265838811
38.685944,8.176333466627394,0.04666594377601142
38.690548,8.10379144942999,0.04648949531722859
38.695136,8.030760693376,0.04633073133172123
38.699736,7.952744026227189,0.04618941520661274
38.70432,7.864100471869379,0.04607558335954384
38.708908,7.773535863902127,0.045963736899873875
38.7135,7.6783518989824895,0.045854274653259704
38.718096,7.579325826843969,0.04575296449728883
38.722688,7.4753138436106275,0.04567018060779116
38.727272,7.369014252625407,0.045608602315939904
38.73186,7.256707131383571,0.04557109647814741
38.736448,7.147220498198825,0.04552646946214736
38.741036,7.032092888899901,0.045489283275735905
38.74563199999999,6.913245357096239,0.0454547727130646
38.750216,6.797584867492103,0.04539304514664929
38.754804,6.678448824811521,0.04532053135503826
38.7594,6.5554706749120575,0.04525708657395198
38.763988,6.428406048365418,0.045218793384107364
38.76858,6.304816974895226,0.045185750388718825
38.773176,6.17738579420615,0.04516317879323274
38.777768,6.043292018241103,0.04515889210189789
38.782376,5.903312896733586,0.04518036029032993
38.786956,5.761657091044918,0.04519420041376621
38.791544,5.622943958127485,0.04519271555458628
38.796132,5.489871801324232,0.04518013866936137
38.80072,5.356555275092687,0.04518237801989669
38.805312,5.222217129699347,0.045192768970283376
38.809896,5.087878984306008,0.04520565018716355
38.814496,4.9553397078079655,0.04522271073422456
38.819084,4.825865288795303,0.045215337855353324
38.823684,4.701909661182674,0.04520242437581144
38.828276,4.575910795246457,0.04520575830303203
38.832868,4.453509667100831,0.04520960240049453
38.837452,4.33572789590759,0.045202260991091064
38.842048,4.210139725562438,0.04523577657746301
38.846628,4.088027108293733,0.04527803081417678
38.851224,3.972454901586853,0.04530244736309304
38.855816,3.862645855708298,0.04530510082760849
38.860408,3.751037940934447,0.045303896612675754
38.865,3.643027763951187,0.04530935948483191
38.869588,3.5434790511391956,0.045286158276531936
38.874176,3.449571314441382,0.04524625696191596
38.878772,3.358484065800658,0.04518851337991733
38.88336,3.265353578836346,0.04515052973266011
38.887964,3.172100907157889,0.045126387312297844
38.892556,3.079092604907724,0.04507026340308039
38.897144,2.9899264098764404,0.04498336317800292
38.901744,2.9082000598546314,0.04487025183792693
38.906332,2.82851694815641,0.044721761638746936
38.910928,2.743192860344009,0.04458364170595045
38.915516,2.6522277964174306,0.04446966505299628
38.920104,2.559586048309703,0.044325758403915824
38.9247,2.465023246592533,0.04419263231459554
38.929288,2.3657189032088324,0.04407674829679513
38.93388,2.273976589548752,0.04390095755640602
38.938476,2.1785143533839335,0.04372626777036822
38.943064,2.0811310636096736,0.04354671315441086
38.94766,1.9819489049401187,0.04333493318588501
38.952244,1.8854650496135072,0.04310111351619341
38.95684,1.791024432610483,0.042784581809073706
38.961428,1.69094283949328,0.040545392160613744
38.96602,1.590083996642575,0.038309455058351885
38.970608,1.4907796532588744,0.036095402342589226
38.975208,1.3942957979322632,0.03387391622113731
38.979796,1.2979341273197973,0.03164157146765581
38.984392,1.1976081647743029,0.02943423974027132
38.988984,1.097282202228809,0.027252139843878396
38.99358,0.995035186073873,0.02509086862808042
38.998168,0.8963859077095289,0.022957373316598074
39.002768,0.8050542896405133,0.020827295093621242
39.00736,0.7214068860092632,0.018675050366705675
39.011948,0.6449549579591957,0.016544879299844738
39.016536,0.5731223868615135,0.014406580338382532
39.021124,0.5059091727162159,0.01226554752073609
39.025716,0.44086923487494023,0.01016691362069853
39.030308,0.3844492341014169,0.008070105755173909
39.034904,0.3303246943460611,0.005993388369014583
39.03948,0.2815967612765923,0.003952369241109966
39.04408,0.2364665659977149,0.00193989200607278
39.048668,0.19391248934763547,0.0
39.05326,0.1586760729928845,0.0
39.057852,0.12691520971457929,0.0
39.06244,0.09797483449336329,0.0
39.067032,0.0726321970627387,0.0
39.07162,0.051786731870353375,0.0
39.076224,0.03928054613509004,0.0
39.080808,0.030249913476272452,0.0
39.085396,0.023917584160398412,0.0
39.089992,0.0174630701303787,0.0
39.094572,0.013043941157656959,0.0
39.099172,0.00915769249014606,0.0
39.103748,0.005393628536780829,0.0
39.108352,0.0036728029070026464,0.0
39.112936,0.008248018410759422,0.0
39.117536,0.01220445707749877,0.0
39.12212,0.014980803685959845,0.0
39.126712,0.020081046228638384,0.0
39.131304,0.02698015766661263,0.0
39.135896,0.034123638532878225,0.0
39.1405,0.04012331552320461,0.0
39.145096,0.04702242696117886,0.0
39.149676,0.05482097284680096,0.0
39.154264,0.06646162595130581,0.0
39.158852,0.078346648484102,0.0
39.163448,0.09203053991219387,0.0
39.168032,0.10469281217849226,0.0
39.17262,0.11465678110184707,0.0
39.177212,0.1256423691869954,0.0
39.1818,0.13482908837684804,0.0
39.186392,0.14185823779525703,0.0
39.190972,0.1499090063754595,0.0
39.19555999999999,0.1584926552608729,0.0
39.200164,0.16298982749911214,0.0
39.204752,0.16413363137505135,0.0
39.20934,0.1683422927363711,0.0
39.213936,0.17332820383119307,0.0
39.218532,0.17819193021186933,0.0
39.223132,0.18522107963027834,0.0
39.227732,0.18984043658266328,0.0
39.232336,0.193682543801546,0.0
39.236928,0.19830190075393092,0.0
39.241524,0.20267688827802452,0.0
39.246112,0.19810167277426774,0.0
39.250712,0.1959803911851632,0.0
39.255292,0.18923975264367365,0.0
39.259892,0.18364291797812332,0.0
39.264484,0.17972276749372307,0.0
39.26908,0.17273775952394224,0.0
39.273664,0.16910611991646146,0.0
39.27826,0.16907221809957207,0.0
39.282848,0.16826106654918055,0.0
39.287444,0.16716140412186953,0.0
39.292032,0.17104765278938042,0.0
39.296624,0.1727684784191586,0.0
39.301212,0.16950339295411485,0.0
39.3058,0.1662383074890711,0.0
39.310388,0.16105216841458592,0.0
39.31498,0.1489590646358375,0.0
39.319568,0.14197405666605667,0.0
39.324156,0.1398527750769521,0.0
39.328756,0.1342559404114018,0.0
39.333336,0.13029164847837338,0.0
39.337916,0.13450030983969313,0.0
39.342512,0.13396742953448232,0.0
39.3471,0.13523341812456716,0.0
39.351704,0.13241293006747792,0.0
39.35629599999999,0.13241293006747795,0.0
39.360892,0.13343454922927148,0.0
39.365488,0.13392328808585416,0.0
39.370084,0.13310189690372382,0.0
39.374684,0.13317994016924134,0.0
39.379276,0.13174762541638266,0.0
39.383872,0.12904932207343908,0.0
39.38846,0.1282720723399369,0.0
39.393052,0.1322363642729653,0.0
39.397632,0.13440178731069805,0.0
39.402236,0.13771101422436996,0.0
39.406828,0.14294129474748324,0.0
39.411428,0.14240841444227242,0.0
39.416024,0.13791124220403317,0.0
