Time,Force,Position
37.074164,1.1322592071720397,0.030783889713207245
37.078756,1.0383514704742263,0.028397383749765318
37.083352,0.9467754829769192,0.026052474366070923
37.08794,0.862761525203232,0.023667520940787848
37.092536,0.7809571319159054,0.021330244080124273
37.097124,0.7068369530663448,0.018921780278206245
37.10171999999999,0.6419554881215538,0.016483440001625663
37.106308,0.5788728920720585,0.014043052406320294
37.110908,0.5193880338131547,0.011599159860487446
37.115492,0.46055824057360734,0.009222197207951689
37.12008,0.408391042610032,0.006847014758020837
37.124664,0.36485163498049805,0.004558881435502565
37.12924399999999,0.3242549001221991,0.0022771095046148844
37.133832,0.2846797844256936,0.0
37.138448,0.24984621039571872,0.0
37.143036,0.22118649278513314,0.0
37.147628,0.1984121207170174,0.0
37.15221999999999,0.1824225286390192,0.0
37.156808,0.16042540630440558,0.0
37.161404,0.14406926008397042,0.0
37.16599599999999,0.13286535112113107,0.0
37.170592,0.12628079911067663,0.0
37.175168,0.12084005097616138,0.0
37.179768,0.11732035645108749,0.0
37.184356,0.11776495385904201,0.0
37.18896,0.11898680100049872,0.0
37.19354799999999,0.11816540981836837,0.0
37.198148,0.11722183392209237,0.0
37.202744,0.11807712692111208,0.0
37.207336,0.12060910410128184,0.0
37.21192,0.11917678934842316,0.0
37.216508,0.11414673680497306,0.0
37.221112,0.10964956456673378,0.0
37.225712,0.1059296420619967,0.0
37.230304,0.10736195681485541,0.0
37.234892,0.10854990213942274,0.0
37.239476,0.10311939363664628,0.0
37.244064,0.10059765608821532,0.0
37.24865199999999,0.11255515259940632,0.0
37.253248,0.13392792880987975,0.0
37.25784,0.16794716836779006,0.0
37.26242,0.21657806633120674,0.007384851749205642
37.267016,0.2794540685576927,0.01492154655521136
37.271604,0.3500347644854218,0.022838146921239005
37.276196,0.43444986908515515,0.03061508067590004
37.280792,0.5334766320903949,0.03834222465596589
37.28538,0.6462156190534931,0.04613395096650759
37.289976,0.7772861869268347,0.05381366404090888
37.294564,0.9236234782250392,0.061472369378895254
37.29915199999999,1.084328058500459,0.06918777190355385
37.303748,1.263774915277187,0.07684511931336935
37.308336,1.4583663107646325,0.08454007331161421
37.31292799999999,1.668635125268006,0.09223861382282697
37.31752,1.895236423806664,0.09995221671865819
37.322112,2.1303196657800676,0.10774690368688197
37.3267,2.379770196730686,0.11552494483689202
37.3313,2.650983720219365,0.1232306841455714
37.335888,2.9318127513869903,0.13089759964617043
37.34048799999999,3.214484792898539,0.13854646226655407
37.34508,3.4974792471038967,0.1461381618021531
37.349676,3.7705696827533894,0.15371874799749588
37.35425599999999,4.032568154522449,0.15390975942520754
37.358852,4.282042347658218,0.15397971101760352
37.36344,4.524511053560729,0.1536709103249102
37.368036,4.753722372545074,0.15353445644024366
37.372616,4.973884965972574,0.1533970508864331
37.377204,5.187819321900316,0.1531321562466612
37.381792,5.390906083375919,0.15293219639319106
37.386392,5.581835120360668,0.15273155431657567
37.390984,5.763426920911652,0.1524398310088161
37.395568,5.931306497504776,0.1521776764416362
37.400152,6.088660892339571,0.15182701273402738
37.40474,6.228661183977287,0.15148539066300684
37.409336,6.355149479636807,0.15108342564824714
37.413924,6.471723517108721,0.1505483018093797
37.41851199999999,6.570454712526976,0.15006192538898244
37.423108,6.652653195930282,0.1496430592111655
37.427688,6.721305781538506,0.14926301684142887
37.43228799999999,6.7804209027333,0.14888122529700948
37.436884,6.8300427009632925,0.14854158606750986
37.441484,6.875489739648856,0.14820556247311825
37.446076,6.920481941294726,0.14781577886390018
37.450676,6.967473239815556,0.1473450454948813
37.45528,7.016585819925492,0.14679372911084285
37.45986,7.0643441285480835,0.14619531781266162
37.464456,7.103841200979072,0.14568181776623168
37.469036,7.13303379889487,0.1452922934221997
37.473636,7.151144672561974,0.14502889442969533
37.478224,7.168967035352155,0.1447436425387003
37.482824,7.186500887265422,0.14443821314168692
37.48741999999999,7.199781936368739,0.1441803276257891
37.492012,7.212407920452696,0.14392377768988054
37.49659199999999,7.22875382704139,0.14361304061163424
37.501188,7.241501995839496,0.14335171426568194
37.505784,7.252329111028159,0.14312390377953377
37.510384,7.267242702863997,0.14282002528846904
37.51497199999999,7.28227847941398,0.1425098399429574
37.51956799999999,7.301933612916349,0.1421379311881695
37.524156,7.3214665617045736,0.14177506188487618
37.528744,7.341776760226299,0.14140950998800927
37.533332,7.362086958748024,0.14104447836527792
37.537928,7.378310680622574,0.1407555985308243
37.54252,7.391713914440036,0.14050988772624456
37.547112,7.402418844914552,0.14030146922296152
37.551708,7.4176209476273085,0.14004172311244192
37.556296,7.4375645920065985,0.13971381274577882
37.560888,7.463637951356645,0.139277720533017
37.565476,7.496618275410957,0.13872582730869437
37.570064,7.527921915284121,0.1381943179572221
37.57466,7.552929514023749,0.1377400934569567
37.57924799999999,7.57920310135346,0.13725337430497997
37.583836,7.60163458146429,0.13682607318633894
37.58842799999999,7.619691074051025,0.13644663806910523
37.59302,7.638769185799556,0.13604955717027306
37.597624,7.657314417242874,0.13564405510538913
37.602212,7.676881267847989,0.13522658730026557
37.606816,7.695137988414389,0.13480315039885704
37.61140399999999,7.705666353094393,0.13445317682166527
37.616004,7.717827260506921,0.13405465313391768
37.620584,7.728555853166588,0.13365664372013755
37.625184,7.74259367273993,0.13319787942828298
37.629772,7.758386219759938,0.13268202214738545
37.634372,7.771724832865294,0.13218085302628035
37.638968,7.779544654570617,0.1317455400831433
37.643564,7.77926956624711,0.13140010216856005
37.64815599999999,7.776540544008949,0.13107116950416353
37.652744,7.773811521770788,0.13074385252616186
37.657348,7.771981933980277,0.13040832833498892
37.661944,7.769619465884552,0.13006289380490899
37.66654,7.770321855274207,0.12966835519856465
37.671136,7.769469745196861,0.12927875101413086
37.675724,7.7729484811949785,0.12881339768545388
37.680312,7.782312562735567,0.1282685088417047
37.684904,7.791143763970943,0.12771340394879943
37.6895,7.799730595778029,0.1271724242420916
37.694088,7.803575885918583,0.12669129246549252
37.69868399999999,7.809997294687935,0.12619124458733114
37.70327999999999,7.821693125429031,0.1256438639917941
37.707868,7.82930247952295,0.12515941970066422
37.712464,7.841531190569258,0.12462810163624086
37.71705599999999,7.847752371358946,0.12418225218847644
37.721648,7.852707563558551,0.12376484610689785
37.72623599999999,7.864325351034129,0.12327020937411937
37.730828,7.881584114623885,0.12271142823459369
37.73542,7.905627658203758,0.12206872521371408
37.740008,7.931470070678928,0.12141157424526286
37.7446,7.952693126201711,0.12080375802077196
37.749196,7.972894562562703,0.12021510662970292
37.753784,7.990808391171816,0.11966814761906933
37.75838,8.010643273390368,0.11910228740968992
37.76295999999999,8.036119131723101,0.11847998170077706
37.767556,8.05583182922751,0.11792667390590117
37.772144,8.070925169779532,0.11742341401420851
37.77674,8.088838998388647,0.11689381628959636
37.781328,8.108263185016135,0.11632841273893965
37.785928,8.129974979395502,0.11572341578119243
37.790524,8.151276078183804,0.11510638565873052
37.795112,8.170123243057454,0.1145019857373862
37.799704,8.189336962073538,0.11387742916739992
37.8043,8.205075128013181,0.11328155086197617
37.808904,8.223223086418844,0.11263899987912673
37.8135,8.244558087024037,0.11195395979211545
37.818088,8.261518100105132,0.11130384355036203
37.822684,8.275246929538078,0.11066556841327915
37.827272,8.282679717837485,0.11007628508885753
37.83186,8.288680191384035,0.1094839941092417
37.83644,8.297867707130113,0.1088470059258645
37.841036,8.30586727755162,0.1081951156620396
37.845632,8.315621575419797,0.10749391901599743
37.850224,8.32382137382097,0.10679749401770408
37.85482,8.326624565536253,0.1061425410403804
37.859404,8.327751073070388,0.10548930944601494
37.863988,8.330021384480462,0.10481845708061799
37.86858,8.328571773385798,0.10417963047536463
37.873172,8.325078923967547,0.10356582984809888
37.877768,8.3223633242828,0.1029532325936631
37.88234799999999,8.317848855702758,0.10235347203228254
37.886952,8.3146003757128,0.10173051170931631
37.89154,8.315316187655869,0.10106802467949806
37.896128,8.311290457932406,0.10044330518555304
37.900736,8.308041977942448,0.09981877468582082
37.905328,8.304793497952488,0.09919780825092213
37.909936,8.300156844658298,0.09860412308998948
37.914528,8.298995744440555,0.09799528459128158
37.919132,8.302209631746903,0.09736430670539763
37.92372,8.307999637682052,0.09672541578163693
37.928324,8.316610131674288,0.09606957168029781
37.932912,8.325875690685882,0.0954213711441984
37.937512,8.334652510840893,0.09479614866334912
37.9421,8.344206580729406,0.09417430225971214
37.946688,8.352739031456126,0.09356106627426816
37.951284,8.37063238080176,0.09288445149715958
37.955876,8.386482491823807,0.09222955084461809
37.96045599999999,8.403232037293503,0.09156956967645288
37.96504,8.420103767477347,0.09090465983088225
37.96962799999999,8.431456706261155,0.09027189857906816
37.97422399999999,8.440522037293084,0.08966960893860158
37.978812,8.448199195020784,0.08909542915808004
37.98340399999999,8.452811495263104,0.08855373724875851
37.987992,8.462287521886099,0.0879713516746219
37.992588,8.47098629877559,0.08738867516120853
37.99717999999999,8.472123045941464,0.08685614349651016
38.001768,8.475547400859215,0.08629239691638894
38.00636,8.47615126771988,0.08574852124122428
38.010944,8.476755134580543,0.08520665081604144
38.015536,8.472617459774675,0.08469622464667441
38.020124,8.45773071304566,0.08426646625687974
38.024712,8.440678543278914,0.08386016657300209
38.02930799999999,8.423992927654602,0.08343591132868464
38.033896,8.40268795507791,0.0830347737139549
38.038496,8.386002339453599,0.08260792115712613
38.04308,8.363797932429257,0.08220949108174537
38.047664,8.345191263195506,0.08179577332491436
38.05226,8.327484028409403,0.08137753215249408
38.05684,8.307733555299713,0.08097523199095015
38.06144,8.295545111913642,0.08052734324626144
38.066028,8.288220394908247,0.08004541925093996
38.070628,8.28293891622644,0.07954611181035119
38.07521199999999,8.275614199221046,0.07906263888582328
38.0798,8.271642850577951,0.07857929605374646
38.08438399999999,8.269470370830152,0.07809016754219487
38.088976,8.277313854720626,0.077561340867062
38.09358399999999,8.286711838078103,0.07703985253740024
38.09818,8.293167148664347,0.0765363179206294
38.102768,8.297701405641147,0.07604509851233461
38.107364,8.306855019570335,0.07553430601148223
38.111952,8.32831220488967,0.07495811595377498
38.116544,8.351934813246741,0.0743606746162716
38.12113599999999,8.378910789966111,0.07376700280556005
38.12573199999999,8.410261754209575,0.07316500493739916
38.13032,8.436748992072364,0.07259442047804696
38.134916,8.463114045221005,0.07203053616612799
38.13950799999999,8.484615371988967,0.0714967378210052
38.144088,8.507915567652232,0.07096125498201303
38.14868,8.535957304982022,0.07040434878326474
38.153272,8.559135315931139,0.06987879826508236
38.157864,8.579492838823164,0.06936853308292068
38.162456,8.597684938677457,0.06888029947877958
38.167044,8.622539633807722,0.06836303510917123
38.171652,8.640731733662014,0.06787881156983513
38.176244,8.65585897603093,0.06741758078897879
38.180832,8.663668558104511,0.06698043856866023
38.185424,8.670456521016304,0.06655281245401971
38.19001599999999,8.68378489448992,0.06610161586479381
38.194608,8.700178125448918,0.0656315029343302
38.19918799999999,8.714772487512619,0.06516772261316645
38.20378,8.725769111785729,0.06471573552808081
38.20836,8.737420801078196,0.06427381984016217
38.21296,8.743553698970628,0.06384782865517032
38.217552,8.749808781577208,0.06341860662360416
38.222152,8.761827025012114,0.06296619608833887
38.226744,8.77744300623761,0.06251013998466597
38.231332,8.800088136881511,0.062016577738349
38.23591999999999,8.817092291411239,0.061541681225884666
38.24051599999999,8.834873695674466,0.06107460574200085
38.245104,8.857396641604224,0.06059357175296605
38.24969599999999,8.881596271715134,0.06011661878617314
38.254284,8.906040271254335,0.05963051857001454
38.258872,8.925742729127004,0.0591632523062232
38.26346,8.95055328280864,0.058667505524050034
38.26804799999999,8.981249182032748,0.05814936577691066
38.272632,9.0146433845998,0.057628382348004534
38.277224,9.044439849376257,0.05711220359652394
38.28182,9.072437445257421,0.05660232292743507
38.286408,9.097125814224912,0.056121257215207956
38.291,9.12079256403061,0.05564700137656908
38.295592,9.144459313836308,0.05517596587763625
38.30018,9.167226629194358,0.05470762375731283
38.304788,9.193591682343,0.0542369939022184
38.309372,9.217136247434551,0.05377431529260459
38.313976,9.235939270859571,0.053326271065037664
38.318556,9.248079699008622,0.052896786520726456
38.323144,9.249471055234524,0.05250538879891503
38.32774,9.253682899517518,0.05210634248691471
38.332332,9.249433279629242,0.0517247224653861
38.33692799999999,9.240319933360293,0.05135974889710182
38.341508,9.227486664586605,0.05100020620535659
38.34609999999999,9.211588538327536,0.05065382416346953
38.35068,9.194668792906675,0.050311161789737845
38.355284,9.172640951676845,0.049992490891824254
38.35987599999999,9.141907276847455,0.04969816625605906
38.364472,9.106187690923244,0.049421672712700815
38.369064,9.070101550856595,0.049156959380842816
38.373656,9.027108446085684,0.04891489303745998
38.37825599999999,8.97859654991474,0.04867588798129285
38.38285199999999,8.926897611544268,0.04845430554061678
38.38744,8.868946773488892,0.04826482403065988
38.392036,8.806254393766984,0.0480826037765584
38.396624,8.736777234054959,0.04791789279277571
38.401208,8.663213597695758,0.04777003837496179
38.405796,8.586340734422887,0.04764461631801641
38.410396,8.50934568643587,0.0475218153873455
38.414976,8.437869429848885,0.0473917422619492
38.41956,8.364105565510025,0.04727949843952804
38.42415199999999,8.29267345037167,0.047181058197199005
38.42874,8.216377608852635,0.04709540385080191
38.433336,8.137016909848224,0.04702273669078605
38.437916,8.058433460577314,0.0469532564209644
38.44250399999999,7.972820861887994,0.04691388676380238
38.447096,7.8840212209991485,0.04689515940979667
38.451676,7.796776079577307,0.04688595677450773
38.456264,7.710674742031404,0.046864547732324846
38.46086,7.621752916428412,0.04684731864302376
38.465452,7.534629959720716,0.046829991285422555
38.470048,7.4482842527465225,0.04681733887104889
38.474636,7.360261861591178,0.04679767850505753
38.47923599999999,7.269541167092891,0.04677845609185466
38.483816,7.177554484004519,0.04677563675560436
38.488416,7.0846683664685,0.04677237118443907
38.493004,6.992559498665982,0.046775911853706366
38.497604,6.898773946682314,0.04677360950237145
38.502188,6.802167906641556,0.04677602538363002
38.506784,6.697999836877179,0.04679526172919978
38.511376,6.589212410160418,0.04682131891916517
38.515972,6.477971049529005,0.046833708291884615
38.520568,6.366485319469299,0.04686190088436948
38.525168,6.253855785533653,0.04690652688673734
38.52976,6.137384144379126,0.04696522321627379
38.534344,6.024099545424125,0.04699911582829639
38.53893599999999,5.906439958945031,0.047029988269473855
38.54352,5.783139396351756,0.04707929190017213
38.548108,5.65575235711131,0.04716056168952225
38.552704,5.529509121746802,0.0472235713201314
38.557296,5.399545963877557,0.047297516781554486
38.561876,5.2716260443318985,0.04735199280682755
38.56645999999999,5.143583940072095,0.04741371812716085
38.571048,5.016563454974085,0.04747021045135892
38.575644,4.887744100980778,0.04753225482253898
38.58024,4.760723615882768,0.047595595032528346
38.584828,4.631004827441815,0.047665274220549475
38.589424,4.503984342343804,0.047736441771918006
38.59401199999999,4.376841672531647,0.04782242000509167
38.5986,4.252397306062436,0.04791705356435841
38.603204,4.128974558755018,0.04800724880675578
38.607792,4.001587519514571,0.04813898831287281
38.612388,3.8744448497024138,0.04825975714638399
38.61696799999999,3.7513886565374324,0.04833484082247651
38.621568,3.631397320857831,0.04837085510114113
38.626156,3.510506550730582,0.04839977717694494
38.630756,3.3980772447746004,0.04838609006431661
38.635344,3.289734415465793,0.048317335240924325
38.639948,3.1826575747470702,0.048206560240348126
38.644532,3.0734153109906153,0.048129692280539066
38.64912399999999,2.9653168511100993,0.04801646099494468
38.653712,2.8542757184583487,0.047916833537211864
38.658308,2.7404140977495084,0.04783206185580958
38.66289999999999,2.6274519114883166,0.047741160188211895
38.66749599999999,2.52049725548374,0.04752792689859276
38.672084,2.414686403355102,0.04724772345231259
38.67668,2.313739277607141,0.04688629101102058
38.681264,2.209438783496879,0.04642113513204635
38.68586,2.1042388549389703,0.045921297999346425
38.690448,2.0009599799905025,0.04537497321822379
38.695036,1.9015232122609174,0.04471910801984821
38.699628,1.807849605359656,0.04394049532422008
38.704216,1.7158526826395453,0.04313125752631359
38.708808,1.6189920335387578,0.04067877716241845
38.713388,1.5190665269525898,0.038257499948300966
38.71798,1.4217171389952197,0.03585222256462853
38.722568,1.31848240549538,0.03348155108406107
38.727152,1.214758933138958,0.031147869344750733
38.731748,1.1163098827542772,0.028836831281714447
38.73634,1.018760266817244,0.026511076839744036
38.740928,0.9257078231184501,0.024211386847590315
38.745524,0.8370303669437498,0.021918543911234004
38.750116,0.755670571064378,0.019611025432054445
38.754716,0.6788079474232454,0.01730986010336706
38.759296,0.6023677364559612,0.015119892819843201
38.763896,0.5292808938509774,0.01299679135489854
38.76847599999999,0.45864798516064553,0.010942539378820434
38.773076,0.3949661826232052,0.008991654575072835
38.777668,0.33860204038109337,0.007061821818235825
38.782264,0.28583563592957295,0.005163981398668555
38.78685599999999,0.23552316539270468,0.0033737845776286228
38.79145199999999,0.1886862479322822,0.001673453654330645
38.79604,0.14646868742424463,0.0
38.80063199999999,0.11156878721153556,0.0
38.805224,0.08308711284650712,0.0
38.809816,0.05820317627207007,0.0
38.814404,0.04128024792953472,0.0
38.818992,0.02857769803110244,0.0
38.82357999999999,0.01831736496453906,0.0
38.828176,0.01729574580274553,0.0
38.832768,0.018728060555604217,0.0
38.83736,0.01913875614666938,0.0
38.841956,0.02134832063303025,0.0
38.846544,0.025478938728832494,0.0
38.851144,0.03151889335129281,0.0
38.855724,0.03755884797375312,0.0
38.860316,0.03975669537733068,0.0
38.864912,0.043875596390349623,0.0
38.869504,0.044929639917987985,0.0
38.874096,0.044929639917987985,0.0
38.878676,0.044929639917987985,0.0
38.883268,0.04712748732156555,0.0
38.887872,0.050224769172790965,0.0
38.89245999999999,0.05242261657636853,0.0
38.897056,0.05359884481815258,0.0
38.901644,0.06053823388826074,0.0
38.906244,0.06491322141235432,0.0
38.910824,0.07095317603481462,0.0
38.915424,0.06968718744472975,0.0
38.920008,0.06457909163576214,0.0
38.924608,0.060614799702733736,0.0
38.929204,0.060614799702733736,0.0
38.9338,0.0589381155215837,0.0
38.938384,0.05840523521637286,0.0
38.94298,0.054807497425781455,0.0
38.947568,0.051454129063481395,0.0
38.952164,0.0547633559771533,0.0
38.956752,0.055252094833735985,0.0
38.961336,0.06366941755637551,0.0
38.965924,0.07428458768259259,0.0
38.970524,0.08579919225645753,0.0
