Time,Force,Position
37.41982,7.015238327731657,0.04614227056717467
37.424424,6.91360223514745,0.04610791308237317
37.429016,6.80865691564957,0.046101354663214356
37.433604,6.7001138583611,0.04609285584900925
37.4382,6.591448616358484,0.046092853180980976
37.442788,6.486992035717187,0.04606362589285644
37.447384,6.3836792589518305,0.046024208974431935
37.451964,6.277135298538318,0.04596281481892787
37.456564,6.169569718963014,0.04590741160752968
37.46114,6.05779547802639,0.0458861242680997
37.46574,5.946431932680828,0.0458988247232586
37.470324,5.831026052136723,0.04600607852203612
37.47492,5.712110716699284,0.0462439717517932
37.479504,5.597125771377983,0.04660400906402641
37.4841,5.484805227582736,0.04710898626690173
37.488696,5.374249650865896,0.04776624246237486
37.493288,5.262271999027935,0.04861716512685957
37.497876,5.158355355401916,0.04962054898629652
37.502472,5.0545711361217815,0.05085024410312368
37.50706,4.9584813709111515,0.05227452279077332
37.511652,4.861746780312903,0.05392840204093663
37.51624,4.764655875203958,0.05584424392163545
37.520824,4.671661686373924,0.057990100597490206
37.525416,4.584563082718099,0.06033301164021662
37.530008,4.504259498684132,0.06288354026472961
37.534604,4.426786642338992,0.06568921106318966
37.539188,4.355331555882207,0.06868918800693899
37.543784,4.292225988514282,0.07188483430840252
37.548364,4.238735928825302,0.0752156122740923
37.552952,4.193306877348263,0.07870547486536147
37.557548,4.153851454310951,0.08229209491151084
37.562136,4.120569887693027,0.08593032971818046
37.566744,4.094561839921804,0.08948191452131064
37.571332,4.0685096507019525,0.09302459029421542
37.57592,4.04748751402555,0.09655022851251747
37.580524,4.037591243046472,0.100054250756784
37.585108,4.040453380497235,0.10343859664548177
37.589704,4.049289146387725,0.1067899986901648
37.594284,4.074436917050023,0.10988470295337299
37.598884,4.105103479112353,0.11286594790019447
37.603472,4.147096134851669,0.11568636207530604
37.608072,4.198249461230236,0.11837948462648638
37.612656,4.263960064933943,0.12084777158709527
37.617256,4.337809720115108,0.1231864083947695
37.621848,4.424373642277489,0.1252522290835557
37.62644,4.524306896440443,0.1270551190793782
37.63102,4.635688428994527,0.1286337951270722
37.635616,4.755697751882651,0.13003417215524482
37.640204,4.88037057317179,0.13134125600805946
37.6448,5.014981314833683,0.13248324421023905
37.649388,5.158141803564101,0.13352240978995203
37.653976,5.316148080496577,0.13437907782646286
37.658564,5.4820931809268485,0.1352073197009317
37.66316,5.6618624503973844,0.1358832062149339
37.667752,5.843508632028735,0.13642737051861598
37.67234,6.018315652589601,0.13684548987543282
37.676924,6.184362458470542,0.13719670667300493
37.681512,6.344181026851725,0.1373967491169074
37.686096,6.491074860640291,0.13769387567325903
37.69068,6.6378804115316,0.1378805471493342
37.695272,6.779156931391139,0.1379923893351278
37.699876,6.915759713217924,0.13797099176376593
37.704464,7.042903073896801,0.13787610361095926
37.709052,7.1616527740381875,0.13771321414691337
37.713636,7.267555782852473,0.13760724547821085
37.718228,7.363554773110895,0.13750214493208557
37.722824,7.448505940937514,0.13742211225381865
37.727412,7.521876406027116,0.13734956981951368
37.732012,7.58877426418867,0.13719321704922566
37.7366,7.645846147059878,0.13698761820878907
37.741192,7.694768738821885,0.1367187872330663
37.74578,7.728635074770433,0.13649948195131772
37.75038,7.754884999914995,0.1362288249203805
37.754972,7.771353091217837,0.1359504704565081
37.759568,7.784135161832832,0.13564104749074626
37.76416,7.794052602942108,0.13533058697676767
37.768756,7.80523603264147,0.1349907665855214
37.773344,7.817318896788479,0.13464244501540487
37.777944,7.832544661686388,0.13420005658101233
37.782536,7.846826850688019,0.13373601774606952
37.787128,7.860942713526876,0.13324481517705272
37.791716,7.875425130508171,0.13273816032108876
37.796304,7.88839718947109,0.13227617171910228
37.800888,7.902513052309948,0.1317920972372888
37.805472,7.916873284577098,0.13129425447715293
37.810068,7.930578451824891,0.13079420284190335
37.814656,7.94297348903397,0.13028599035651092
37.819248,7.957411764566636,0.12974522668021793
37.823828,7.969928986489863,0.12923101722302668
37.82842,7.983223458146591,0.12871648219425083
37.833004,7.997539548965113,0.1281902905951605
37.837596,8.01197782449778,0.12765556256450689
37.842184,8.02347342725921,0.1271614355426992
37.846776,8.033047976411202,0.1266929629660529
37.851368,8.039924222220248,0.12625188401865134
37.85596,8.051297640267535,0.1257667312874462
37.860544,8.060872189419525,0.12530027160203375
37.865136,8.066726816066778,0.12487510357313057
37.869716,8.069394400514504,0.12450227081818907
37.874316,8.068708616599931,0.12415289084123554
37.878904,8.066879028809419,0.12382566092006764
37.883504,8.059819160495794,0.12357949413094015
37.888088,8.051082608001018,0.12334358814581858
37.892684,8.042878935811455,0.12311831225070859
37.897272,8.037251382250687,0.12287404268401719
37.901868,8.029580590366335,0.12265897891863081
37.906464,8.026817666311286,0.12241917435705243
37.911064,8.023810372827946,0.1221921078469894
37.915656,8.021213774935669,0.1219818575241068
37.920248,8.019150057348606,0.12178295388764157
37.924828,8.012755493686075,0.12165483597436695
37.929412,8.010858102261786,0.1214858048698306
37.934004,8.013213513647441,0.12128886120284003
37.938596,8.01495800146237,0.12112290628438871
37.943188,8.023409226001899,0.12091845145416708
37.947776,8.032148961418345,0.12073887576676269
37.952376,8.043342630749446,0.12054863468761351
37.956964,8.057767483728702,0.12034476875058542
37.961552,8.076445139517906,0.12011409105858085
37.96614,8.098642489832182,0.11989515530278727
37.970728,8.120106731861584,0.11971322799664832
37.975336,8.150032438062256,0.11944409721459452
37.979924,8.183966577644583,0.11916174228506297
37.98452,8.218800151674557,0.11887413212375116
37.989116,8.250568868219151,0.11862881826257797
37.993708,8.287612006735488,0.11834509966198808
37.9983,8.32028015772773,0.11809551423497253
38.002892,8.357689850386501,0.11780039449078661
38.007492,8.397387150797151,0.1174683084597275
38.01208,8.436185016760158,0.11714637142770858
38.01668,8.479069359370335,0.11677170143098929
38.021268,8.521831517266367,0.116409315487609
38.025868,8.561362491514243,0.11606052122081871
38.030456,8.601382204618703,0.11568666289526132
38.035052,8.632774127389121,0.115369167366728
38.039648,8.663877539282621,0.11503323548962335
38.044244,8.693426451709115,0.11470188844396123
38.048836,8.724730091582277,0.11432602880980473
38.053432,8.754190721111515,0.11393354737592105
38.05802,8.780253840829824,0.11352594010828666
38.062616,8.810237111032535,0.11304384038168347
38.067204,8.83453526367244,0.11258543406400448
38.0718,8.856213156234917,0.11211054708699877
38.076388,8.874782049863386,0.11164022105795092
38.080984,8.89714890926211,0.11110205997109718
38.085572,8.916773323869263,0.1105544380826734
38.090168,8.937008662047145,0.10997892854842037
38.09476,8.947472406015043,0.10946731061564233
38.099348,8.953683347172994,0.10897605827612111
38.10394,8.958706343006378,0.10847009159725034
38.10852,8.961397589639256,0.10796721668521182
38.113112,8.957137730119243,0.10750120005246572
38.1177,8.952344990294018,0.1070236053140359
38.122288,8.950861477382464,0.10650129257547399
38.12688,8.952320637242147,0.10594786818772009
38.131472,8.947483755968294,0.10543512789717518
38.136068,8.942113994389231,0.1049115554827548
38.140664,8.934045929467223,0.10440640038084233
38.145252,8.925977864545219,0.10390147924383711
38.149856,8.914967126851975,0.10342267641205086
38.154444,8.896394359435114,0.10300501272319382
38.159048,8.875289614838081,0.10263015067220826
38.163632,8.853041066365112,0.10227026566049234
38.168232,8.831569767625643,0.10190881141496896
38.172824,8.808832480296092,0.10156893387727557
38.177424,8.78290815076701,0.10126587427618182
38.182012,8.756861636523784,0.1009666921584482
38.186608,8.74005383618533,0.10060125953991629
38.191208,8.727743208085114,0.1002083835829819
38.195808,8.715188210556605,0.09982558391698691
38.200392,8.70226665888566,0.09945835127103711
38.204984,8.696662767510045,0.09904304161502467
38.209592,8.693634994763226,0.09861756791367135
38.214188,8.687664549245172,0.09821910105160345
38.218788,8.68451459178421,0.09780079936261193
38.223384,8.686106175989776,0.09734502273924363
38.227976,8.686553956319404,0.09690438437346871
38.232568,8.684714128897152,0.09649413386957358
38.237156,8.685572604817844,0.09607112635891357
38.241744,8.691050437690922,0.09561785921195208
38.246332,8.70216924667818,0.09512389609853872
38.250924,8.714920598397958,0.0945906832117883
38.25552,8.728327015137092,0.09406296700091024
38.260112,8.74467610464746,0.09351240660491138
38.264696,8.757305271653092,0.09298631443091822
38.26928,8.774798165039401,0.09242151027610847
38.273872,8.793845557892714,0.09185985176090004
38.278464,8.80610817075591,0.09135373410318331
38.283056,8.81657191472381,0.09085911846007123
38.287648,8.827157843405855,0.09035921263605222
38.292228,8.83888757596384,0.08984472765504135
38.296816,8.847019570731234,0.08934997811524861
38.30142,8.852086708013246,0.08888423783138653
38.306008,8.860629398371705,0.08840894244333353
38.310604,8.86508561208299,0.0879722610658879
38.315196,8.87097414054713,0.08754496862522206
38.319792,8.879438787640073,0.08711105637778357
38.32438,8.89391096498963,0.08662800769371416
38.32898,8.904418850406158,0.08617874672700464
38.333568,8.911984063051447,0.08575201547825462
38.338172,8.920204340716097,0.08533427688138012
38.342764,8.933576855638341,0.08490677630562925
38.347352,8.951690912227116,0.08445329996931758
38.35194,8.96763954577816,0.0840248350817188
38.356536,8.985142678796208,0.08359839700250504
38.361124,8.998803704595373,0.08319781821320495
38.36572,9.014630153432268,0.08277810359432612
38.370312,9.035564698078135,0.0823168574350979
38.374912,9.056621427438145,0.08185251757348282
38.379492,9.079599210407597,0.08137852807918544
38.38408,9.102576993377047,0.08090644048731528
38.388668,9.12723146052765,0.08043469825695221
38.393264,9.154950785163633,0.07993927400297218
38.397856,9.178539491703816,0.07944731852262543
38.402448,9.20261693710058,0.0789346530563714
38.407036,9.223585383563332,0.07841611280984728
38.411624,9.247085807206254,0.0778664754644235
38.416212,9.262902016411413,0.077360525851356
38.420796,9.276142106987777,0.07685657428740615
38.425388,9.292569239763663,0.07632516719492327
38.429996,9.305643004177249,0.07579657495584428
38.434584,9.312787281599737,0.07527449056814044
38.439192,9.315556571498133,0.07476338021918855
38.443776,9.315339047176666,0.07423700065159855
38.448364,9.31393357753063,0.07368977411517748
38.452968,9.311995227579384,0.07312837833689781
38.457556,9.301184717865803,0.0725853708598072
38.462156,9.282034928695104,0.07207161731797528
38.466744,9.257488532838517,0.07156895838518018
38.471336,9.224725042238953,0.07108860075026194
38.475928,9.186809314381794,0.07060834763365229
38.480532,9.14116523063824,0.07012923243030393
38.485108,9.091757082941319,0.06962692624581028
38.489708,9.040550066349105,0.06912364782933465
38.494292,8.989709603899328,0.06860045183254113
38.498888,8.9371924572684,0.06807052571226954
38.50348,8.873393358409114,0.06757866141977455
38.508076,8.81380292091115,0.06704827225964471
38.512664,8.753679603107976,0.0664977067539125
38.51726,8.688159678618911,0.06595250333408721
38.52184,8.621740319682203,0.06540320112345335
38.526424,8.552011733831822,0.06487745214340063
38.531016,8.475864922133757,0.06436138690087208
38.535616,8.4012726099027,0.06384453203469737
38.540204,8.328356981852789,0.06332305127251592
38.5448,8.25711803798403,0.0627971401294167
38.549388,8.188210843315778,0.06227359147483425
38.553976,8.124944624761707,0.06172275388701595
38.558576,8.066053393731725,0.06116306351098978
38.563164,8.016400876606516,0.060572254974490806
38.567756,7.972800031186549,0.05997710631191523
38.572344,7.936150291919473,0.059375244660866716
38.576932,7.903020247177471,0.05880608232688638
38.581528,7.872999201369478,0.05824994333125021
38.586116,7.8403239936671705,0.057728921796758856
38.590704,7.808836731289429,0.05722791641808684
38.5953,7.785200009512228,0.05672243745622413
38.5999,7.761973983326092,0.05623610051162258
38.604496,7.744022379111698,0.0557464760076908
38.609072,7.729301958545458,0.05526594256645574
38.613672,7.714214983836781,0.054798336849690064
38.61826,7.705546234975785,0.05431684421273778
38.62286,7.702929157820031,0.05383619413444192
38.627448,7.70084496096949,0.05337027116545855
38.632048,7.699293644424158,0.052920252625492346
38.63664,7.696354154574595,0.05249187577412205
38.641236,7.697911836963272,0.05205954976766761
38.645828,7.699758030228868,0.05165456635340218
38.650424,7.7011154846378815,0.051271218797967075
38.655032,7.697120473809635,0.05092870915613999
38.659628,7.688139551886568,0.050609197164716214
38.664232,7.675072153316326,0.05031167410297894
38.668824,7.659062081974849,0.05002565621972476
38.673412,7.640109337862137,0.04975034387641888
38.678008,7.6237327123782235,0.04947791373723888
38.682596,7.604946294428284,0.04923216361742273
38.687184,7.582317769259465,0.04899712131553887
38.691772,7.553681713834028,0.04878979184815464
38.696368,7.5196931931713324,0.048621668852470684
38.70096,7.481496011147319,0.04848105558358043
38.705552,7.44088903665728,0.04836819262917608
38.710148,7.395173966358274,0.04828388989985474
38.714736,7.350358330506917,0.04819725928675074
38.719332,7.301578402722529,0.04812691319760375
38.72392,7.246013694948024,0.04807942647404312
38.7285,7.1884057488499336,0.04804275861877951
38.733096,7.123768653333435,0.04804135018963772
38.737684,7.053490581702757,0.04805126153446093
38.742276,6.976794284224399,0.04806717269974352
38.746872,6.8984213025648895,0.04807646205414692
38.75146,6.818127267295939,0.048091547892417305
38.756052,6.7386104817604915,0.0481123688892394
38.760644,6.652675470377363,0.04813935657030099
38.76524,6.56212110204185,0.04817256055008299
38.76982,6.46502632314451,0.048219704672994884
38.77442,6.367643033370251,0.04823255844192164
38.779008,6.2683386899865505,0.04825138129262834
38.783612,6.172876453821734,0.04825653789687363
38.788204,6.074593729599825,0.04827224462617761
38.792792,5.974634321196769,0.04828230714276337
38.797372,5.873242598040852,0.04827180520396517
38.801964,5.770540744846223,0.04822853432262106
38.806568,5.6610541116614765,0.048212294388996095
38.81116,5.549646424867289,0.048205006715492174
38.815752,5.4393825419490405,0.048181613392734336
38.820352,5.328341409297289,0.048148063955395545
38.824932,5.219710069111564,0.04807109078421123
38.82952,5.111078728925836,0.04799231373301009
38.834108,5.007188930406641,0.04789168459535471
38.838704,4.902277512725649,0.047795547110840844
38.843296,4.796344475882866,0.0477074144154714
38.847888,4.687835320411285,0.0476058825708136
38.852484,4.5828017180161496,0.047513256483933085
38.857072,4.479689169230456,0.04740604406179015
38.861664,4.381440346825437,0.04726523924439211
38.866252,4.282824970277982,0.047144462018277274
38.870844,4.184331778444673,0.04700707569974144
38.875436,4.079420360763684,0.046870818879188536
38.880024,3.9747533125109853,0.04671229807623421
38.884616,3.8717629484394376,0.046563265955177575
38.889204,3.7687725843678885,0.046401423273121224
38.8938,3.66607073117326,0.04629174680004333
38.898404,3.5643904971404248,0.04616807586224421
38.902996,3.4628324478217354,0.0460283974629504
38.9076,3.3620516482365472,0.04589291743523332
38.912196,3.258450360594271,0.045757817489787835
38.9168,3.15076259630482,0.045661936135231035
38.921388,3.042952647301224,0.045580470768051974
38.925984,2.93309945997404,0.04551372586905257
38.930576,2.8204257845897676,0.04545991738552261
38.935176,2.709795347529082,0.04536463643747447
38.93976,2.598920541040105,0.045298370535784956
38.94436,2.4882901039794194,0.04518381564444952
38.948956,2.3793363510998833,0.04507327208338956
38.953548,2.2662961215731734,0.04503588904233503
38.958136,2.1522342728846704,0.04502451406748797
38.962732,2.0379280547678755,0.04505778940086359
38.967332,1.9274639438699632,0.04499605276790232
38.971928,1.8208419401909341,0.04483075515184574
38.97652,1.71548592510199,0.042566672657626745
38.981112,1.6156487014130783,0.040323704971474306
38.985692,1.5151564127048103,0.03805499234525798
38.990276,1.4154413737300444,0.0357917557256041
38.994868,1.3183024533840768,0.03353551932022834
38.99946,1.2201419138763154,0.03128474176520251
39.004052,1.1234136891214126,0.02904362292741433
39.00864,1.028239963833514,0.026793416997046522
39.013232,0.9339656729932634,0.024530186383796018
39.017812,0.8413680663341628,0.022273514715198853
39.022404,0.7589086080274801,0.02000597242809317
39.027,0.6790252683495951,0.017771562894970287
39.031588,0.604010920233715,0.015521365399506118
39.036184,0.5342657289082479,0.013310015480281219
39.040772,0.4672241061070528,0.011108738343391917
39.04536,0.406722893867684,0.008859654487234888
39.049956,0.351740473028348,0.006587557671452651
39.054548,0.30227684358904483,0.004287312659302233
39.059144,0.25706601695968956,0.002088947631770133
39.063732,0.2143091242449865,0.0
39.068328,0.17490559989258347,0.0
39.07292,0.13615714055953698,0.0
39.077516,0.1028052879123776,0.0
39.082108,0.07407279221760314,0.0
39.0867,0.04906021902756575,0.0
39.091292,0.029566437237561142,0.0
39.095888,0.018406669723349908,0.0
39.100472,0.01877322386578692,0.0
39.105068,0.024780754122402382,0.0
39.109668,0.03270933798845922,0.0
39.114264,0.03781743379742683,0.0
39.118852,0.04754488655877937,0.0
39.123448,0.059843192767601174,0.0
39.128028,0.06932627610066237,0.0
39.132616,0.08162458230948416,0.0
39.137204,0.09494450768009947,0.0
39.1418,0.10838661776486046,0.0
39.146384,0.12464921590671064,0.0
39.150972,0.14091181404856085,0.0
39.155568,0.15549772800926104,0.0
39.160148,0.17278194531290478,0.0
39.16474,0.19108778177834204,0.0
39.169324,0.21221410630086854,0.0
39.173916,0.23423986527104285,0.0
39.178504,0.2590861122983064,0.0
39.1831,0.2848317937732178,0.0
39.187688,0.3069850026388665,0.0
39.192284,0.32235343151439744,0.0
39.196876,0.33682242594228057,0.0
39.201468,0.3529681045513137,0.0
39.206048,0.3689915984462012,0.0
39.210652,0.38015136596041255,0.0
39.215232,0.38542578793215393,0.0
39.219836,0.3914774596373976,0.0
39.22442,0.3944642738572607,0.0
39.229004,0.39924995697241944,0.0
39.233592,0.4037912706592868,0.0
39.238188,0.4064115307367128,0.0
39.24278,0.4091539755282846,0.0
39.247368,0.4135731045010063,0.0
39.251956,0.4173371684543716,0.0
39.256544,0.4181585596365019,0.0
39.261132,0.41207298611436893,0.0
