Time,Force,Position
42.136416,0.14055787101278558,0.0
42.140996,0.11847959212382367,0.0
42.145596,0.1031892065138102,0.0
42.150188,0.0885538859231532,0.0
42.15478,0.07649468396129411,0.0
42.159364,0.06406581456816726,0.0
42.163964,0.053191444642044734,0.0
42.168548,0.04693643166830714,0.0
42.173144,0.0415808531422174,0.0
42.177736,0.03904576267321689,0.0
42.182328,0.03741010665186422,0.0
42.18692,0.03957864297842773,0.0
42.191508,0.03884242140472292,0.0
42.196096,0.03708458066922458,0.0
42.200684,0.03262843659078269,0.0
42.205272,0.02612905418875376,0.0
42.209864,0.018852422053222642,0.0
42.214456,0.010554170755898007,0.0
42.21904,0.007896895572751821,0.0
42.223632,0.008921628023376128,0.0
42.228224,0.01276684853108966,0.0
42.232816,0.014568830715216145,0.0
42.237396,0.012278109674506973,0.0
42.241984,0.011009007795591325,0.0
42.24658,0.008840471469027824,0.0
42.251164,0.008840471469027824,0.0
42.25576,0.008840471469027826,0.0
42.260356,0.008840471469027826,0.0
42.264948,0.009376465063069446,0.0
42.269552,0.009376465063069448,0.0
42.274132,0.009376465063069448,0.0
42.27874,0.007207928736505945,0.0
42.283324,0.007207928736505945,0.0
42.287924,0.007207928736505945,0.0
42.292516,0.010439042751818109,0.0
42.29712,0.026693413888742922,0.0
42.301708,0.06341088715675453,0.0
42.306308,0.1130294328322331,0.012288904027973568
42.310892,0.1815565811717941,0.023192751792773143
42.315488,0.26154937387713273,0.033947917843399435
42.32008,0.3544432389899383,0.04438356403355048
42.324668,0.468411129804559,0.0542754907948967
42.329264,0.6035003010584539,0.06383951565314025
42.333864,0.7599520088910832,0.07304057360054311
42.338456,0.9367446341406539,0.08201542925377192
42.34304,1.1359214151307526,0.09072413162705296
42.347632,1.352740810194849,0.0993731042088361
42.35222,1.5872028193329428,0.10797133600048649
42.356808,1.8396708833986406,0.11650404573993887
42.3614,2.1160807159607016,0.12485053310627095
42.365988,2.4107440861674885,0.1331269123766509
42.370568,2.720185440942556,0.14139991608873478
42.375168,3.0519226685608953,0.14947371459687983
42.379756,3.3979389022591926,0.15745245355855536
42.38434,3.756058549000822,0.16523495297020913
42.388936,4.103320361658569,0.17296811134433698
42.393524,4.427420768842287,0.1807411597661518
42.39812,4.740008276922769,0.1761815947814081
42.4027,5.029845075120288,0.1730759139161049
42.407292,5.31258810318729,0.17003881561706144
42.411892,5.579976124932172,0.16729863922269286
42.416484,5.828333359298827,0.16510218225712917
42.421088,6.0570827845334145,0.16320906513378317
42.425684,6.265080596759997,0.16164136403459103
42.430292,6.451671730959214,0.16028065930104238
42.434876,6.611870276036248,0.15922098120496725
42.439476,6.755814380343517,0.15817762597438448
42.444056,6.87864031750034,0.1572298010692247
42.44866,6.982269141116161,0.1563454067097579
42.453252,7.061959309524451,0.15563745772217547
42.457852,7.123640309716307,0.1549842770316726
42.46244,7.168089391425228,0.15435886881527253
42.467036,7.187422112233788,0.15398079410333718
42.471616,7.195662869161917,0.15362649598804382
42.476212,7.19061233735499,0.1534267237279243
42.480808,7.18454018638627,0.1532479943963115
42.485404,7.183453946512373,0.15297331865952157
42.489996,7.182367706638472,0.15269956732134513
42.49458,7.189332235344776,0.15227009110821452
42.499168,7.191921776526985,0.15190114254470183
42.503752,7.1954107521568424,0.1515206651618566
42.508344,7.200410085805076,0.1510917232651413
42.512936,7.2059422997585205,0.15067279072825535
42.517532,7.212906828464824,0.15025344184718653
42.52212,7.220814933067403,0.1498605203142869
42.52672,7.23465252466108,0.14940229613089004
42.531308,7.250166800435908,0.1489317624511766
42.535904,7.275164159543796,0.14831463944029566
42.540496,7.300938768385186,0.14769265416878427
42.545084,7.327368442245934,0.14707349657361185
42.54968,7.3548197352684745,0.14643807835162256
42.55426,7.387667634976902,0.14573252424663624
42.558848,7.4244798266183585,0.14495465363964874
42.563444,7.4570833568984956,0.1442654092771899
42.568036,7.489809071892777,0.1435764893484336
42.572632,7.521513167725265,0.14290907800427716
42.57722,7.553750143862965,0.14226008939399776
42.58182,7.5865200003058755,0.14162686735920993
42.5864,7.615447749529902,0.14106050409265386
42.591,7.642698814572779,0.140510405811818
42.595584,7.670482759920867,0.13997441667779478
42.600188,7.696756347250579,0.13948689205764164
42.604772,7.723807184313793,0.13899735296988752
42.609368,7.749059152481712,0.1385325403559516
42.61396,7.774677674792067,0.13804728186944049
42.618556,7.799518947368921,0.1375694747313109
42.623144,7.8233386007839805,0.1371148911954142
42.627732,7.840373474208922,0.13676519975061682
42.63232,7.856875467328655,0.13640588658910457
42.636908,7.874643449038471,0.13601780823373374
42.6415,7.893310865195937,0.13562295799617968
42.646096,7.911323216334044,0.1352294596163697
42.650684,7.930601556062237,0.13480988886882475
42.65528,7.953555676846539,0.13431067688839876
42.659876,7.97483311344969,0.1338276416858021
42.664456,7.993778800852335,0.1333526025883234
42.669056,8.008716054873322,0.13290119495543395
42.673644,8.021321559693805,0.13246025099443218
42.67824,8.033027630066638,0.1320291061732882
42.682836,8.046121873743703,0.1315632304446438
42.687416,8.056229303200903,0.13110309095345052
42.692024,8.065926037067038,0.13062625937588773
42.696616,8.076355879218049,0.13011315137172783
42.701224,8.081511299397318,0.12964585650549387
42.705812,8.08997594649026,0.12912160746349546
42.7104,8.095986659668545,0.12861197962828205
42.714996,8.099665623646326,0.1281116458468094
42.719588,8.103711141766544,0.12759131483095176
42.724192,8.112498201553292,0.12701677169649273
42.728772,8.119486392444744,0.12646111242597832
42.733372,8.128762191088073,0.12586848022672278
42.73796,8.13509531696017,0.12531579120457212
42.74256,8.137464150899236,0.12481679437336098
42.747144,8.136401573210486,0.12438182107913429
42.751736,8.13047526914106,0.12400585445699426
42.756332,8.133787678976404,0.12353603825043483
42.76092,8.140575641888192,0.12304039520274969
42.765512,8.151860777038221,0.12250700120210188
42.770108,8.1648225963694,0.1219644374645122
42.774696,8.181015599348731,0.1214129138016697
42.779288,8.19876310179507,0.12085790749478886
42.78388,8.220108342031997,0.12027481451489554
42.788468,8.239043789802901,0.11973984200388395
42.793056,8.267217951478576,0.11911551118417252
42.797656,8.29322669011652,0.11853146646768761
42.802244,8.322955351259202,0.11791371926238092
42.806832,8.352439642973586,0.11730859806394858
42.811428,8.385888226621004,0.11666100465839481
42.816016,8.412552030278304,0.11609216941353351
42.820616,8.4410147028309,0.1155109983886322
42.825196,8.463592029841024,0.11500092407938674
42.82978,8.487679714869527,0.11445555203766791
42.834368,8.514055007649908,0.11387280821760114
42.838948,8.543861712058105,0.11323667071219438
42.843544,8.58466185781774,0.1124756324515168
42.84814,8.616223289672606,0.1118026772962179
42.852728,8.647374025936406,0.11111980218314332
42.857324,8.675415763266198,0.1104474924177307
42.861916,8.705334412756802,0.10972927480386485
42.866508,8.729201390542162,0.10904729902816748
42.8711,8.755355976079402,0.10833453825413943
42.875692,8.776358324359046,0.10765013888729995
42.88028,8.79682779233348,0.10695402878320329
42.884876,8.813821707231464,0.10628231504510632
42.889468,8.828239503500653,0.10562391310017055
42.894064,8.840858430874547,0.10498061120878405
42.898656,8.854743346838525,0.10431562830995438
42.903256,8.865807774745416,0.1036778743793634
42.907836,8.88287973290892,0.10298018315544964
42.912424,8.89839719160542,0.10228472528340166
42.917016,8.912360150834916,0.10158616236034301
42.921604,8.925301490902617,0.10090020577862532
42.926192,8.937343396522673,0.10022103387892238
42.93078,8.944643760476197,0.09958100651642535
42.93536,8.942993921401872,0.09903015653508303
42.939956,8.93954521343225,0.09848601267649468
42.94454,8.934830516872541,0.09796461275390826
42.949132,8.927950397275104,0.09746933442797687
42.953728,8.91481837799276,0.09704188081179108
42.958316,8.903851781748145,0.0965863525077823
42.962912,8.888265828551143,0.09616059683737908
42.9675,8.877543601734821,0.09569335113646533
42.972088,8.872706720460968,0.09517679180700282
42.97668,8.866070970291823,0.09466919375367719
42.981264,8.861600643160404,0.09413563265064363
42.985852,8.854798566828482,0.09359891592694097
42.990456,8.84824085992485,0.09305199860799201
42.995044,8.84000646884007,0.09250812114583384
42.999656,8.82841870939299,0.09197250429684632
43.004232,8.819118557697786,0.09140738779797532
43.008836,8.816603185992703,0.09079173513154085
43.01342,8.81600886789706,0.09016351293418445
43.018012,8.819256657020297,0.08951118385508944
43.022596,8.824669869181271,0.08883398383129007
43.027196,8.83351449297006,0.088113066135884
43.031792,8.85016551591076,0.08733536379281256
43.036388,8.862441551327366,0.08656979111597149
43.040968,8.872019283401029,0.08581179216226723
43.045564,8.886582926569513,0.08501281150730115
43.050168,8.901801634757355,0.08422240379962619
43.05476,8.920984634878229,0.08340277216017726
43.059348,8.936081158351925,0.08262158508117812
43.063944,8.944515086549647,0.08188429053543432
43.068536,8.955769502804461,0.08113267831806181
43.07312,8.962038007964454,0.08041679535331674
43.077708,8.968839393429658,0.07971110009999016
43.082304,8.969633248638246,0.079048458562833
43.0869,8.970060549704396,0.07839977625094512
43.091488,8.966034819980933,0.07779774742882875
43.096084,8.956656625020212,0.07724726675387389
43.100672,8.942170334250525,0.07673916591484815
43.105268,8.926662424319042,0.07623954882136667
43.109856,8.904369734397445,0.07578064632449107
43.114452,8.879789436723968,0.07534587247884045
43.119048,8.857418703536851,0.0749230676492725
43.123636,8.831738743436064,0.0745341143660075
43.128248,8.810189401431078,0.07414447722873112
43.132828,8.79595771972142,0.07372693221880122
43.13742,8.780582234135823,0.07332224508635189
43.142012,8.767782867179022,0.07291577694117597
43.146604,8.753350957489703,0.07254211664249521
43.151196,8.743416220038622,0.07215650112032225
43.155788,8.73683485094984,0.07177071767579503
43.160384,8.731807981328064,0.07139198862037296
43.164964,8.736019825611056,0.07098129580833037
43.169564,8.743707222970494,0.07056750936968598
43.174148,8.761654953396498,0.0701156836699618
43.178748,8.784222040774882,0.06965031013454483
43.183336,8.81435115787689,0.06915369991877593
43.187928,8.851920119988371,0.06863262096234596
43.192508,8.891287950995148,0.06810847144491354
43.197104,8.928368174250044,0.06760908750084667
43.201692,8.96916832000968,0.06709701164167656
43.206288,9.017286126064644,0.06656846961255246
43.210876,9.056942467948339,0.06607221046605477
43.215464,9.09479994093674,0.06558077615614964
43.220056,9.135722271410522,0.06507342537754376
43.224648,9.174479178846571,0.06458905099145874
43.22924,9.21004904408309,0.06412924674261729
43.233832,9.242798421262526,0.06368306086202265
43.238428,9.277713221479692,0.0632223267735158
43.243012,9.308785914477971,0.06278037982234362
43.247604,9.337038119419164,0.06234883970584102
43.252184,9.358749913798531,0.0619383645513369
43.256772,9.37367692818778,0.061559492465422555
43.261384,9.387582323415238,0.061188787956504676
43.265972,9.39878941529975,0.060826056866786944
43.270568,9.404355531070085,0.06048103713306433
43.275152,9.40620172433568,0.06014682828411505
43.27974,9.40432799509654,0.05982361673175764
43.284344,9.401432646695607,0.0595060635438554
43.288932,9.403645394103641,0.059160659945303444
43.293528,9.408434260140472,0.0588182136708703
43.298116,9.40758215006313,0.05849267065558426
43.30272,9.415191504157049,0.05814410198283787
43.307304,9.425499161593912,0.057793032709113235
43.311904,9.433641395993044,0.05745952025585719
43.316492,9.440229130925172,0.057119348365543575
43.3211,9.451025527218619,0.05675317495071899
43.325692,9.462843542673859,0.0563829498821523
43.330288,9.468898397300775,0.05603093394601709
43.334872,9.472499318013039,0.05567097037965465
43.339468,9.477244042601242,0.05530077156771159
43.344056,9.484564885818246,0.054931643269283424
43.348652,9.493151717625333,0.05454777706221675
43.353244,9.49838518107012,0.05415730095200599
43.35784,9.49569006064885,0.05379774345103575
43.362432,9.494915993837017,0.05343137324720957
43.367028,9.493120307863396,0.053069344252580086
43.371616,9.48556146106145,0.052722232207719114
43.376204,9.48004585258309,0.05236509911824175
43.380796,9.46750109468632,0.05203824027686888
43.385392,9.44853811094187,0.051718348248466675
43.389988,9.424955770245036,0.05140259335677385
43.394568,9.391768161500995,0.05111188265368369
43.399168,9.353839011090422,0.05083047629506206
43.40376,9.309613819546316,0.050548987020731725
43.40834,9.255538990526711,0.050299480815252304
43.412936,9.196478250412284,0.05006735998035819
43.41752,9.126790623088857,0.04986326568628642
43.422128,9.055714822461198,0.04967613992750288
43.426716,8.98300647910102,0.04951515406199322
43.431304,8.903146801608287,0.049387305015369996
43.435904,8.817646148001373,0.04926881853078529
43.440488,8.729980071356728,0.04916176876429663
43.445084,8.638105333350762,0.04907684736189461
43.449676,8.546474964773088,0.04897990845086824
43.454276,8.448959250652944,0.04890128523693464
43.45886,8.344658756542684,0.04884228806214586
43.46346,8.237537774375333,0.0487875862998149
43.468052,8.119789904998981,0.04876291580824738
43.472652,7.998322113117894,0.04874324449158206
43.477244,7.874566713484928,0.04874396754946355
43.48184,7.749667509976022,0.04875441514474094
43.486424,7.624768306467115,0.048765312837697326
43.491012,7.497825864634623,0.048786323409705304
43.495604,7.367696380602606,0.04882970337534502
43.500188,7.247172164617794,0.048842265425573524
43.50478,7.1235830911476,0.04887245145827222
43.509376,7.000893452125055,0.04890577000330669
43.513964,6.875627694473714,0.04893520155526708
43.518552,6.7485630679270745,0.04896808392948331
43.523144,6.62558491802761,0.04897524976202319
43.527732,6.501951703108788,0.04896739147112406
43.532324,6.3698570240187,0.048980032143846865
43.536908,6.23584129131917,0.04900222776410555
43.541504,6.100803939457847,0.04902792750556377
43.546096,5.964867153148875,0.049054835056118073
43.550676,5.830851420449345,0.04907685281143527
43.555272,5.700433425540407,0.0490992116301201
43.559864,5.56911599618382,0.04912714890543971
43.564464,5.434978078770144,0.04916803427580406
43.56904,5.295443554670583,0.049217679551876746
43.57362799999999,5.15308854251393,0.04928285105057159
43.57823199999999,5.010611345643133,0.04936313746068764
43.58281999999999,4.867356899038833,0.04943511224050202
43.58742399999999,4.726145690758121,0.049490809630478236
43.592004,4.575451399144346,0.04958835990242521
43.5966,4.422425358330066,0.049657725306665165
43.601188,4.271442555839373,0.049708779535370375
43.605788,4.1186608844533845,0.04976601181251071
43.610368,3.964080344172099,0.04983941310214743
43.614968,3.803981012490781,0.04992012686192515
43.619564,3.643637311381173,0.05002440375003759
43.62415599999999,3.4870135327763006,0.050129362855664175
43.628744000000005,3.3305119388855746,0.05023817150278637
43.63333599999999,3.1690244339000264,0.05045691947146862
43.637936,3.006759679180976,0.05067531359710813
43.64252799999999,2.841918805833128,0.050897801154127106
43.647108,2.6745018138564816,0.051117317965084196
43.651692,2.512725797994014,0.051307291633371784
43.65628,2.354669704636284,0.051520103984520796
43.660872000000005,2.2013551529450837,0.049018011497846216
43.665472,2.053559392653917,0.04649935986806012
43.67005199999999,1.9061301865051867,0.04396451965627457
43.674644,1.7537150692616346,0.04143703649260684
43.679224,1.6000339634279974,0.03891746309879067
43.683816,1.4537927026038349,0.03637650760485539
43.688404,1.31348092877077,0.033855774822867925
43.692992,1.1740654760965226,0.03134466570917095
43.697584,1.0436443678987533,0.028825828565216864
43.702172,0.9214403544439601,0.026281810231875667
43.70676,0.8081085007515001,0.023744910443371077
43.711348,0.7019721226402228,0.021198665180631293
43.715948,0.6030312201101283,0.018641715144722626
43.72055199999999,0.5121852276088645,0.016070695290773138
43.72514399999999,0.4324990026218122,0.013396797381321764
43.729748,0.36078550294944456,0.010721528087263416
43.734328,0.29794416303940985,0.008040566336439691
43.738928,0.24217611399641228,0.005361377935860301
43.743508,0.1907830524775083,0.0026990660953187845
43.748108,0.1456860320921393,0.0
43.7527,0.10676286812615952,0.0
43.757296,0.07143744195077119,0.0
43.76188799999999,0.04216368748062648,0.0
43.76648,0.024049700524692998,0.0
43.771080000000005,0.013375558578233665,0.0
43.77567199999999,0.005277535260572219,0.0
43.780272,0.0,0.0
43.784872,0.0,0.0
43.789464,0.0,0.0
43.794056000000005,0.0,0.0
43.798636,0.0,0.0
43.80322399999999,0.0,0.0
43.80781199999999,0.0,0.0
43.812396,0.0,0.0
43.816988,0.0,0.0
43.821576,0.0,0.0
43.826168,0.0,0.0
43.83074799999999,0.0,0.0
43.83533599999999,0.0,0.0
43.839944,0.0,0.0
43.844532,0.0,0.0
43.849128,0.0,0.0
43.853712,0.0,0.0
43.858304,0.0,0.0
43.8629,0.0,0.0
43.86749199999999,0.0,0.0
43.87209599999999,0.0,0.0
43.876676,0.0,0.0
43.88127599999999,0.0,0.0
43.88586,0.0,0.0
43.89046,0.0,0.0
43.89504399999999,0.0,0.0
43.899644,0.0,0.0
43.904236,0.0,0.0
43.908832,0.0,0.0
43.91341599999999,0.0,0.0
43.918012,0.0,0.0
43.9226,0.0,0.0
43.927196,0.0,0.0
43.931784,0.0,0.0
43.936368,0.0,0.0
43.94095599999999,0.0,0.0
43.945556,0.0,0.0
43.950144,0.0,0.0
43.95472,0.0,0.0
43.959316,0.0,0.0
43.96390399999999,0.0,0.0
43.968488,0.0,0.0
43.973076,0.0,0.0
43.977664,0.0005359935940416209,0.0
43.98226,0.0005359935940416209,0.0
43.986848,0.002093606349876765,0.0
43.991436,0.002873969372209728,0.0
43.99603199999999,0.004553766842190543,0.0
44.00061999999999,0.009054052369260582,0.0
44.00521199999999,0.014453772343978476,0.0
44.009792,0.019198427299339856,0.0
44.014392,0.02586413586414261,0.0
44.018984,0.032774213857236716,0.0
44.02358399999999,0.04070591101212434,0.0
44.02817199999999,0.044795500948129216,0.0
44.032768,0.04684185256054704,0.0
44.037356,0.04684185256054704,0.0
44.041944,0.04684185256054704,0.0
44.046536,0.04684185256054704,0.0
44.051128,0.04684185256054704,0.0
44.055728,0.04684185256054704,0.0
44.06032799999999,0.04684185256054704,0.0
44.064916,0.04684185256054704,0.0
44.069516,0.04630585896650542,0.0
44.074096,0.04630585896650543,0.0
44.07868,0.044748246210670285,0.0
44.083268,0.04396788318833732,0.0
44.08786,0.0422880857183565,0.0
44.09245599999999,0.03778780019128646,0.0
44.097044,0.03238808021656857,0.0
44.10164,0.02764342526120719,0.0
44.106232,0.02097771669640443,0.0
44.110824,0.01406763870331033,0.0
44.115412,0.0061359415484227055,0.0
44.12,0.0020463516124178296,0.0
44.124616,0.0,0.0
44.129204,0.0,0.0
44.133796,0.0,0.0
44.138384,0.0,0.0
44.14298399999999,0.0,0.0
44.147572,0.00036966743126779747,0.0
44.15216399999999,0.0003696674312677974,0.0
44.15676,0.0003696674312677974,0.0
44.161348,0.0004949654342442522,0.0
44.165944,0.0004980787230750366,0.0
44.17053599999999,0.0004980787230750366,0.0
44.175136,0.0004980787230750366,0.0
44.17971599999999,0.0004980787230750366,0.0
44.184316,0.0004980787230750366,0.0
44.18890799999999,0.0004980787230750366,0.0
44.193504,0.0004980787230750366,0.0
44.19808799999999,0.0004980787230750366,0.0
44.202684,0.0004980787230750366,0.0
44.20728,0.0004980787230750366,0.0
44.21188,0.0004980787230750366,0.0
44.216472,0.0004980787230750367,0.0
44.22106399999999,0.0004980787230750367,0.0
44.225652,0.0004980787230750367,0.0
44.23024,0.0004980787230750367,0.0
