Time,Force,Position
37.509904,0.39118064525017904,0.010480427737239855
37.514508,0.32612781947241465,0.007938396055095725
37.519104000000006,0.2718393399197347,0.005293742451798855
37.5237,0.221177465304336,0.002711095565016726
37.528304,0.17960325273287162,0.0
37.532892,0.14126022380956169,0.0
37.53749199999999,0.11726400459998919,0.0
37.542088,0.09710989260929943,0.0
37.546684000000006,0.08284112616107947,0.0
37.551272,0.07073778275059223,0.0
37.555872,0.06439760016842912,0.0
37.56046,0.054215310367383265,0.0
37.565064,0.0494296272522245,0.0
37.569652,0.058457873545592384,0.0
37.574256,0.0704440669121335,0.0
37.578848,0.08230807556452892,0.0
37.58344399999999,0.09159596558812648,0.0
37.588028,0.09614231394519343,0.0
37.59262,0.09966704314046686,0.0
37.59722,0.10127071872629892,0.0
37.60182,0.10352945933148748,0.0
37.606412,0.1035294593314875,0.0
37.611008000000005,0.10708305567345075,0.0
37.615596,0.11036341544043282,0.0
37.620184,0.10929765483001115,0.0
37.624776,0.1115411211332614,0.0
37.629372,0.10515176243227059,0.0
37.633964,0.09761859985534058,0.0
37.638556,0.0899632525642649,0.0
37.64315199999999,0.08500620861613281,0.0
37.647732,0.07800592634441364,0.0
37.652328,0.0738261321297837,0.0
37.656916,0.06784746901985805,0.0
37.661504,0.05586127565331694,0.0
37.666108,0.058933189848764195,0.0
37.670696,0.07952553340406336,0.0
37.675292000000006,0.1240565321668951,0.010155149959570437
37.679888,0.19595759776507693,0.019191718209139272
37.684492,0.2875003743122152,0.027786847136389854
37.689088000000005,0.3990955573993752,0.03618456356356824
37.693676,0.5262459747883176,0.04454247744372057
37.69828,0.6746078768951591,0.052858622666631536
37.702872000000006,0.8368432944524334,0.061174267890234946
37.707468,1.0210963136077988,0.069359341572732
37.712048,1.2294101726848425,0.07741358982434388
37.716648,1.4551222764075922,0.08540497717657416
37.721236,1.703267711989698,0.09333225848016885
37.725836,1.973430749169895,0.10118085666705107
37.73042,2.2657335726623287,0.10895322005200227
37.735024,2.5795211174476433,0.1166578247367216
37.739616000000005,2.91528212238242,0.12427078432253102
37.744212,3.2723615224473037,0.13180105215692312
37.748796000000006,3.6491606767266616,0.1392294138399749
37.753392,4.041504825676062,0.1465651990911158
37.75798,4.422510789568212,0.15384933307133639
37.762576,4.78852830128068,0.16107766228977993
37.767164,5.129829908052113,0.1581812334723503
37.771752,5.446826305473577,0.156418776602254
37.77634,5.74597986084138,0.1550934563922656
37.78092,6.025980444116809,0.15398352683740169
37.785516,6.291691781680542,0.15288433409939006
37.790108,6.536729549501786,0.15180560630447515
37.794704,6.762892616475836,0.15069485167507046
37.799292,6.965072886793726,0.14971777166564412
37.803892,7.144702675208314,0.14885928639482537
37.808472,7.304358100348397,0.14804716750147306
37.813064,7.441096489442742,0.14732297208644235
37.81766,7.554873701042719,0.14665110774966628
37.822248,7.6467113543101215,0.14600395256718832
37.826844,7.712400787883631,0.14544954519149184
37.831432,7.749165655154786,0.14506419995135467
37.83602,7.759582074752383,0.1448105514066837
37.840616,7.74909079481094,0.14464605904215866
37.84520800000001,7.7200677059795915,0.14458533324269368
37.84981199999999,7.686381118747229,0.14454852604277824
37.854408,7.6501184128860675,0.14453508052540168
37.859004000000006,7.618719433405584,0.14444247408733277
37.863584,7.58870862722933,0.14430946771184736
37.86818400000001,7.555344452690776,0.14420881710359948
37.872776,7.525656059208332,0.14401505659406869
37.877368,7.495679154848966,0.14379497979349384
37.881952000000005,7.4688112494236085,0.1435557945986868
37.886548,7.43953355153223,0.14337275850142123
37.891132000000006,7.412831972269648,0.1431614659712909
37.89572,7.38792926190236,0.142925900627973
37.900308,7.364170355411013,0.14266318718437615
37.904904,7.346951859481491,0.14230753325903706
37.90949199999999,7.32834519024774,0.14198943672263017
37.914088,7.30798379356732,0.14173041587194515
37.918676,7.291875199696849,0.141428415558237
37.923260000000006,7.28524968915944,0.1409838909225803
37.927852,7.2881072619550915,0.14039809043304075
37.932436,7.295217637560691,0.13977300046557076
37.937032,7.308624054299825,0.13907170008249548
37.94161999999999,7.32256335134417,0.13838044188738385
37.946216,7.332538356455488,0.1377508923299407
37.950804,7.34239117685266,0.13713214597021106
37.955392,7.35392068143098,0.13650072462263652
37.959996,7.372357150713565,0.13576120615728116
37.964588,7.385807708901328,0.13510509482704666
37.969196,7.39619340960371,0.13450305032284499
37.973784,7.406579110306091,0.13390433665440166
37.978372,7.422605787122652,0.1332289989959202
37.98296799999999,7.4418636475873665,0.13253747745270553
37.98756,7.459977704176142,0.131871464095658
37.992164,7.475681968298894,0.13126077037407183
37.996744,7.489465178812204,0.1306830346911628
38.001352,7.507867746277898,0.13004920270613723
38.005936,7.530234605676622,0.1293568451972425
38.010536,7.554155964542351,0.12866052164614916
38.01512399999999,7.576689150103848,0.12800747828984413
38.019724,7.593869870428086,0.12745536517563288
38.024316000000006,7.603732930456997,0.12698586471543016
38.028908,7.607955014371728,0.12658797965728277
38.033504,7.612832163305818,0.12619438292655027
38.038096,7.624782603106941,0.1257317941466253
38.04267599999999,7.637876846784007,0.12525031122599653
38.047272,7.650193840727569,0.12477370759939642
38.05186,7.658546542738104,0.12435751438192068
38.056456,7.671518601701022,0.12389037164112257
38.061036,7.68539009511159,0.12341330754954563
38.06562,7.697340534912714,0.12296205738890102
38.070212000000005,7.707369921104398,0.12253785228606377
38.074796,7.713146504486134,0.12214530560970877
38.079388,7.718023653420222,0.12176053071964682
38.083976,7.726332213982126,0.12131049496029904
38.088576,7.731942471201089,0.12088669565837575
38.093156,7.736775478686548,0.12046745813304406
38.09775199999999,7.740586867010215,0.12006560114213703
38.102340000000005,7.742965940581023,0.119661342492144
38.106928,7.745833753008412,0.11923284844080173
38.111524,7.748413054558883,0.11877892683526928
38.116112,7.7578993208136175,0.11823492749271645
38.120704,7.771227694287236,0.11764543290247131
38.1253,7.783901002741497,0.11705140869438711
38.129888,7.794364746709396,0.11645939901770459
38.13448399999999,7.798943145134826,0.11594039206512517
38.13908,7.802133370256025,0.11545509636090445
38.143676000000006,7.803646911196075,0.11497852226181066
38.148264000000005,7.803361583240827,0.11451920107723826
38.15285599999999,7.806018928056816,0.11402529430196705
38.157444000000005,7.809575707320452,0.11352379038862605
38.162048000000006,7.81390973631759,0.11302249401442369
38.16664,7.82184150310532,0.11249227627533848
38.171236,7.8332488229694945,0.11193945028434142
38.175828,7.844578099568153,0.11143303796609012
38.180424,7.85733969091967,0.1109304178749402
38.18502,7.8685909242528105,0.1104681269588408
38.189616,7.875755680938776,0.11005943596879497
38.194212,7.884230567663457,0.1096622402030153
38.1988,7.893360519407492,0.10927333931547313
38.203388,7.907642708409124,0.10885711817133872
38.207984,7.9229906580211775,0.1084691180010422
38.212576000000006,7.939648737671944,0.10809544446851845
38.217164,7.960559620132658,0.1077035478428604
38.221752,7.98547893597503,0.1073079932038301
38.226348,8.01657210823679,0.10687306766699263
38.230944,8.051629572431578,0.10639724377510879
38.235532,8.089018785826873,0.10592102335976064
38.240128000000006,8.126818694813233,0.10546462363498633
38.244716,8.16053212715242,0.10505958971304499
38.249304,8.197066047548695,0.10463412926099153
38.253896000000005,8.23359996794497,0.10421210734951172
38.258476,8.268990084465306,0.10381208795609388
38.26308,8.306545624023375,0.10338891446168372
38.267664,8.342135968523376,0.10295055009801293
38.272252,8.378092867165812,0.10249629367363025
38.276848,8.41568230854077,0.10200403484818499
38.28143600000001,8.458379845724698,0.10145454343509645
38.286032,8.502465556212854,0.1008810929632886
38.290624,8.541809725034478,0.1003491605979683
38.29521999999999,8.575879471884365,0.09984933979163309
38.2998,8.606718035086093,0.09935909202479011
38.3044,8.635347033801462,0.09886634749142822
38.308984,8.661888652744617,0.09836733246802681
38.31358,8.68454402302026,0.09787214718430223
38.318172,8.705112013523689,0.09736812806923814
38.322768,8.721060647074731,0.09689704556807945
38.32734799999999,8.735821335301207,0.09640964603590946
38.331944,8.74951626291726,0.09590020064852937
38.336532,8.76921872078993,0.09533615364056656
38.341128000000005,8.783524571976713,0.09480296655093472
38.34571999999999,8.793577620353547,0.09428249372900661
38.350304,8.804363777015256,0.0937319233454357
38.354896,8.808853892543429,0.09321620117384669
38.359488000000006,8.816408865556983,0.09267237536974968
38.364076,8.828172499931856,0.09208783116255556
38.36866800000001,8.839036699859083,0.09151015990559212
38.373264,8.848346400319304,0.09093352701093943
38.377844,8.855202166864874,0.090361273513027
38.382428,8.866266594771764,0.08974574544643593
38.38702,8.878352641840445,0.08912009881892015
38.391608,8.88900637415627,0.08848723763205428
38.39621999999999,8.899005041452737,0.08784902666139283
38.400812,8.905161601530322,0.08723770443555527
38.405404,8.906454435227232,0.08666011372156625
38.409988000000006,8.907214388618929,0.08607137807947064
38.414576,8.908829635009647,0.08544457319869526
38.419184,8.911588685276303,0.08480422214038748
38.423776,8.915613724133044,0.08414541538897496
38.428372,8.913831460712833,0.08349344628008261
38.43295199999999,8.914214620330355,0.08281702907568594
38.437552,8.919461506328554,0.08210667536970169
38.442136,8.92086628510787,0.08142077170088086
38.446732,8.924558671639062,0.08070595053835201
38.451316,8.919667409284843,0.08003976714154278
38.45592,8.906969747778714,0.07942638700981053
38.460516000000005,8.888631110158402,0.078839413366303
38.465112,8.867471984481003,0.07826519790382941
38.469708,8.845413424355957,0.07769190933121949
38.47430000000001,8.820656560887967,0.07712648964398032
38.4789,8.794345197952973,0.07655384798034787
38.483496,8.768811084751482,0.07598097890267182
38.48808399999999,8.740456483492899,0.0754184849617217
38.49268,8.710303013339024,0.07485688357505643
38.497264,8.684113835118175,0.07426409803805573
38.50186,8.657313733326598,0.0736954915708128
38.506452,8.630924327126085,0.07314229414506651
38.51103199999999,8.60236949788784,0.07260800485893963
38.515628,8.571649245611862,0.07209208836279538
38.520228,8.544037992269894,0.07158439827846294
38.524824,8.51630455421378,0.07107976956270967
38.52940400000001,8.484606824224638,0.07059796617604637
38.534004,8.452786909521349,0.07011749051936321
38.538592,8.420478255961477,0.06965524389525976
38.543184,8.396386697144585,0.06916463840716344
38.54778,8.374216191937132,0.0686609537964763
38.552356,8.360629335615092,0.06811481685312779
38.556952,8.346020860131258,0.06757215045927106
38.561544000000005,8.33411068799037,0.06702265829655057
38.566132,8.319912908097601,0.06649493435822575
38.570728,8.309068496567132,0.06596875504414494
38.57532,8.300267323360252,0.0654284926383708
38.579916,8.295063887943963,0.06487902805160124
38.584504,8.29742248225129,0.06429931289128141
38.589104,8.300558326292125,0.06372380397994779
38.593684,8.306759027818337,0.06312958774324236
38.598288,8.31349260964976,0.06254986340948016
38.602876,8.325989352309508,0.06194855740807798
38.607472,8.340162779150406,0.061349998262798376
38.612056,8.351393533220069,0.06076698575396328
38.616652,8.362502102575586,0.06018952460636002
38.621232,8.379373832759427,0.05959107453277416
38.625828000000006,8.398821681572066,0.058993798891937274
38.630416,8.418147345670562,0.05840217184875239
38.635012,8.43591851030205,0.05780629301296886
38.6396,8.457531782152424,0.05719838488972481
38.64418799999999,8.475180762069767,0.056613659671583945
38.64878,8.497326914225349,0.056024323632216724
38.653380000000006,8.515386589733756,0.05545954407394404
38.657964,8.539331610784634,0.054870316901665994
38.662560000000006,8.558657274883128,0.05429011765803261
38.667152,8.571731039296715,0.0537489320514592
38.671736,8.581617761510774,0.053229515377198
38.676332,8.585252584039926,0.052750361524586634
38.680912,8.585822549083698,0.05228733830817195
38.6855,8.578708299689705,0.05184734267109289
38.690096,8.569017931666915,0.05140242965093506
38.69468,8.547312503130893,0.05101161271321432
38.699268,8.518700109890608,0.050645895296543474
38.703864,8.48792229361259,0.050293413280002384
38.708452,8.454079619849193,0.049954571498502055
38.713056,8.40834407028671,0.04966268608894202
38.717648,8.355945925448253,0.049384969101968525
38.722248,8.297662435067325,0.04912628434981405
38.72684,8.233004860287348,0.048907608941722545
38.73144,8.155677159974783,0.04872975978310477
38.736028,8.069765810776804,0.048569956685433825
38.740628,7.976048062426913,0.048434663365044754
38.745212,7.87848820685814,0.048306856215309724
38.749812,7.771733778833225,0.04822591091712154
38.7544,7.6646127966658755,0.04815731273388933
38.758984000000005,7.559412868107967,0.04807995585392996
38.763568,7.451392451492969,0.048005218231058064
38.768156,7.340673731535027,0.04792802206377479
38.772744,7.224969100482261,0.047871606528482595
38.777348,7.104811438639888,0.04785741939752549
38.781928,6.983509972921573,0.0478490963966077
38.786512,6.864618299669283,0.04780848174352473
38.791104,6.746626060864641,0.04776711516123646
38.795696,6.625036084269406,0.04772247836826338
38.800292000000006,6.49960400045529,0.04768733122706922
38.804884,6.379812892755351,0.04763860945646633
38.80948,6.2616984692365625,0.04759456959901211
38.814072,6.143461861003629,0.04755757794715764
38.818664000000005,6.024570187751339,0.04750543992576095
38.823252,5.910175686737288,0.04745489763718036
38.827848,5.800033988533185,0.047418166946198166
38.832436,5.691691159224379,0.0473807258495918
38.83702399999999,5.581060722163693,0.04737595497560506
38.841612000000005,5.470796839245445,0.0473486834458175
38.8462,5.357712468270106,0.04732708544372751
38.850792000000006,5.237066067571148,0.04732755860127813
38.855388,5.113476994100955,0.04734498318574835
38.859968,4.989887920630763,0.04735825776696784
38.86457599999999,4.869119335217659,0.04736498779193593
38.869164000000005,4.750516172842288,0.0473552797374472
38.873764,4.625006045762654,0.0473970583380342
38.878344000000006,4.499007179826438,0.04747489173267899
38.882952,4.37415211776616,0.047527934183404674
38.88754,4.250851555172888,0.04760396039457332
38.892132,4.125507754256026,0.0477127060714369
38.896728,3.995422411672636,0.04784879796817157
38.901324,3.864682004069889,0.047956911815834946
38.905916,3.7371286386666673,0.04800998216931881
38.910504,3.608675838815799,0.048055565788944495
38.915108,3.4813668428408695,0.04807525098980366
38.919696,3.3552016507418787,0.048067468590941353
38.92428399999999,3.2272375897475927,0.04805760180044386
38.928872000000005,3.105158874295776,0.047999755878316536
38.93346,2.9847568430251092,0.04794857847312226
38.938044,2.8614121389832086,0.04793723223915618
38.942636,2.74358622634134,0.04791485600652272
38.947224,2.6294802362042082,0.047880230186275116
38.951816,2.513208823029344,0.047910238712548854
38.956408,2.39526072567333,0.04791040963817188
38.961004,2.284341777735724,0.04774152276740721
38.965592,2.1772649370170023,0.04755157945720998
38.970184,2.0683892274029843,0.04736527087424838
38.97478,1.9591469636465284,0.04723440939915118
38.979372000000005,1.8510485037660125,0.04702976617163726
38.98396399999999,1.749490454447323,0.04678224973712996
38.988548,1.649609089309783,0.04429885155878744
38.993136,1.5511600389251021,0.04184432411459592
38.99774,1.4513228152361906,0.03943793726156867
39.002332,1.355860579071373,0.03704861174379216
39.00693999999999,1.2582329198688225,0.034677814600128996
39.011536,1.157540403180891,0.03232661978780743
39.016128,1.0604456242835514,0.02997828133679846
39.02072,0.9624514109385638,0.02765155051752236
39.025316,0.8652344473270783,0.025328124565619666
39.029896,0.7800766856774518,0.022965591703802204
39.034496,0.6954518043330362,0.02060499832457215
39.039088,0.6152749191080322,0.018246562001541233
39.043684000000006,0.5425378788925025,0.015834731689447892
39.04828,0.47597469509636214,0.0134531588886256
39.052876000000005,0.409700022177141,0.011229561108726667
39.057456,0.3498435751056006,0.008989810547147136
39.062052,0.29730478832938867,0.006732411292533252
39.066656,0.24938535850556157,0.004444990713676
39.071252,0.20584091620582814,0.002216850200983366
39.07584000000001,0.16499477724903827,0.0
39.080428000000005,0.12978961440642686,0.0
39.085024,0.09830437406855248,0.0
39.089612,0.07143849068306307,0.0
39.094192,0.04727091064051721,0.0
39.098792,0.02964374115979765,0.0
39.103384,0.018556982240904386,0.0
39.107976,0.010168526664954682,0.0
39.112576,0.005255624165450711,0.0
39.117164,0.004062644170683818,0.0
39.12176,4.917611882769838e-05,0.0
39.126348,0.0,0.0
39.13094,0.0,0.0
39.135536,0.0,0.0
39.14012399999999,0.0,0.0
39.144716,0.0,0.0
39.149304,0.0,0.0
39.153892000000006,0.0,0.0
39.158488,0.0,0.0
39.16307199999999,0.0,0.0
39.167668,0.0,0.0
39.172256,0.0,0.0
39.17686,0.0,0.0
39.181448,0.0,0.0
39.18604799999999,0.0,0.0
39.19064,0.0,0.0
39.195236,0.0,0.0
39.199824,0.0,0.0
39.204412,0.0,0.0
39.209008,0.0,0.0
39.213604,0.0,0.0
39.218196,0.0027033380131431008,0.0
39.222788,0.006428295188079723,0.0
39.22738,0.009253817915368494,0.0
39.231968,0.014122578966244314,0.0
39.236556,0.01899134001712013,0.0
39.241148,0.025781154677437322,0.0
39.245736,0.03743469571843079,0.0
39.250324,0.04614556398818935,0.0
39.254912,0.05575586670559577,0.0
39.259504,0.060502443042325924,0.0
39.264096,0.060502443042325924,0.0
39.268688,0.060502443042325924,0.0
39.27327999999999,0.06062966242667114,0.0
39.277888,0.06153413154451854,0.0
39.282472000000006,0.06333803511001379,0.0
39.287068,0.06616355783730256,0.0
39.291648,0.06808964611694347,0.0
39.29624,0.06821686550128869,0.0
39.300844000000005,0.06821686550128869,0.0
39.305432,0.0682168655012887,0.0
39.310036,0.06551352748814561,0.0
39.314632,0.06178857031320898,0.0
39.319236,0.05896304758592021,0.0
39.323828,0.054094286535044396,0.0
39.328428,0.04922552548416857,0.0
39.33302,0.042435710823851384,0.0
39.337612,0.03078216978285791,0.0
39.3422,0.022071301513099342,0.0
39.3468,0.012460998795692924,0.0
39.351392,0.007714422458962778,0.0
39.355988,0.007714422458962778,0.0
39.360584,0.007714422458962778,0.0
39.365176,0.00758720307461756,0.0
39.36978,0.006682733956770162,0.0
39.374372,0.0048788303912749124,0.0
39.378976,0.0020533076639861394,0.0
39.383572,0.00012721938434521812,0.0
39.388152,0.0,0.0
39.392736000000006,0.0,0.0
39.397324000000005,0.0,0.0
39.40191599999999,0.0,0.0
39.406508,0.0,0.0
39.411104,0.0,0.0
39.415696,0.0,0.0
39.420284,0.0,0.0
39.424884,0.0,0.0
39.429464,0.0,0.0
39.434056000000005,0.0,0.0
39.438652,0.0,0.0
39.44324,0.0,0.0
39.447836,0.0,0.0
39.452424,0.0,0.0
39.457012,0.0,0.0
39.461608000000005,0.0,0.0
39.46619999999999,0.0,0.0
39.470804,0.0,0.0
39.4754,0.0,0.0
39.47999599999999,0.0,0.0
39.484584000000005,0.0,0.0
39.48917599999999,0.0,0.0
39.493756,0.0,0.0
39.498356,0.0,0.0
39.50294400000001,0.0,0.0
39.507536,0.0006600996895560553,0.0
39.51212399999999,0.0006600996895560553,0.0
39.51672,0.002219633826759962,0.0
39.52132,0.002879733516316017,0.0
39.525916,0.002879733516316017,0.0
39.530508000000005,0.0028797335163160175,0.0
39.535108,0.0028797335163160175,0.0
39.539696,0.0028797335163160175,0.0
39.544292000000006,0.0028797335163160175,0.0
39.548872,0.0028797335163160175,0.0
39.553456,0.0028797335163160175,0.0
39.55804,0.0028797335163160175,0.0
39.562632,0.0028797335163160175,0.0
39.567232,0.0036620179200177443,0.0
39.571812,0.005343736771367322,0.0
39.576392000000006,0.005343736771367322,0.0
39.580988,0.005343736771367322,0.0
39.585576,0.007802705356219081,0.0
39.59018,0.008462805045775136,0.0
39.594772,0.008462805045775136,0.0
39.599372,0.00780270535621908,0.0
39.603968,0.00780270535621908,0.0
39.608556,0.0062431712190151745,0.0
