Time,Force,Position
2.9700799999999994,0.02799355902299078,0.0
2.9746679999999994,0.02799355902299078,0.0
2.97926,0.027993559022990784,0.0
2.9838439999999995,0.02664080005884162,0.0
2.9884280000000008,0.023122618056959737,0.0
2.993012,0.019482251340932184,0.0
2.9976000000000003,0.01584188462490463,0.0
3.002191999999999,0.0102804642994357,0.0
3.006779999999999,0.0067622822975538215,0.0
3.0113640000000004,0.005165153905113313,0.0
3.01596,0.0036902102268184765,0.0
3.020548,0.0023374512626693116,0.0
3.025155999999999,0.0016397573178766555,0.0
3.0297400000000003,0.0008198786589383277,0.0
3.0343280000000004,0.0,0.0
3.038919999999999,0.0,0.0
3.043507999999999,0.0,0.0
3.0481,0.0,0.0
3.052688,0.0,0.0
3.057288,0.0,0.0
3.061864,0.0,0.0
3.0664599999999997,0.0,0.0
3.071044000000001,0.0,0.0
3.075636,0.0,0.0
3.080216,0.0,0.0
3.0848080000000007,0.0,0.0
3.0894119999999994,0.0,0.0
3.0940080000000005,0.0,0.0
3.098596000000001,0.0007962164737877451,0.0
3.1031840000000006,0.004823616595729878,0.0
3.1077720000000006,0.006319039537502282,0.0
3.1123639999999995,0.008102973356194185,0.0
3.11694,0.008620918584801216,0.0
3.1215399999999995,0.008650124956825565,0.0
3.126132,0.012521438547732664,0.0
3.13072,0.01590401328205708,0.0
3.1353120000000008,0.020963272197531524,0.0
3.139896,0.027699215294155994,0.0
3.1444840000000003,0.03533459283842831,0.0
3.149068,0.04440228513555932,0.0
3.153656,0.057189899937427416,0.0
3.158251999999999,0.07063257975865202,0.0
3.162844,0.0884502471039702,0.0
3.167432,0.10500192585920352,0.0
3.1720360000000003,0.12298591936729553,0.0
3.176627999999999,0.1436682162183311,0.0
3.1812240000000003,0.16590501253637102,0.0
3.185808,0.1889190585879131,0.0
3.190412,0.2108925187373761,0.0
3.1950000000000003,0.2287353607910369,0.0
3.199596,0.2518084833678109,0.0
3.204184,0.27549252951531333,0.0
3.208779999999999,0.3033852370241355,0.0
3.213372,0.33368773699898174,0.0
3.217967999999999,0.3577383372889211,0.0
3.2225520000000003,0.3841987300448847,0.0
3.227143999999999,0.41155855724849605,0.0
3.231736,0.436997330842666,0.0
3.2363280000000003,0.462069550294399,0.0
3.2409160000000004,0.48648670472677547,0.0
3.2455,0.505018513616682,0.0
3.250088,0.5254713761160302,0.0
3.2546839999999992,0.5432259352724347,0.0
3.2592680000000005,0.5627793633241348,0.0
3.2638560000000005,0.580656107194685,0.0
3.268448,0.5954679935798545,0.0
3.2730359999999994,0.6055383382984935,0.0
3.277628,0.620350224683663,0.0
3.2822119999999995,0.6360615455164804,0.0
3.2867999999999995,0.6533273658163022,0.0
3.291408000000001,0.6695715669543305,0.007857276788117002
3.2959840000000007,0.6845497795022739,0.015919259023454427
3.3005759999999995,0.6971181995841932,0.024060822249895447
3.3051720000000007,0.7105080108482429,0.032177273246072696
3.309768,0.7311476787738422,0.04118923410388814
3.3143639999999994,0.768652711039937,0.04975499606881999
3.318956,0.8175043162464944,0.05850045252971801
3.3235480000000006,0.8897616963553736,0.06676026855543478
3.3281360000000006,0.9790066255188938,0.07500186427346818
3.3327360000000006,1.0896582327097768,0.08312834791177799
3.33732,1.2287898087950597,0.09107051330204972
3.341924000000001,1.3910488885374837,0.0989478530042746
3.3465159999999994,1.5751694833469638,0.1068574742878222
3.3511120000000005,1.7852380698706742,0.11470994280785818
3.355696,2.018556344765671,0.12257840311536929
3.3602880000000006,2.2806430994319875,0.13036090529993088
3.3648880000000005,2.5735415721932102,0.1380786891184511
3.36948,2.881516780031372,0.14588520851260145
3.3740760000000005,3.213518925974322,0.15368737696535834
3.378668,3.5739229975461555,0.16143185360130605
3.383256,3.956066399470899,0.1613497078291919
3.3878400000000006,4.367877715614609,0.1610014663638605
3.3924280000000007,4.805514838758407,0.16056081503524988
3.3970280000000006,5.267134758558365,0.16011752402016016
3.4016160000000006,5.748908790349013,0.15865249950427537
3.4062079999999995,6.216936696364914,0.1576829414162208
3.4107920000000007,6.679147060472123,0.15654090338381596
3.415372,7.1230699851177155,0.15591076604941592
3.419964,7.557044749758816,0.1552991334708177
3.4245520000000003,7.970722738431603,0.15483744468792235
3.4291400000000003,8.357763768553914,0.154600661538585
3.433731999999999,8.718490252819558,0.15445331698616035
3.438319999999999,9.053390930085119,0.1543107754411893
3.442919999999999,9.359523127579358,0.15426277845143183
3.447512,9.642816332293378,0.1542198922331969
3.4521,9.895297818912491,0.15430576200283852
3.4566920000000003,10.119543706065494,0.1544814770844901
3.461288,10.323849131760882,0.15456952303645624
3.465883999999999,10.506703737980281,0.15464117636217564
3.470471999999999,10.658868810818916,0.15480948332559286
3.4750680000000003,10.789993759772628,0.15496126628245513
3.479659999999999,10.894115196033429,0.15521932028856086
3.484264,10.978017899591427,0.1554889065732445
3.488852,11.040802435998984,0.1557791489845767
3.493447999999999,11.083955501089324,0.15619832497830832
3.4980320000000003,11.132539074682438,0.15650425262945053
3.5026360000000007,11.183732668721241,0.15673196399054332
3.507223999999999,11.239868032406237,0.1568729073629258
3.511816,11.299390666270423,0.15693831676003275
3.516404,11.367985687876605,0.15689627801651834
3.520996,11.44540872779649,0.15675685842739318
3.5255840000000003,11.531293231887643,0.156536231150884
3.53018,11.62948130736895,0.15619690286103627
3.534763999999999,11.736908096755023,0.15577354395392484
3.539356,11.854306708330743,0.15524743276098174
3.543944,11.984375445439047,0.15459536520081343
3.54852,12.12555980861294,0.15382974707247177
3.5531159999999997,12.27442838622459,0.15300065552720238
3.5576919999999994,12.42685056017821,0.15213558511765893
3.562288000000001,12.58793442628276,0.15116847683573426
3.5668799999999994,12.749907487203217,0.15013143178505733
3.5714640000000006,12.910760406432887,0.14899252457450174
3.576064000000001,13.06844994564818,0.14778718685628994
3.5806520000000006,13.21864525877363,0.14655962427662705
3.5852559999999998,13.360691280789885,0.14530529097441136
3.589848,13.49037935033562,0.14408528464434592
3.594448,13.603622990763668,0.14293546578645847
3.5990439999999992,13.703775570436324,0.1418363573463139
3.603636,13.788916035744144,0.14080435121550638
3.608231999999999,13.859699451706488,0.1398387244920669
3.612812,13.921155870866807,0.1389108698125437
3.617412,13.974473238549667,0.1380263332097131
3.622,14.016220143127253,0.13722684427237192
3.6265959999999993,14.051504680408527,0.13645897476163715
3.6311839999999993,14.079471557394479,0.13575272306870012
3.6357839999999992,14.09807753576151,0.13512423103370425
3.640368000000001,14.106833876653043,0.13458622436607623
3.644968,14.110071426144541,0.13409081142827461
3.6495599999999992,14.10754581480772,0.13364308534973818
3.654156,14.10068935739543,0.13324252690368737
3.658752,14.094942802042194,0.1328751845685238
3.663344,14.093659517110304,0.13252648799729305
3.667932,14.087600788694992,0.13225580857289268
3.6725239999999992,14.08469520066232,0.13199842612419038
3.677104,14.08841830608873,0.13173749349179653
3.6816840000000006,14.098770104974225,0.13147389748118124
3.68628,14.121269388718833,0.1311729309144452
3.690856,14.14859849702723,0.13087902515831387
3.69544,14.182311929366415,0.13058918359776034
3.700028,14.226740531811854,0.13026354036278115
3.70462,14.27918600102061,0.12991913127432733
3.709208,14.338338206953967,0.1295521296951585
3.713796,14.404563703754361,0.12915095271725857
3.718399999999999,14.474919818650555,0.128738956764001
3.722987999999999,14.54449868381325,0.12833141490246727
3.727592,14.615998602585385,0.12791268860799843
3.732175999999999,14.6879872602141,0.12748088388067533
3.736763999999999,14.757277614499875,0.12706558426136197
3.74136,14.82938845684274,0.12663531061669703
3.745956,14.898145930823302,0.1262186975592877
3.75056,14.963916590584004,0.1258072166389718
3.755148,15.024412828372963,0.12542423227642505
3.759744,15.090916596418538,0.12499759373841514
3.764324,15.162816971149995,0.12454795706416517
3.768924,15.233285031128599,0.12410160431062904
3.773515999999999,15.303220210801989,0.12365527543809281
3.778112,15.369024772379579,0.12322635109809914
3.782691999999999,15.434907377222686,0.12277715526064295
3.787288,15.502911263654896,0.1222941929543587
3.791876,15.564330598076653,0.12183444427257545
3.796472,15.615445457983219,0.12141551414537037
3.801064,15.660875200326979,0.12101358674323182
3.805655999999999,15.699476021231993,0.12063759607874101
3.810243999999999,15.737255450954876,0.12024766653743582
3.81484,15.772825316191398,0.1198583829408001
3.819416,15.808228855265146,0.11945630517969005
3.824007999999999,15.847063805966712,0.11902556004273798
3.8286,15.889330168296095,0.11856558565976918
3.833176,15.929386966139118,0.11810762182049181
3.83776,15.974674044505253,0.1176132198861198
3.842348,16.020449861727972,0.11710851517462513
3.846928,16.069412721150215,0.1165820917614164
3.851528,16.116043831371954,0.11606158836348492
3.856116,16.157112008745028,0.1155531886945497
3.8607080000000007,16.197769490527044,0.11503891750481782
3.8652960000000007,16.234540723641544,0.1145305451827107
3.869876,16.27228943446921,0.11400083891659622
3.874471999999999,16.313836111067133,0.11343718493243694
3.879059999999999,16.35264034287348,0.11287051279933302
3.883656,16.390867552925993,0.11228231762957377
3.88824,16.438000824557726,0.11162687591568264
3.89284,16.481614401664384,0.11096490358044729
3.897423999999999,16.529759052826172,0.11025019524887589
3.902023999999999,16.57336239030109,0.10953811976742173
3.906616,16.618309759631614,0.1087952650275786
3.911208,16.658182934970053,0.10804730449183318
3.915799999999999,16.689794874116895,0.10731569332281488
3.920392,16.718131488166954,0.10657351028392086
3.924996,16.74613544989146,0.10580472305722721
3.929592,16.77049753237675,0.10503467091695888
3.934184,16.79571490786106,0.1042473669855773
3.9387760000000007,16.81729040410615,0.10345727829288465
3.943351999999999,16.83461309754129,0.10267656452363813
3.947939999999999,16.84935967234764,0.10190209140624816
3.95252,16.86500568160163,0.10112751173577875
3.9571039999999993,16.880285136713184,0.10036212963069018
3.9617,16.894176418520505,0.09961402365879113
3.966284,16.902348680948137,0.09891130099416645
3.970868,16.91122014984375,0.098230718515086
3.9754520000000007,16.921856585817768,0.09758296653646127
3.980032,16.926573774432427,0.09700220779872912
3.984632,16.938286210648606,0.09642360983537003
3.98922,16.948820941171956,0.09589239919832186
3.993796,16.96484056127845,0.09538135715068458
3.998391999999999,16.98250296374921,0.09490647511578372
4.002984,17.00426208249888,0.09446427577914379
4.007576,17.029707221936395,0.09404541113930995
4.012155999999999,17.05205360207164,0.0936791824668454
4.016752,17.07399952624756,0.09335928356170126
4.021331999999999,17.09435704913959,0.09307614995337558
4.025931999999999,17.110427867404777,0.0928371089683801
4.030516,17.12821951129974,0.09261377195501849
4.035107999999999,17.14948670827115,0.09238400373500891
4.039695999999999,17.175617631623243,0.09213528213127307
4.044288,17.194020199088936,0.09189953465754551
4.048888,17.211234821230065,0.09165485861619746
4.053483999999999,17.222764325808384,0.09141246585265214
4.058071999999999,17.23257300475693,0.0911546739583937
4.0626560000000005,17.2362858705516,0.09088994468053564
4.0672440000000005,17.235413281210775,0.09060204103895803
4.07184,17.231343410038683,0.09027701889735563
4.076428,17.221177725712728,0.08994486247495871
4.081023999999999,17.206060032108834,0.08959708529305502
4.0856200000000005,17.180593722541122,0.08924623360239371
4.0902080000000005,17.145145351152024,0.08888297430043812
4.094799999999999,17.103679209874574,0.0884905129391126
4.09938,17.059426482356923,0.08806849438504688
4.103972000000001,17.018028144713252,0.08759873336613393
4.108568,16.970900548058147,0.08711068941843957
4.113156,16.918698757410958,0.08660688605509681
4.117751999999999,16.866042129724086,0.08607459272765296
4.12234,16.809499253369697,0.08553705027535886
4.126928,16.75013588895822,0.08500671449341689
4.131532,16.682599571252393,0.08451255216814947
4.136132,16.619604567233434,0.08402324083873083
4.140732,16.556653704663102,0.0835493407547069
4.1453240000000005,16.4971003519037,0.08308834038590214
4.149915999999999,16.43939000948822,0.08263893485475905
4.1545000000000005,16.384710622741235,0.08221123086883254
4.159096,16.33383944139624,0.08180676926731789
4.163672,16.286654280739093,0.08142809767270927
4.168272,16.242622260464586,0.08106954071668253
4.172864000000001,16.201987750001003,0.08072539632030824
4.177448,16.169125736872445,0.0803894211526917
4.182040000000001,16.150454446926588,0.0800469162818952
4.186632,16.13943346960161,0.07971658457671721
4.191224,16.135652109306438,0.07939001811661783
4.195816000000001,16.134368824374548,0.07908198262389748
4.200391999999999,16.136727418681883,0.07878379132247722
4.204988,16.15004555252376,0.07848047919292353
4.209564,16.165861761728916,0.07819563238513051
4.214148,16.18634146933509,0.07791807977322592
4.218731999999999,16.210052360589415,0.0776427653090502
4.223312,16.239159858529625,0.07735733321580673
4.227895999999999,16.269777714488217,0.07705729094153096
4.232480000000001,16.302438808770386,0.07674904706014088
4.237068000000001,16.334811392175645,0.07642889323793957
4.241664,16.370126648352137,0.07609990405452832
4.246252,16.40629719752765,0.07575203047800091
4.25084,16.44050255164509,0.07539272435681257
4.255431999999999,16.47364214515211,0.0750203679682809
4.260019999999999,16.500974436382176,0.07464697020397454
4.264612,16.524420478944737,0.07426686546555337
4.269192,16.54230358865863,0.07388042122946953
4.273792,16.550415104162546,0.07350832375587872
4.278368,16.55427381685651,0.07313842944101429
4.282971999999999,16.552858107578736,0.07277494363964503
4.287564,16.546290161043363,0.07241402903948323
4.292147999999999,16.538289899755135,0.0720466027045081
4.296728,16.520640228971068,0.0716881639261459
4.301323999999999,16.49975937453885,0.07132594044081574
4.305911999999999,16.4707836100778,0.07097434520802909
4.310504,16.436655608359153,0.07062395711126371
4.315084000000001,16.39827480383056,0.07027316827131269
4.319668,16.356340402960004,0.06994437902440309
4.324256,16.312607133194156,0.06961709227427601
4.328848000000001,16.271738492934023,0.06930084949724682
4.333432,16.220898030484246,0.0690173963848132
4.33802,16.16879157944438,0.06874203864010185
4.34262,16.116440758976225,0.06847077049444938
4.347204,16.065400068546783,0.06820701854460377
4.351799999999999,16.02335372259382,0.06793085977491277
4.356387999999999,15.98633742918431,0.06765503731334607
4.360972,15.95230794999466,0.06738726258895378
4.365584,15.92085458943381,0.0671178751484058
4.370168,15.890422848034753,0.06684378918110714
4.374763999999999,15.860890541083343,0.066567766069236
4.379356,15.836754840817822,0.06628491923166972
4.383944,15.820836235295276,0.06599027239361493
4.388548,15.814034158963352,0.06568287958662697
4.393127999999999,15.813117428173902,0.06535882993243142
4.397724,15.821028715698153,0.06500960346724269
4.402303999999999,15.838423086555466,0.06464128331385886
4.406891999999999,15.865422725459986,0.06425182576410855
4.411476,15.897897014315912,0.0638372616698502
4.41606,15.931637291761922,0.06341446296797414
4.420648,15.96263512441636,0.0629771009344769
4.4252400000000005,16.004093518117024,0.06249877371427201
4.4298280000000005,16.050537822912514,0.06200777066340237
4.434424,16.104133461840554,0.06149581238984092
4.4390160000000005,16.156296786015737,0.06097827691461128
4.443607999999999,16.202408438485676,0.06046257126185278
4.4482,16.25092988342164,0.05993536280754731
4.452783999999999,16.303127109413712,0.05938715968233267
4.457372,16.356712508710014,0.05882941056840432
4.461968000000001,16.408621223825165,0.05827108766870741
4.466552,16.459752689206812,0.057711856046835604
4.471131999999999,16.506631351778516,0.05715199078627518
4.475728,16.549135026826125,0.05659590900816553
4.480307999999999,16.585220476026052,0.05604802912837165
4.4849,16.615298394969365,0.05551704167055918
4.489495999999999,16.639490968370207,0.055000067099917914
4.494083999999999,16.654078273723844,0.054501458083116086
4.49868,16.657794322440186,0.054028476712036234
4.503259999999999,16.655502840899917,0.053570751841432784
4.507847999999999,16.650024317160124,0.05312362957262879
4.512456,16.6413587512208,0.05268650711595618
4.517044,16.626685655024858,0.05226390976279707
4.52164,16.599586802724623,0.051858757159499405
4.52622,16.55470972908283,0.05148983196604558
4.530808,16.50676779795566,0.05112743160892803
4.535396,16.45461720546717,0.05077633392447889
4.539996,16.392494790789037,0.05044644389719348
4.544587999999999,16.317335696435876,0.05014500178438329
4.549184,16.23412583350251,0.049860568341315574
4.553768,16.147240189513038,0.04959518603461464
