Time,Force,Position
6.464759999999999,0.02344601416665024,0.0
6.469356,0.025533393938865438,0.0
6.473947999999999,0.033177878233274914,0.0
6.47854,0.04070017781353872,0.0
6.483131999999999,0.04810029267965685,0.0
6.487723999999999,0.05460097309812713,0.0
6.492311999999999,0.05812066762320101,0.0
6.496904,0.05587720131995077,0.0
6.501487999999999,0.05633203835964409,0.0
6.506071999999999,0.05232943330445418,0.0
6.510659999999999,0.05405025893423236,0.0
6.515247999999999,0.06157255851449617,0.0
6.519839999999999,0.06909485809475997,0.0
6.524423999999999,0.07502434508585791,0.0
6.529023999999999,0.08651093659915014,0.0
6.533599999999999,0.09901914727423587,0.0
6.538192,0.10882905460637807,0.0
6.542787999999999,0.11357059627290866,0.0
6.547372,0.12338050360505085,0.0
6.551975999999999,0.13184196777631854,0.0
6.556563999999999,0.1414472358235254,0.0
6.561156,0.1466775163466387,0.0
6.565748,0.14692188577493004,0.0
6.570344,0.14741062463151272,0.0
6.574951999999999,0.14892098264988896,0.0
6.579543999999999,0.151330775115913,0.0
6.584148,0.1569276097814633,0.0
6.588724,0.16624436695175068,0.0
6.593324,0.173517885798451,0.0
6.597912,0.1869255309211846,0.0
6.602507999999999,0.1934659414830109,0.0
6.607091999999999,0.19784092900710445,0.0
6.611684,0.20131648208355019,0.0
6.616276,0.2062243499128546,0.0
6.620867999999999,0.2014047649808065,0.0
6.625455999999999,0.19838404894405415,0.0
6.630043999999999,0.20178155875498233,0.0
6.634631999999999,0.20889899107064766,0.0
6.639228,0.21295156590093237,0.0
6.643812,0.21610470628356918,0.0
6.6484,0.21786967336197557,0.0
6.652988,0.2217220202125971,0.0
6.657576,0.22851703983445354,0.0
6.662168,0.23662218949502303,0.0
6.666752,0.24742564249853602,0.0
6.671347999999999,0.25786254135961195,0.0
6.675923999999999,0.26707759307923123,0.0
6.680511999999999,0.2790350895904222,0.0
6.685107999999999,0.29643333423612844,0.0
6.689695999999999,0.3104443087026452,0.0
6.694299999999999,0.3310398351796165,0.0
6.698887999999999,0.35401125230572245,0.0
6.703475999999999,0.3846329820527046,0.006810795258742032
6.70808,0.41942947134411707,0.013703557667947844
6.712668,0.46686218435122756,0.020386412081488413
6.717259999999999,0.5151604299890966,0.02730307797837648
6.721844,0.5661230771530198,0.034226900446071955
6.726444,0.6234700483477342,0.041136558226340644
6.731032,0.6890443539171639,0.048165625807274924
6.735632,0.7662435036722368,0.05532251060886517
6.740215999999999,0.860263876319177,0.06256892441596906
6.744815999999999,0.9731487101815717,0.06975515667007295
6.749399999999999,1.1008556700608745,0.0771183606348237
6.753991999999999,1.2424411800608097,0.08458355382254483
6.758579999999999,1.3942294591252684,0.09223905780488528
6.763172,1.5660701447297487,0.09984594226020863
6.767755999999999,1.7615168332162139,0.10730130893360793
6.772348,1.9712086259657482,0.11477275472629797
6.776932,2.191303415759469,0.12235738212563278
6.781527999999999,2.4341489154361557,0.12992737473801108
6.786112,2.699056158159561,0.1374894411450893
6.790696,2.9877459695594646,0.1451003644312715
6.795288,3.298707991617489,0.1459404196869848
6.799876,3.637783428427476,0.1466243272172672
6.804467999999999,3.9981874999993092,0.14751971018630683
6.809048,4.3824521835131565,0.14818522623209385
6.813631999999999,4.788123545054367,0.14883546074435755
6.818236,5.213524900441792,0.14950199979855078
6.822824,5.66151063954941,0.14997804051655245
6.827431999999999,6.121321450822333,0.1503075987975334
6.832019999999999,6.583542054561281,0.15051509354517267
6.836607999999999,7.041998594346864,0.15077396237750615
6.841191999999999,7.5003668512351895,0.15084299851361183
6.845783999999999,7.961755824160268,0.15077595289506973
6.850379999999999,8.423178698902237,0.150521757052659
6.854955999999999,8.879771749080419,0.15030808129914347
6.859555999999999,9.320863946037184,0.15028053643415712
6.864135999999999,9.755161123372092,0.15023800770723528
6.868735999999999,10.188748854607278,0.15003427584741308
6.873328,10.606248471235473,0.14982582454571053
6.877923999999999,10.999721149758878,0.14961763027167532
6.882516,11.368012846669815,0.14932683634786453
6.887107999999999,11.70425049908091,0.1489813076716595
6.891699999999999,12.000960360165799,0.14874197333556968
6.896295999999999,12.266071013790546,0.14849547437083932
6.900883999999999,12.506533566108034,0.14819648376499728
6.90548,12.717362106023446,0.1478973188609227
6.910068,12.899578252698568,0.14758371119736793
6.914651999999999,13.045419748430122,0.147366717109892
6.919232,13.1644138179998,0.14716908177473467
6.92382,13.261800981562454,0.1470021208677034
6.928411999999999,13.34453234527097,0.14681577103313423
6.932992,13.414528962734794,0.14659319954975697
6.937587999999999,13.466149857839747,0.14638319385880696
6.942163999999999,13.507856494757094,0.14611117569194573
6.946751999999999,13.532864093496721,0.14583843889088177
6.951348,13.550455509412027,0.14551126549681012
6.955935999999999,13.560386373074714,0.14514060700466172
6.960523999999999,13.555793861229153,0.14481235710054333
6.965115999999999,13.548659132571684,0.1444554005189216
6.969711999999999,13.543645685503318,0.1440547920078678
6.974315999999999,13.539409488168456,0.14365289381467536
6.978915999999999,13.53971460452046,0.1432407129258031
6.983512,13.552856172567827,0.14273504481039737
6.988103999999999,13.570006173996848,0.14221412752173582
6.992696,13.586300882426851,0.14172286773927695
6.997276,13.605582405076715,0.14122674848420796
7.001872,13.627850741946444,0.14072607074689475
7.00646,13.662056096063889,0.14014060497606506
7.011055999999999,13.70578867496302,0.13950354185169497
7.015652,13.756472360015044,0.1388288189407798
7.020243999999999,13.807444555943984,0.1381697652167015
7.024819999999999,13.85894963217814,0.1375224505636475
7.029415999999999,13.91393026148874,0.13685967224209608
7.034012,13.96715616335267,0.13623484333827118
7.038607999999999,14.027333171369492,0.13557594437033654
7.043195999999999,14.09315115550049,0.13488269124779942
7.047783999999999,14.158846954917346,0.13419987056957544
7.052359999999999,14.231205349610173,0.13347333211217663
7.056943999999999,14.298700017922323,0.13278925900386365
7.06154,14.362474763729736,0.13213589892786612
7.066135999999999,14.426127324823005,0.13149112936170956
7.070728,14.489779885916274,0.1308497750033201
7.075307999999999,14.547547101467075,0.130259682165348
7.079899999999999,14.610178043398548,0.12963950877784897
7.084483999999999,14.671621040005457,0.12901468863942553
7.089071999999999,14.737272697973683,0.12835754806094984
7.093664,14.80713301730323,0.12766912410967915
7.098256,14.872373979680393,0.12701594856809995
7.102859999999999,14.933362139247608,0.1263864889452156
7.107451999999999,14.993573049081318,0.12576442353120726
7.112044,15.055172132219262,0.12512714383717616
7.116647999999999,15.114850161747762,0.12450694184761027
7.121247999999999,15.173628756828615,0.12389628667683701
7.125839999999999,15.2337955252137,0.12327208859827528
7.13042,15.291508359684133,0.12266056374317959
7.135015999999999,15.345623456363974,0.12207320378923049
7.139603999999999,15.396385184681515,0.12149952342713662
7.144196,15.441872491027313,0.12095306079582012
7.148784,15.492590077896226,0.12036873519244085
7.153379999999999,15.544207099212787,0.11978252391371996
7.157972,15.5923485674529,0.11921146494250572
7.162563999999999,15.640734405121306,0.11863655924802424
7.167151999999999,15.691530035255735,0.11803971888681207
7.171744,15.73602962425663,0.11747575915689662
7.176332,15.778608159648083,0.11692397872817509
7.180915999999999,15.812070165848912,0.11641711262144326
7.1855,15.840668445669063,0.11594284840976846
7.190084,15.868489475755714,0.1154708786250612
7.194667999999999,15.895533256108862,0.1150013304650796
7.199243999999999,15.916280995328476,0.11455949613533588
7.203839999999999,15.934452615919293,0.11412723203775854
7.208427999999999,15.952868605938402,0.11369006394409846
7.213015999999999,15.969485727062215,0.11326182133892047
7.217603999999999,15.980584056785991,0.11285990238970564
7.222191999999999,15.989883517614478,0.11246659241042162
7.226795999999999,15.995463055938222,0.11209165574870332
7.231383999999999,16.00181984399547,0.11171650028681061
7.235976,16.008176632052717,0.11134192125844014
7.240567999999999,16.009547509015142,0.11099880714940069
7.245167999999999,16.010018951529922,0.11065976782500618
7.249759999999999,16.01318869738764,0.11031031875721972
7.254347999999999,16.020200550464246,0.10994262740439613
7.258943999999999,16.025169165217264,0.10958892102305634
7.263531999999999,16.029771225827844,0.10924437524883322
7.268131999999999,16.038870458676662,0.10888353539662224
7.272711999999999,16.05414354794487,0.10850196000742007
7.277311999999999,16.071582060250815,0.10810580676551651
7.281904,16.08775458396667,0.10772253306854879
7.286499999999999,16.107402660758975,0.10733102634939104
7.291083999999999,16.132325159523017,0.10692314265602464
7.295675999999999,16.161744830525297,0.10650099369776621
7.300283999999999,16.19104231681344,0.10608354803853381
7.304875999999999,16.223937540892166,0.10565560182435635
7.309468,16.262351556370927,0.10520700098528464
7.314059999999999,16.297578529650167,0.10477983283415856
7.318647999999999,16.33730267516764,0.10433856704281388
7.323239999999999,16.378947874294557,0.10389016569382108
7.32782,16.41944926954553,0.10345174255809587
7.332415999999999,16.46085009924416,0.10301101512627908
7.337003999999999,16.504949232285725,0.1025634783459671
7.341591999999999,16.550847234222587,0.10211261668760953
7.346175999999999,16.592658759512283,0.10168875972958748
7.350751999999999,16.638190207306707,0.10125296036510065
7.355348,16.687930316462452,0.10079322946727341
7.359939999999999,16.735871556722905,0.10034194457413964
7.364527999999999,16.785978220021086,0.0998798665798973
7.36912,16.833020025833893,0.09943659152028597
7.373699999999999,16.88210506997028,0.09898320134632768
7.378284,16.923505899668903,0.09856430362187193
7.382875999999999,16.965028914081675,0.09814482031391067
7.387472,17.0038536251515,0.09773617230942389
7.392072,17.041778901773682,0.09733157271560927
7.396651999999999,17.075207006157623,0.09694195256538313
7.401251999999999,17.107613491379766,0.09656006735139246
7.405839999999999,17.144106453249087,0.09615702159690233
7.410443999999999,17.17610224288017,0.0957680160178739
7.415031999999999,17.20425592529237,0.09539563399797918
7.419619999999999,17.234330661314008,0.09501625823947275
7.4242,17.263750332316288,0.09463447149583909
7.428783999999999,17.286751777470894,0.09427332942530033
7.433371999999999,17.3071771039967,0.09391821757963931
7.437959999999999,17.326947365503145,0.09356090837830883
7.442536,17.342098270057203,0.09321966955390913
7.447124,17.35418431712589,0.09289503772430494
7.451707999999999,17.365493114461067,0.0925707335643509
7.4563,17.370261501234424,0.09226877807587747
7.460883999999999,17.377073126331364,0.09195714872171991
7.465471999999999,17.384129120856603,0.09164088610279487
7.470055999999999,17.3962932111908,0.09129964257119377
7.47464,17.408046605933933,0.09095106102323568
7.479228,17.414403393991183,0.09061553287700773
7.483835999999999,17.41998293231493,0.09027974334334378
7.488416,17.423108536724023,0.0899446231170008
7.493004,17.420182469427875,0.08961908680008385
7.497599999999999,17.412759229893485,0.08930403574386984
7.502175999999999,17.409178097577975,0.0889752470051841
7.506771999999999,17.408661822747852,0.08863212174402622
7.511347999999999,17.405691614003075,0.08829002451420431
7.515947999999999,17.40758513163897,0.08793046727148267
7.520535999999999,17.410744637864955,0.08755985387790585
7.525135999999999,17.411328025462137,0.0871925328181888
7.529723999999999,17.40549318721164,0.08684109844219372
7.53432,17.395161176722908,0.08649873055110291
7.538911999999999,17.381353613157728,0.08616114353788604
7.543508,17.363948311801956,0.08583093119689389
7.548084,17.347564629607977,0.08549522069637064
7.55268,17.325662156013962,0.0851734007906231
7.557272,17.301838628810515,0.0848580038354196
7.561868,17.27723785187356,0.0845417251387234
7.566451999999999,17.25137108634652,0.0842352483501999
7.571048,17.230900927505367,0.08391670860447431
7.575636,17.2150501256166,0.08358653246944259
7.580232,17.20255269209013,0.08325370861417546
7.584824,17.196106930268908,0.08291303693149243
7.589415999999999,17.198899882352453,0.08254963225630066
7.594008,17.196951292769466,0.08220066516753853
7.598587999999999,17.19398108402469,0.08185660576966519
7.603188,17.194486428356356,0.08150856046449437
7.607767999999999,17.19012804630735,0.08117789268120233
7.61236,17.192310074820167,0.08083072709518539
7.616955999999999,17.19874490614293,0.08048073770820084
7.621543999999999,17.21633950497991,0.08010336691233422
7.626139999999999,17.244438806311738,0.07969580157986492
7.630724,17.2780568990436,0.07927659797433644
7.635315999999999,17.319114836784944,0.07884080234325777
7.639912,17.36377051231687,0.07840004018240766
7.644503999999999,17.41688765202007,0.07793876473449153
7.649107999999999,17.471925845332706,0.07747350657742687
7.653691999999999,17.528518538112348,0.07701281600373096
7.658295999999999,17.585111230891993,0.07655373877534756
7.662876,17.64080448922399,0.0760980077240018
7.667476,17.69020170642245,0.07565438568243653
7.672055999999999,17.74176434665864,0.07520233078331362
7.676655999999999,17.79279410658962,0.07474639661331889
7.681247999999999,17.834707337329977,0.07430887163488602
7.685835999999999,17.879929794984005,0.07385541235032383
7.690428,17.92809492540927,0.07339527835066677
7.695019999999999,17.977403859710474,0.07293174996227075
7.699611999999999,18.028756032335263,0.07246228856798574
7.704207999999999,18.078842216369967,0.07200520655708612
7.708795999999999,18.131582562298988,0.0715318114504814
7.713387999999999,18.182524039332712,0.07106476802630807
7.717983999999999,18.228479605271616,0.07061633380534355
7.722568,18.275334605658166,0.07016950199931912
7.727156,18.31744806437819,0.06973517059534759
7.731747999999999,18.358906458078852,0.0692991148040267
7.736332,18.397910917864866,0.06886416822096986
7.740911999999999,18.434994324041437,0.06843484257048892
7.745496,18.470523230751006,0.06800437594607846
7.75008,18.508095375784155,0.06756883983928773
7.754668,18.550653431912128,0.06712161602582557
7.75926,18.595909791383047,0.0666722474432979
7.763839999999999,18.640144531692176,0.06622834899418702
7.768427999999999,18.683479837553655,0.0657870968635682
7.77302,18.73683110705341,0.06533617577346901
7.777599999999999,18.790470887430075,0.06489804017116202
7.782203999999999,18.835893573063764,0.06447054436988103
7.786784,18.87412078311628,0.06405049809402877
7.791384,18.906584832340464,0.06364241938397258
7.79596,18.936717132364144,0.06323137767131083
7.800548,18.957899229359974,0.06284425627307239
7.805139999999999,18.971641481346328,0.06246794529360976
7.809731999999999,18.982807614703884,0.0620914735504559
7.814319999999999,18.989843129965642,0.06171233977300964
7.818915999999999,18.99802244910333,0.06132826988447485
7.823503999999999,19.00656832238347,0.060938389705271184
7.8281,19.01192715346407,0.06056000295111476
7.832679999999999,19.019573592296553,0.06017180864628164
7.837264,19.023622293338445,0.059785779819350474
7.841852,19.02125276853265,0.059405883102349705
7.846443999999999,19.007601291498506,0.05904158592358238
7.85104,18.991373695835563,0.058676157720106516
7.855624,18.97293653568626,0.05830298792718501
7.860224,18.94988001858457,0.05793364587952202
7.864803999999999,18.916929722558756,0.05756972696244413
7.869395999999999,18.881647677332435,0.05719989420776506
7.873979999999999,18.850740619630205,0.05682877054081455
7.878567999999999,18.826129603061514,0.05645406926290515
7.883164,18.809202800930585,0.05606674645725443
7.887747999999999,18.78831170686663,0.05568707373946724
7.892335999999999,18.770241100859757,0.05530279983410413
7.89694,18.754990982909977,0.054913993770548
7.901528,18.74346078746494,0.05452135074361273
7.906123999999999,18.72939861483973,0.05414205571257392
7.910699999999999,18.710594900547985,0.05376801263763068
7.915299999999999,18.686316536304844,0.05341305448499722
7.91988,18.659095499290462,0.05306220159934892
7.92448,18.624068063124174,0.052723561249591475
7.929071999999999,18.591372376158386,0.05238996917068943
7.933668,18.558310135050167,0.05206142860891887
7.938251999999999,18.52962288146604,0.05173249543942558
7.942844,18.49672696652059,0.05141409420272198
7.947432,18.457090413033647,0.05112040298020598
7.952027999999999,18.418641804871278,0.050836496574237625
7.95662,18.375740165919296,0.050567538637984584
7.96122,18.33030654978714,0.05031163288234335
7.965808,18.28090864172196,0.050062063123548696
7.970391999999999,18.21871842341005,0.04983365394945273
7.974984,18.142958645117897,0.04962388194177707
7.979579999999999,18.061069151854987,0.04942679048693134
7.984179999999999,17.972272693887817,0.04924029254125149
7.98876,17.878123770683384,0.04906910999858508
7.993351999999999,17.773103590841664,0.04891591575269765
7.997939999999999,17.667061791838144,0.04876331193766105
8.002531999999999,17.556566962045014,0.04862582863821159
8.00712,17.438632287242413,0.04849159584731435
8.011696,17.315711701344988,0.048365402080203776
8.016307999999999,17.189359703819743,0.048252052890636825
8.020896,17.04841652715247,0.04816008858189346
8.025483999999999,16.901588004942727,0.04807634630493828
8.030076000000001,16.743888226095695,0.048011606541218534
8.034664,16.583001405049135,0.047955639517329444
8.039268,16.421870214574284,0.04790438532055968
8.043855999999998,16.254198613537607,0.04785702437707657
8.048448,16.081785470834397,0.047813884303144163
8.053027999999998,15.899889244798128,0.047780455853247306
8.057628000000001,15.713007107667035,0.04775628915909165
8.062211999999999,15.528046024145384,0.04772878583308898
8.066816,15.340797332871857,0.04771196246750786
8.071404000000001,15.155225325779478,0.04769741961437074
8.076004000000001,14.96940894925881,0.04768767602105461
8.080596,14.778851031071609,0.04768350123986767
8.085180000000001,14.587149309008467,0.04768506231291939
