Time,Force,Position
3.350868,0.13959908514305977,0.0
3.355452,0.13604548880109651,0.0
3.3600440000000003,0.13081520827798324,0.0
3.3646320000000003,0.12239788555534373,0.0
3.369224000000001,0.12011027780346535,0.0
3.3738200000000003,0.11487999728035206,0.0
3.3784080000000003,0.10838372816715393,0.0
3.383000000000001,0.10033295958695139,0.0
3.387592,0.09469198347277295,0.0
3.3921840000000003,0.09223804955812073,0.0
3.39678,0.08503493177990026,0.0
3.401364000000001,0.08143719398930885,0.0
3.405968,0.07783945619871743,0.0
3.4105600000000003,0.07652932616000441,0.0
3.415156,0.07342032722599569,0.0
3.4197360000000003,0.07264307749249352,0.0
3.4243360000000003,0.07415343551086971,0.0
3.428916000000001,0.07374273991980455,0.0
3.4335120000000003,0.07795140128112432,0.0
3.438096,0.08126062819479621,0.0
3.442692000000001,0.09057738536508361,0.0
3.447284,0.0991168928018688,0.0
3.4518760000000004,0.10741203081036266,0.0
3.4564760000000003,0.11979364546603062,0.0
3.4610760000000003,0.12821096818867014,0.0
3.4656640000000003,0.14214708231134246,0.0
3.47026,0.159270238633541,0.0
3.474848,0.17410578720386116,0.0
3.4794400000000003,0.18575429357465503,0.0
3.4840280000000003,0.19920166884074464,0.0
3.4886280000000003,0.22021871602749177,0.0
3.493220000000001,0.23468771045537495,0.0
3.497812,0.24825727043561024,0.0
3.5024040000000003,0.26158246098755417,0.0
3.5069920000000003,0.2689001212828827,0.0
3.511584000000001,0.27159842462582623,0.0
3.516172000000001,0.2712318704833892,0.0
3.520760000000001,0.27008806660745,0.0
3.5253560000000004,0.2631811019031867,0.0
3.5299440000000004,0.2574179410748626,0.0
3.534552,0.24871210747530356,0.0
3.5391440000000003,0.2427045772186881,0.0
3.543724000000001,0.23399874361912906,0.0
3.548324000000001,0.22312748698183732,0.0
3.552912000000001,0.21483234897334344,0.0
3.557516,0.20179566929831902,0.0
3.5620960000000004,0.18437635990216333,0.0
3.5666960000000003,0.16810085438194677,0.0
3.5712840000000003,0.15386858718531732,0.0
3.57588,0.13771526637924647,0.0
3.5804720000000003,0.11669821919249937,0.0
3.585068,0.09850166006284147,0.0
3.589668,0.08035688457884939,0.0
3.594268,0.06401097799015301,0.0
3.598852000000001,0.05751470887695487,0.0
3.603444,0.05498273169678513,0.0
3.608032,0.05347237367840894,0.0
3.612628000000001,0.05286145010768058,0.0
3.617216000000001,0.05609263375583496,0.0
3.621812,0.059856697709200185,0.0
3.6264,0.06541963055786112,0.0
3.630984,0.07061600926408503,0.0
3.635572,0.08529547130337015,0.0
3.640164,0.09907549889500741,0.0
3.644752,0.10733673508661191,0.0
3.649336,0.11764120960180344,0.0
3.653932000000001,0.1301628908003935,0.0
3.658520000000001,0.14436125618013362,0.0
3.663112,0.1575380023980802,0.0
3.6677,0.17071474861602676,0.0
3.672288,0.183647125405682,0.0
3.676896000000001,0.1962129480529002,0.0
3.681484000000001,0.2075831831785134,0.0
3.686084000000001,0.21883123358998094,0.0
3.690676,0.22689224180192225,0.0
3.695264,0.23278782697613082,0.0
3.699860000000001,0.2403600963314894,0.0
3.704452,0.249242495725561,0.0
3.709044000000001,0.2585355907106978,0.0
3.713632000000001,0.2684837507151911,0.0
3.718232,0.2794976713301061,0.0
3.722820000000001,0.2918217219837341,0.0
3.727416,0.29703857995343563,0.0
3.732008,0.30949505495294805,0.0
3.736604,0.3308678311634215,0.0
3.741188000000001,0.35629318220417966,0.0
3.74578,0.38474948891342897,0.007335073613177444
3.750368,0.41276119821472385,0.015121074449003815
3.754964000000001,0.4475237856892469,0.022787174672370954
3.759552000000001,0.48597239385161767,0.030644783610258828
3.764156,0.5312940649013624,0.03831240003795398
3.768744,0.5809126802096833,0.04605089850432279
3.773332,0.6353611200817911,0.05393543882360574
3.77792,0.689120593117653,0.06217719869090388
3.782516000000001,0.7496309443267432,0.07016529108092195
3.787108,0.8208564656420899,0.07776550502475481
3.791692,0.892170269854693,0.08562485959971484
3.79628,0.9680253877541636,0.09338671580176838
3.80086,1.0476445696069994,0.10108356807014422
3.805448,1.1301283809655527,0.1087686407919847
3.810036,1.2186638640293495,0.11628546211381746
3.814624,1.3076541841328395,0.12396956872953932
3.819232,1.4009855899435337,0.1319658973609578
3.8238160000000008,1.4961363439130013,0.14048099416199267
3.8284,1.6078639513460447,0.14881865586131612
3.8330040000000007,1.735391162509162,0.15708854026811092
3.837592000000001,1.8823157151929444,0.1578736970737872
3.842184,2.051335912740335,0.1580913274770905
3.846772,2.234112475694213,0.15844537230999187
3.851368000000001,2.436652934311193,0.15850925525512186
3.855956000000001,2.653971377496453,0.15873667193653127
3.860552,2.887500120002852,0.1589152270938822
3.865136,3.1403040193157707,0.15891137677175157
3.869736,3.4172468018158844,0.15846624054642666
3.874320000000001,3.704881092237105,0.15833265734323593
3.878912,4.003084705865286,0.15860612756929945
3.8835,4.322484529909427,0.15859431114016787
3.888096000000001,4.657850283846416,0.15868099061074434
3.8927,5.012657520752699,0.1588009981476759
3.897292,5.387805675075922,0.15890437239884844
3.90188,5.777531585987765,0.15919050526822845
3.906468,6.184978154239124,0.1593161132327359
3.911060000000001,6.61091238993176,0.1590797165127295
3.915656,7.046153143162945,0.15823299068269128
3.92024,7.465638434112685,0.157575410515099
3.924832,7.872966000571571,0.15698042890155953
3.929424000000001,8.2640052244438,0.15652879366598335
3.934012000000001,8.636057802386429,0.1562119503175822
3.938604,8.996807948837224,0.15585497485962435
3.943184000000001,9.341025383273072,0.1555952604749787
3.947776000000001,9.669443213978845,0.1553581963879157
3.952360000000001,9.986270102315864,0.15506329358012177
3.956948000000001,10.286886691331743,0.15478499280492922
3.9615360000000006,10.568761003846316,0.15458449532406704
3.966128,10.839288743420425,0.1543027300055911
3.9707120000000007,11.093483998959249,0.1540135845577866
3.975308,11.327749032672196,0.1537652840369652
3.979896,11.545515256187088,0.15349905733360358
3.984492,11.740364443656238,0.15328083051781252
3.989068,11.91446201811738,0.15308022702599758
3.993668,12.07213882564598,0.1528307034768238
3.998252000000001,12.21621535429913,0.15251023335111993
4.002852000000001,12.343915257468371,0.15217816390106048
4.007432,12.456314535395855,0.1519160947948339
4.012028000000001,12.561918793701484,0.151649038945313
4.016632,12.66252690128055,0.1513670443376833
4.021224,12.754418935628323,0.1511007190969048
4.025812,12.841070449821242,0.15082291832666295
4.030404000000001,12.916962652459274,0.1505849389186571
4.034992000000001,12.98462752072259,0.15034566882672015
4.039580000000001,13.05167122578344,0.15006040605190865
4.044168000000001,13.109632303470558,0.14980554992374373
4.048756000000001,13.160309622679232,0.149565035221568
4.053348,13.203170303104258,0.14933202436091453
4.057924,13.239524474784348,0.14911028876857518
4.062520000000001,13.272559179919028,0.14886063624904614
4.067108000000001,13.306771590746536,0.14854991017107996
4.0717,13.336031992296112,0.1482441372676503
4.076288,13.368924033453169,0.14786599139868278
4.080876,13.39547589202806,0.14751389861935943
4.085472000000001,13.416342633040147,0.1471907438901791
4.090064,13.42809284486161,0.1469406831205639
4.094652,13.431914472817013,0.14676894302918483
4.0992440000000006,13.432016178267682,0.14662778368371643
4.103832000000001,13.435060556489585,0.14645890278102527
4.108428,13.435895370225127,0.14629418953979256
4.113004,13.43955067201776,0.14610571923880045
4.117604,13.448191884905212,0.14586919941115464
4.122184000000001,13.462229704478553,0.14559364646321965
4.126784000000001,13.478599273252398,0.14531059744357872
4.131372000000001,13.486263008426686,0.1451064153809708
4.135972000000001,13.495359058353833,0.14490133256606644
4.140564,13.505887423033839,0.14469537429374726
4.145160000000001,13.518747536914349,0.1444818962356595
4.149748000000001,13.532917780833575,0.14427192832212563
4.154344,13.55211807729625,0.14403703783648697
4.158939999999999,13.572750688511785,0.14380429503350048
4.163539999999999,13.594693429766032,0.1435753155677343
4.168132,13.612183140230668,0.14340020313254118
4.1727240000000005,13.63866719517178,0.143164436860001
4.177312000000001,13.671980171551642,0.14289331137153605
4.181903999999999,13.710445385189098,0.14259398173165727
4.186491999999999,13.755328824674235,0.14224924737123013
4.191084,13.807285555026407,0.14186180121435324
4.195679999999999,13.860674600131437,0.14147680145182948
4.20026,13.91794989390398,0.1410839088895728
4.204856,13.979355805772327,0.14067645950173327
4.209440000000001,14.041949662965235,0.1402818024011175
4.214036,14.106997454072804,0.13988183862147796
4.218624,14.178219101599757,0.13945051551919008
4.223212,14.260233962498488,0.13895281098549717
4.22782,14.345602191759516,0.13844314197181687
4.232408,14.436244842992286,0.13790842857186122
4.236996,14.532161916196795,0.1373491520051942
4.241584,14.629755673582459,0.13678583039214445
4.246172,14.724284573482738,0.13625580455684413
4.250768000000001,14.818569103954728,0.13574145993983347
4.255348,14.912975819140861,0.1352258988474191
4.259948,15.010080837669939,0.13469706053234046
4.264536,15.101422695370692,0.1342154863047344
4.269136,15.186468511937912,0.13377474608206924
4.273716,15.27098144819992,0.13333285073384987
4.278320000000001,15.354062069709071,0.1328958830419392
4.282916,15.43301207312242,0.1324783399315296
4.287516,15.510651946497054,0.13206059819871033
4.2921,15.585305005651826,0.13164933451008626
4.296696000000001,15.656194000853233,0.13124651699757112
4.301284000000001,15.720498444044186,0.13086835938682914
4.30588,15.783204246319505,0.13047947195029064
4.310464,15.836627193241428,0.13012940288596792
4.315048000000001,15.881911088685891,0.12980630415367087
4.319628,15.921876420709983,0.12949110951638693
4.324212000000001,15.956645374027854,0.12918170220548725
4.328804,15.983397460582408,0.12889388489388165
4.33338,16.006752037326038,0.12860070217626304
4.337964,16.02850797315403,0.12829293718319065
4.342548000000001,16.038038380857394,0.12803890737525386
4.347136000000001,16.049445700721574,0.12775559429492808
4.351732,16.057577695488966,0.1274632900573348
4.35632,16.06705372211196,0.12713616929978797
4.360916,16.078284476181622,0.1267826050423301
4.365504,16.086650600745568,0.126428347638172
4.370088000000001,16.092929345537296,0.1260723366779821
4.374692,16.100840633061548,0.1256940117631804
4.37928,16.109729398298967,0.12529187032470646
4.383876000000001,16.11550916460238,0.12489417281012102
4.388452000000001,16.119856616152926,0.12449599006795618
4.393048,16.125714425721856,0.12407758076889365
4.397636,16.128096682214338,0.12367394320417936
4.402244,16.134565415353993,0.1232411281434739
4.406832,16.140256898760143,0.12280861541775917
4.411432,16.15117866268941,0.12233774306167096
4.416024,16.159524307989876,0.12187609765718924
4.420616000000001,16.170690441347432,0.12139902812440834
4.425204000000001,16.18414418245687,0.12090239974263182
4.429796,16.196942858546944,0.12040423604895113
4.434396,16.216892868769577,0.11985397047355836
4.438988,16.231324087592178,0.11933200397289981
4.443576,16.24538875227234,0.11881977656920788
4.44816,16.257532363343064,0.11831965766783077
4.452748,16.271474843309083,0.11781383388585766
4.45734,16.285828018866166,0.11731700388112189
4.461924,16.299814640280815,0.11683029756945436
4.466520000000001,16.31433414200067,0.11635147582755932
4.471112,16.328242720149802,0.11589021705095391
4.4757,16.348202970004177,0.11541020052465335
4.480292,16.370617153773203,0.11492654969035691
4.4848680000000005,16.397039770923882,0.11443882681754276
4.489456000000001,16.42554976784678,0.11395680599900433
4.4940560000000005,16.456391513970182,0.11347603291553894
4.498635999999999,16.49634978928421,0.11295963301726768
4.503232000000001,16.53647439076101,0.1124621175315769
4.507828,16.58138467535297,0.11196016691590689
4.512423999999999,16.62989269773552,0.11144788607474099
4.517028,16.682409153499727,0.11093538998986048
4.521628,16.737257358464444,0.11042402111251176
4.52622,16.79623618152496,0.10990836903248907
4.530800000000001,16.86073379598551,0.1093723365150902
4.535400000000001,16.93111675598853,0.1088093906354244
4.5399840000000005,17.006651953249143,0.10823706257034559
4.544584,17.082309335223908,0.10766701405418527
4.549172,17.161275944112337,0.10707680242854477
4.553768,17.243185225772006,0.10647506517600505
4.558364000000001,17.32239620408873,0.10588598828915274
4.562956,17.401607182405453,0.1053007441727816
4.567540000000001,17.480163095702817,0.10471828851481338
4.572132,17.558963378428476,0.10413430121883638
4.576732,17.636331346401278,0.10355249426575884
4.581332,17.713166434068864,0.10296829253619214
4.585928000000001,17.786525968660012,0.10239645414256039
4.590524,17.854611081279412,0.10184442862627538
4.595112,17.918199021660573,0.10130903769242007
4.599696,17.982397885612468,0.10076399414290985
4.604284,18.04173302318368,0.10024337174489309
4.608884,18.089908393240684,0.09976420692622753
4.613476,18.137306513564184,0.09928728285602974
4.61806,18.18302794970654,0.09881625681698251
4.622648,18.22707270166774,0.09835057013442977
4.627224,18.26613154253412,0.09791109591963859
4.631808,18.299016526981106,0.09748834905540406
4.636404000000001,18.328303773637504,0.09707716749543244
4.640988,18.35284947862737,0.09668476577816965
4.645572,18.371099142483708,0.09630989453426227
4.65016,18.387794306873033,0.09593487513229706
4.654736,18.401136102900065,0.09556481332009255
4.659328,18.411779595584157,0.09520308417670578
4.663908000000001,18.41960260021115,0.09485169622306572
4.668495999999999,18.422928432599903,0.09451217457802488
4.673080000000001,18.424699765521655,0.09417246228027304
4.6776800000000005,18.42569384870991,0.09383262868425735
4.682259999999999,18.42272363996513,0.09350952813990718
4.686856000000001,18.420119985362792,0.09317863473100307
4.691436,18.411997539360414,0.09286381589707521
4.696028,18.40436383221462,0.09253854907964089
4.700608000000001,18.402859840039593,0.09218401709677443
4.7052,18.39595924117868,0.09184208517040651
4.709788,18.383539850917728,0.09151548650084342
4.71438,18.368177787885543,0.09120033145825122
4.718968,18.351261225386352,0.09088397689292485
4.723556,18.33356741315366,0.0905664311610781
4.72814,18.309211005644997,0.09027004320743662
4.7327200000000005,18.28689783645992,0.08996387173956859
4.737299999999999,18.267649524760227,0.08964295029090215
4.741884000000001,18.249422832222326,0.08931689651718594
4.746472000000001,18.233117193293864,0.08898386363204208
4.751064,18.211170578251227,0.0886672236103366
4.755656,18.18922396320858,0.08835018159103393
4.76024,18.17075290124239,0.08802734635827231
4.764836000000001,18.153059089009698,0.08770489765577438
4.769424000000001,18.135365276777005,0.08738211540882011
4.774016,18.119470333439605,0.08705485185539182
4.778596,18.10026616318854,0.08674549372376586
4.783196,18.081594873242683,0.08644117994626838
4.787784,18.06537751721148,0.08613633849148772
4.792376000000001,18.052391344828425,0.08583218431539044
4.796964000000001,18.047744451902503,0.08550620190081343
4.801564000000001,18.045551492891228,0.08517920283864461
4.806144,18.045690283080454,0.08485441754707666
4.810740000000001,18.04546251912725,0.08453692761898135
4.815336,18.051530796307574,0.08420737257512263
4.819932,18.06863665628797,0.08385098257209775
4.824512,18.083454908516487,0.08350859584533082
4.8290880000000005,18.100482725231362,0.08317199718290633
4.833667999999999,18.119842291146746,0.08283868941448078
4.838256,18.140634171814984,0.08251064706849699
4.842855999999999,18.171564200835647,0.08215954341578934
4.847436,18.202372045142162,0.08181141563771442
4.852028000000001,18.230237216677438,0.08147388343949874
4.856616000000001,18.257735834070278,0.08114467638578757
4.8612,18.287444015949486,0.08082152767555403
4.865780000000001,18.318951066723983,0.08049591054196444
4.870368000000001,18.36108500470748,0.08013935421620698
4.874972,18.410903157128747,0.07976232004424376
4.87956,18.457001387045274,0.07939515023930543
4.884148,18.498480260009416,0.07903984154989631
4.88874,18.53701646020232,0.0786962243308432
4.893328,18.5806607562042,0.07833468397465367
4.897920000000001,18.622872737453214,0.07796960774730265
4.9025,18.665206903416376,0.07760211874409005
4.907096000000001,18.7030438971413,0.07724365574909749
4.911684000000001,18.737527522503918,0.07688789093595785
4.916288,18.775198190066067,0.0765190293159706
4.92088,18.81053710842771,0.07614828633413613
4.92548,18.844443712036494,0.07577443335371749
4.930072000000001,18.875241316711268,0.07539731002762817
4.934668,18.899087815233152,0.0750272883280665
4.939252,18.92546629093521,0.07464133579645046
4.943844,18.95462111324572,0.07423439641296685
4.948428,18.980134056317016,0.07381690979993445
4.95302,19.001472239843885,0.0733834766354443
4.957599999999999,19.021333967169262,0.07293077743911118
4.962184000000001,19.028603612227567,0.07249548055832475
4.966768,19.023769913875388,0.0720670284316237
4.971360000000001,19.020035877950516,0.07161689604055746
4.975952,19.015724820271807,0.07114495923142541
4.980532,19.008793502515672,0.07065849799153608
4.985112000000001,18.99642143662502,0.07016364502905349
4.989696,18.98281728396117,0.06964287851623076
4.9942720000000005,18.97284477090481,0.06908493336121992
4.998876000000001,18.964094104989904,0.0685036760354766
5.003464000000001,18.952845363711713,0.06790470300751722
5.008064000000001,18.936278059013162,0.06729255556273879
5.012648,18.915169440627736,0.0666674765776478
5.017244,18.887476270231858,0.06603550295171284
5.021840000000001,18.853076363111377,0.06539743073795737
5.026415999999999,18.81658907621868,0.06474735873209436
5.0310120000000005,18.774050117620742,0.06409644226582432
5.0356000000000005,18.729179409822297,0.0634395246747429
5.0402000000000005,18.688272993956875,0.06277057854135855
5.044779999999999,18.64646714364381,0.06209933986413464
5.049379999999999,18.59877594778828,0.061438101954745465
5.053972,18.554516163560567,0.06075706444743876
5.0585640000000005,18.512832497961647,0.06007212715301331
5.063155999999999,18.465385671534403,0.05939436540504719
5.067748,18.41295293401234,0.058724909366366436
5.0723400000000005,18.354634850947804,0.05806375202852681
5.0769280000000006,18.291863737093657,0.05741727383428835
5.081516000000001,18.22811514552635,0.056786212697404886
5.0861,18.15456105793217,0.056188574915640076
5.090680000000001,18.068092475377107,0.05561448212286315
5.095272,17.974883254280563,0.05506340506605389
5.099864,17.87955275159491,0.0545312882414351
5.10446,17.78389983621545,0.05401768733226611
5.109052,17.690212115894056,0.05351240988307769
5.113628,17.60106570925953,0.05301702661325975
5.118220000000001,17.50685534826466,0.052546677477116104
5.122812,17.406925967890107,0.052096567062170515
5.127388,17.29641384175517,0.0516754379209787
5.13198,17.17184341678342,0.05128165052605717
5.136572000000001,17.041553972431977,0.05090827293988589
5.141159999999999,16.911308669529156,0.05054679090350334
5.145752,16.774611238961768,0.05022170736852078
5.15034,16.636936330681213,0.04991244802220639
5.154944,16.499838444154495,0.04962376070206727
5.159523999999999,16.363317579381615,0.04935590619828616
5.1641200000000005,16.225452682753133,0.04911202917621996
5.168699999999999,16.081624397316666,0.04889608478824205
5.173304,15.930811103910418,0.04871148638913076
5.1778960000000005,15.782618070581595,0.04854518404274643
5.182487999999999,15.641542469568439,0.04839628832642064
5.1870840000000005,15.503209313346852,0.048263277949564726
5.1916720000000005,15.362099810516806,0.04814972868716551
5.196268,15.222544807153763,0.04803855762577521
5.200851999999999,15.080213457182262,0.047946892443391724
5.205432,14.932529641973503,0.04787236503239555
5.210024000000001,14.78934299900298,0.04779554533569066
5.214612000000001,14.651430778004197,0.04771900739835979
5.219208,14.520347478444164,0.0476495281474396
5.223792,14.397769784504023,0.047590403207427565
5.228388000000001,14.2772794703361,0.04754458587586863
5.232976000000001,14.155811678455011,0.04752146184880973
