Time,Force,Position
2.831056,0.0030175313480462003,0.0
2.835648000000001,0.0030175313480462003,0.0
2.840236000000001,0.0030175313480462003,0.0
2.844824000000001,0.0030175313480462003,0.0
2.849416000000001,0.0030175313480462007,0.0
2.854004000000001,0.0030175313480462007,0.0
2.8585960000000004,0.0030175313480462007,0.0
2.8631840000000004,0.0025075179393259936,0.0
2.867776000000001,0.0016309503881687718,0.0
2.872356,0.0007543828370115502,0.0
2.876940000000001,0.0007543828370115502,0.0
2.8815360000000005,0.0007543828370115502,0.0
2.886124000000001,0.0,0.0
2.8907120000000006,0.0,0.0
2.895308,0.0,0.0
2.899892000000001,0.0,0.0
2.9044880000000006,0.0,0.0
2.9090640000000008,0.0,0.0
2.9136640000000007,0.0,0.0
2.918248,0.0,0.0
2.9228520000000007,0.0,0.0
2.9274440000000013,0.002295459750604103,0.0
2.932044000000001,0.006433929845132075,0.0
2.936636,0.012659779711875228,0.0
2.941232000000001,0.022894062960274953,0.0
2.9458080000000013,0.037914029323833434,0.0
2.9504040000000007,0.05387757158366792,0.0
2.9549920000000007,0.07336080836857631,0.0
2.9595840000000013,0.09762972826864344,0.0
2.9641720000000014,0.12656214656972364,0.0
2.9687600000000014,0.15889207468173205,0.0
2.9733400000000003,0.19748414211038604,0.0
2.977932000000001,0.24446987007652904,0.009393120657870105
2.982524000000001,0.3039018334104457,0.01865974160877722
2.987120000000001,0.3768016512739295,0.02771987832646472
2.9917160000000003,0.4643131275429196,0.03650488975314457
2.996300000000001,0.5618169052650313,0.04540820830673991
3.0008920000000003,0.6758533950020907,0.05399256548498197
3.0054800000000004,0.8027026742493607,0.06252963713181926
3.0100680000000004,0.9459624807974327,0.07087492247713152
3.0146680000000003,1.0992145887986264,0.0793241494097752
3.0192440000000005,1.2659266993306617,0.08761802051277909
3.0238320000000005,1.4437307737431293,0.09588391907213821
3.028420000000001,1.634059126788888,0.10408636702332867
3.033012000000001,1.8345019660019137,0.11228721888931255
3.0376080000000005,2.0422388033251178,0.12055867073964799
3.042196000000001,2.2676962979878366,0.12877491350981513
3.046792,2.509119722543404,0.13698988046620744
3.05138,2.7674967943367226,0.145238836817425
3.055976000000001,3.045525816710736,0.1534744069495187
3.0605600000000006,3.3466382012932634,0.16164189658985506
3.065160000000001,3.6656375693780814,0.1697710006587364
3.069752000000001,4.002347355170675,0.1683571558505304
3.074344,4.342410509325569,0.1670586773133029
3.078936000000001,4.6897913237757916,0.16587053151819683
3.083528000000001,5.03925951799823,0.16493994670597023
3.08812,5.399032186735858,0.16383198994216222
3.092712000000001,5.757949562474467,0.1630455535831338
3.0973000000000006,6.1208753715947335,0.16228763711002073
3.101884,6.481757942391412,0.16172178713266464
3.106464000000001,6.853555911274013,0.16097726254906758
3.1110560000000014,7.227807814071263,0.160345094411746
3.115640000000001,7.604024911926584,0.15975040001336624
3.1202240000000003,7.9828181284107025,0.15919261440468951
3.1248240000000003,8.364265506789138,0.15860090535383226
3.129404000000001,8.749877405080262,0.15789924759344998
3.1340000000000003,9.128283588158467,0.15723824888742885
3.138596000000001,9.498862892821283,0.1565330449282345
3.143180000000001,9.855186853589288,0.1557503693943782
3.1477880000000003,10.193124852366685,0.1549442258703365
3.1523640000000004,10.508834781934588,0.1541796554666499
3.1569640000000003,10.803093892026498,0.15343275736328596
3.161556000000001,11.071126739158998,0.15283983307989127
3.166144000000001,11.328590263084536,0.15219922174610065
3.170748000000001,11.564368837737533,0.15166151868025207
3.1753400000000003,11.784836547517036,0.15111822563477756
3.179932000000001,11.988438892956045,0.1505894914900223
3.184520000000001,12.177629807969213,0.15003940919537337
3.189120000000001,12.353308727004181,0.14946825441815645
3.193696000000001,12.513843107328432,0.14889929405605618
3.198300000000001,12.651138038913139,0.14841252538781594
3.2028920000000003,12.77148956289183,0.14795010139091871
3.207488000000001,12.881393948377708,0.14742425000817377
3.2120800000000003,12.975376545419365,0.1469065824065317
3.216676000000001,13.052049180712576,0.14641881320825006
3.221272000000001,13.11398797288613,0.14594414045544546
3.2258640000000014,13.166878039502842,0.14545163970243238
3.2304600000000008,13.207698664525955,0.14499501665654838
3.2350520000000014,13.24152404194755,0.1445660516690907
3.2396400000000014,13.26990867123463,0.144158139743083
3.244224000000001,13.295306486301843,0.14375875163380847
3.248816000000001,13.318250367454404,0.14337220613995003
3.253404000000001,13.340783553015903,0.14297583568083108
3.2579920000000016,13.359230261930225,0.14262431335063114
3.262576000000001,13.37816570970113,0.14225641635467715
3.267168,13.396201723024388,0.14189597526301775
3.271756,13.411950128595768,0.1415661593844289
3.2763480000000005,13.428842338043085,0.1412236177531655
3.280932,13.442669690005022,0.1409131309226302
3.285508,13.464547810547163,0.1405281239961224
3.290104000000001,13.494520841118135,0.1400897416659649
3.2946920000000013,13.524493871689106,0.13965296566645719
3.2992800000000013,13.550380425612904,0.13925876308648802
3.303884,13.577166413984349,0.13886036058197465
3.308472,13.606772890412884,0.13844141087355197
3.3130640000000007,13.634869008823042,0.13804871344482575
3.3176440000000014,13.662720757804909,0.13766613007597311
3.3222320000000014,13.696746363206167,0.1372493299698731
3.326820000000001,13.735146956131517,0.1368105474710742
3.3314200000000014,13.776123667685663,0.1363607556907539
3.336012,13.81824418311575,0.13590031509622802
3.3406080000000014,13.864328990478867,0.135409034701591
3.3452,13.914788785366078,0.13489589343305913
3.3497920000000008,13.965126395539139,0.13438810041032198
3.3543920000000007,14.020738427683945,0.1338542424262707
3.358988,14.078682209029255,0.13331771790706345
3.363588,14.134949306193416,0.13278942629517498
3.368184000000001,14.19199365309108,0.13226391616800348
3.372776,14.251736303331686,0.13172467466001098
3.377364,14.306126488335034,0.1312443888450769
3.3819440000000007,14.356141685814288,0.1307913628064568
3.3865360000000013,14.407178502455336,0.13033207626189205
3.391116,14.462956860762914,0.12984358442127678
3.395696000000001,14.517058534889342,0.12936397443734945
3.400288000000001,14.570260774568123,0.12889228367709923
3.404876,14.628693294770017,0.12837752095330984
3.4094680000000004,14.690068487743147,0.1278458890304321
3.4140560000000004,14.745269824296887,0.1273491060090055
3.4186440000000005,14.798017226935972,0.12686463213166974
3.4232560000000003,14.847166891784468,0.1264013371588342
3.4278440000000003,14.896072187204673,0.1259479811852085
3.4324440000000003,14.94330079844373,0.12550482096105706
3.437036000000001,14.988974910215779,0.1250674597144283
3.4416400000000014,15.036814445025563,0.1246129025020326
3.446232,15.080278992311253,0.12418093068891861
3.450824000000001,15.123577213434167,0.12373615502586892
3.4554280000000013,15.170839726490112,0.12326522720719295
3.460028000000001,15.213605067307816,0.12281823618490012
3.46462,15.256859146982103,0.12236120667100904
3.4692000000000007,15.298803096617679,0.12190116725807498
3.4738000000000007,15.339070362072105,0.12144769826710655
3.4783880000000007,15.378682562507173,0.12099429366429665
3.4829880000000006,15.412120906522851,0.12057010861284609
3.487572,15.448746292738056,0.12012225284473746
3.492172,15.4865154828292,0.11966582544364252
3.4967560000000013,15.519010250948604,0.11923409800015573
3.5013520000000007,15.546352781810409,0.11882312966103226
3.5059440000000013,15.577004539585888,0.1183851393779465
3.510536,15.603281309837275,0.11796496815927442
3.515124,15.633111676430621,0.11751149681799763
3.5197160000000007,15.660854663251754,0.11705529288097255
3.524296000000001,15.689863638662972,0.11658856181008476
3.528888,15.717806853463767,0.11611246522835565
3.5334640000000004,15.743907057920639,0.11562808106600372
3.538048,15.77061818594824,0.1151289732486071
3.542632000000001,15.7946310106329,0.11464290888024883
3.547220000000001,15.816189901402904,0.11416399940831823
3.551812,15.839014780762994,0.11367177995608457
3.5564,15.857709042027281,0.11319025180244241
3.5609800000000007,15.874848803824566,0.11271007342873679
3.5655720000000013,15.893254554211936,0.11221741032259455
3.5701600000000013,15.909206370684654,0.11173012750393539
3.574764,15.92617980631916,0.11123603668242807
3.5793560000000006,15.936490646677699,0.11077720081632121
3.5839440000000007,15.945124802855085,0.1103236722590456
3.5885360000000013,15.953758959032472,0.10987031740281086
3.593128,15.96149368076221,0.1094203923668146
3.5977240000000013,15.967062979454218,0.10898806473052382
3.602304,15.975574950917458,0.10853894027575459
3.606900000000001,15.97987826101938,0.1081198650155696
3.611488000000002,15.985858255302452,0.10769765863995108
3.616092,15.98493128488126,0.1073149608239513
3.62068,15.978774033936956,0.10696703424886772
3.625276000000001,15.970206990526629,0.10664113615413474
3.6298600000000008,15.957675655183275,0.10633731951560761
3.634456,15.946165939001709,0.10602694703430483
3.639044,15.931713550048912,0.10573219293406698
3.643640000000001,15.920203833867347,0.10542156433144378
3.648228000000002,15.909226997990995,0.10511647675711633
3.6528240000000007,15.903113888495318,0.10478636803146099
3.6574120000000008,15.896878594285493,0.10445951728535233
3.662008,15.891176180380885,0.10413832299156194
3.6665920000000014,15.887394820085714,0.10380802262386869
3.671192000000001,15.888355001457077,0.10345570823401207
3.6757880000000007,15.888293563666645,0.1031097099095913
3.680380000000001,15.889908810057362,0.10276094560674517
3.684964000000001,15.891157502305642,0.10242083107590068
3.689552000000001,15.891628944820422,0.10208089928895213
3.6941440000000014,15.8921003873352,0.10174139769826224
3.698724,15.896536121783006,0.10138122465797378
3.703308,15.898151368173723,0.10103322520349729
3.707904000000001,15.904752525659264,0.10065814095855986
3.712492000000001,15.91928226701086,0.10024160253268377
3.717088,15.936632496419545,0.09981381305684126
3.7216840000000015,15.963221439733001,0.09935262454348251
3.72626,15.99046544806581,0.09889606318864833
3.730856000000001,16.020407759741566,0.09843108308395532
3.735444000000001,16.047407398646087,0.09798227966627594
3.740040000000001,16.07734971032184,0.09752064937084168
3.744628000000001,16.10410497979807,0.09708147500511499
3.749228,16.13278130288374,0.0966357394184599
3.753812,16.16260142984535,0.09618214648947943
3.758412,16.19127775293102,0.09573864060611442
3.762996000000001,16.2163563382261,0.09530630507913795
3.767588,16.241801477663614,0.09486576536393165
3.772184000000001,16.26364887931054,0.0944360106096768
3.776780000000001,16.28868332315699,0.09398736890623649
3.781376,16.316416070346385,0.09353245487852187
3.785976,16.344926067269284,0.09307948605208925
3.790568,16.370615576135087,0.09263847962586401
3.795160000000001,16.397448888876838,0.09218943695126702
3.799748000000001,16.424160016904437,0.09174508743277929
3.804336000000001,16.448705721894306,0.09131669527513495
3.808924000000001,16.47055312354123,0.09089622910592648
3.813508000000001,16.48802553766406,0.09048757193874356
3.818088000000001,16.50472070205339,0.0900794046230813
3.822676000000001,16.52166023587101,0.08966637283474801
3.8272600000000008,16.53925483470799,0.08925722827650469
3.831852000000002,16.554928379935525,0.08885678163609569
3.836436000000001,16.567004187372465,0.08846494634314575
3.841036000000001,16.57715894119997,0.08808151772545607
3.845624000000001,16.58845749890341,0.08769124487671488
3.850212000000001,16.601022045196935,0.0872913566908577
3.854808,16.620249186766433,0.08686942389965607
3.8594040000000014,16.642052446964726,0.08644537777202219
3.864004000000001,16.667819999096054,0.08600523933534107
3.868596,16.69268811677973,0.08556859988759537
3.873192000000001,16.713958496672817,0.08514100573951605
3.8777680000000014,16.733185638242315,0.0847237167406279
3.882368000000002,16.753434398973607,0.08430238669586783
3.8869560000000014,16.77535984388605,0.0838808999156956
3.891556000000001,16.794709170169693,0.08346315532582825
3.8961440000000014,16.813036877291545,0.0830511026117911
3.900744000000001,16.83406288775634,0.08263403109116153
3.9053400000000007,16.8521462254499,0.08222876893052256
3.909932000000001,16.8695744981241,0.08182056728342665
3.914520000000001,16.88790220524595,0.08141172968490507
3.9191160000000007,16.90659646651024,0.08099549779729721
3.9237040000000007,16.925412912488678,0.08057745305696169
3.928296000000001,16.95089195374308,0.08013981154337299
3.9328840000000014,16.97649317971163,0.07970054973697627
3.9374800000000008,17.001850036251895,0.07926835570338045
3.942072000000002,17.027984142525657,0.0788391659898189
3.9466600000000014,17.05399606408527,0.07841600482567658
3.9512480000000014,17.081151789520828,0.07798846406933434
3.955844000000001,17.110106383851672,0.07756013160781801
3.9604360000000014,17.14110421650611,0.07712535842232893
3.9650240000000014,17.17516690664593,0.07667931989670715
3.969624000000002,17.21086213951827,0.07621716242411332
3.974204,17.249744414590133,0.07574280397677755
3.978796000000001,17.289892678252087,0.07526163121462531
3.983384000000001,17.334782483580568,0.07477034344286441
3.987972000000001,17.383103700536864,0.07426219628613129
3.99258,17.430769852473812,0.07375223370218591
3.997168,17.48047924273434,0.07323560730816431
4.001772000000001,17.531210252156665,0.07271689900103998
4.006368,17.579487327664335,0.07219853026252987
4.010956,17.628375326742734,0.0716696306494766
4.015564000000001,17.67660826080178,0.07113847598142023
4.020148000000001,17.719688957603225,0.07061143734444753
4.024740000000001,17.76145952436596,0.07007793607498904
4.029328000000001,17.80024327690883,0.06953752997173628
4.033916000000001,17.833874792194102,0.06899976374016496
4.0384920000000015,17.858511963002897,0.06847372893983034
4.043088000000001,17.87595365823051,0.06795696562600796
4.047672,17.885300443429298,0.06744971459777484
4.052264000000001,17.89129386026578,0.06694249471997826
4.056856,17.89573277763526,0.06643316327222869
4.061448,17.899394445271238,0.06592296527465176
4.066036,17.89537189846945,0.06543027975691874
4.0706240000000005,17.888895417753005,0.06493613768874085
4.0752120000000005,17.87612289590303,0.06444820394722196
4.079796,17.856032713757724,0.06396918528788927
4.084372,17.833610782411917,0.06348455811247372
4.088964000000001,17.8096343515991,0.06299612034811643
4.093548,17.785002855766937,0.06250328531274864
4.098128000000001,17.762536782972496,0.06200119256640284
4.102712,17.735862048816735,0.06151319037673559
4.107296,17.70853224964162,0.06102018074489724
4.111880000000001,17.685699622704742,0.06052367697267861
4.116492000000001,17.66429931052073,0.06003282890626617
4.121076,17.64547511696551,0.05954204085361601
4.125676,17.629227042039087,0.0590509354448161
4.130268000000001,17.618619943226847,0.058550483832887384
4.134856000000001,17.60662467111037,0.058057874182210714
4.139448,17.601169809555724,0.05755595598799992
4.1440280000000005,17.592405721087406,0.057066440964958755
4.148632000000001,17.57943297125777,0.05658992310739008
4.153208000000001,17.56315099451446,0.056126026310334615
4.157808000000001,17.550588940275883,0.055656758871575736
4.162388,17.533818224675993,0.05520018056129437
4.166988,17.51770257409546,0.05474665374170205
4.171572000000001,17.50379648800128,0.05430040921748795
4.176164,17.489401663050526,0.05386284339990908
4.180752,17.469121492557296,0.053434945616683834
4.185344000000001,17.443488856826804,0.05302424361151978
4.189932000000001,17.410338332821325,0.05263852859123764
4.194528,17.376821254673413,0.05225839395051988
4.199108000000001,17.33668572269815,0.051902269347314456
4.203700000000001,17.284535130209658,0.0515718828939577
4.208288000000001,17.221757650512163,0.05125632518773665
4.212868,17.151584467253826,0.05096263540237917
4.217464000000001,17.073482700129436,0.05068297848999429
4.2220520000000015,16.98426530693946,0.050427667323546546
4.226648000000001,16.897501847664138,0.05017464243153817
4.231236000000001,16.800400012056734,0.049948696368997396
4.2358280000000015,16.699089515088005,0.049733255615638315
4.24042,16.593570356757958,0.049528345027757006
4.245008,16.48372035235245,0.04933694207866991
4.249616000000001,16.365697394652592,0.04916453632810135
4.254204000000001,16.240523102820173,0.04900837038517791
4.258812000000001,16.105376988798117,0.04887133347431184
4.263404000000001,15.957560749243472,0.04875413159982991
4.267992000000001,15.799650502785035,0.04865921755219898
4.272580000000001,15.6378201058422,0.04858985361457373
4.277172,15.468183309747452,0.048532667606234585
4.281768000000001,15.294582221719677,0.04848267601843751
