Time,Force,Position
4.245688,15.580977293564263,0.05053068497996399
4.250276,15.543893196520973,0.05028166396798986
4.254872,15.497203831430474,0.050046236902078864
4.25946,15.443485316921564,0.049826611545304746
4.264052,15.383881456870187,0.04961757256104088
4.26864,15.319413870438131,0.04941625926209236
4.273219999999999,15.249716003482964,0.04923035619244431
4.277828,15.178874332651858,0.04904845787758928
4.282416,15.105212173763661,0.04886799401285886
4.287019999999999,15.026197549638207,0.048705724344107394
4.291604,14.941708275561346,0.04856466740742953
4.2962,14.854154143999105,0.04843077237036465
4.3008,14.763535154951485,0.048304079921262795
4.305392,14.671772362027925,0.04818187788186266
4.309988,14.571714431095872,0.04808444744620526
4.314564,14.464993904887846,0.04799420274539114
4.319164,14.352265848423205,0.047917414231081576
4.3237440000000005,14.232630827254305,0.04785437704645332
4.328344,14.108787144724083,0.047805027081155464
4.332935999999999,13.97852523634618,0.04775745826332979
4.337532,13.839024614063506,0.04771494479058084
4.342116,13.69850237261904,0.04767474094627045
4.346699999999999,13.558757380908075,0.04763684827956339
4.351299999999999,13.418112954749464,0.04759844920026549
4.355896,13.267741075829498,0.04757890215118579
4.3604840000000005,13.106864494414676,0.04757510600308386
4.365068,12.944189044104562,0.04757040409296829
4.369656,12.770642337157152,0.047592585203122234
4.37424,12.584547689391302,0.047638655157528506
4.378828,12.392034815777771,0.047689500700379084
4.383424000000001,12.196168573801943,0.04773393264602249
4.388016,11.99478354042608,0.04778199506626334
4.392604,11.790045138687919,0.04782215148369462
4.397204,11.578111261368575,0.04786292077801069
4.401788000000001,11.361924581239283,0.047898181902758956
4.406368,11.14099635944346,0.04794199261040852
4.410951999999999,10.912872662066452,0.047988552595956274
4.415539999999999,10.6786972929842,0.04802793999513051
4.420132,10.443866858882592,0.048059632542577016
4.424727999999999,10.206338121438042,0.04809004497416924
4.429315999999999,9.967909949545843,0.04812117715009298
4.433908,9.723063551805964,0.04815873758086736
4.438488,9.470899493770759,0.04820330351126678
4.443079999999999,9.21321664433552,0.048255453707425455
4.447667999999999,8.956555414062073,0.04831148931307166
4.452267999999999,8.698916706075462,0.048430651796680026
4.456855999999999,8.437157619624786,0.04868598261363859
4.461443999999999,8.17876214116815,0.049139839065263514
4.4660280000000006,7.934811994954246,0.049819194299776125
4.470619999999999,7.701587258478337,0.05072881638940655
4.475219999999999,7.474468574788039,0.05187979195903242
4.4798160000000005,7.250346944949342,0.05327274189127025
4.484412,7.029999618695751,0.05491628066467121
4.489012,6.818945387427297,0.05680373171031213
4.493604,6.616162631982183,0.05895234595478665
4.498195999999999,6.424882536008568,0.061378192832279445
4.502783999999999,6.251767694782424,0.06401852002501622
4.507371999999999,6.093997620246659,0.06688054052843072
4.511959999999999,5.943843956514883,0.0699775798142744
4.516564,5.806458940844687,0.07329792025099705
4.521156,5.683763626845516,0.0768109679309748
4.52574,5.5802551867556085,0.08047916414624799
4.5303320000000005,5.496955239736758,0.08428663656454115
4.5349200000000005,5.431165482446021,0.08825423387271077
4.539511999999999,5.380798535111182,0.09234677812835604
4.544099999999999,5.349363852625575,0.09643477367218577
4.548692,5.333541968443792,0.1003973991579449
4.553287999999999,5.325882797924617,0.10415478676732493
4.557864,5.317714409285381,0.10764021656571537
4.562448000000001,5.305605390898269,0.1109594423337421
4.567052,5.293031295839724,0.11408342664785055
4.57164,5.286454491406057,0.11699424025600272
4.576232,5.287551661778415,0.11964798490389386
4.58082,5.293746688328003,0.12204288670209308
4.585424000000001,5.304262321321317,0.12417627243587631
4.590000000000001,5.318521539004519,0.12595419244985706
4.594596,5.3315384302827855,0.12746342079230621
4.599184,5.338982149080654,0.12882634965087575
4.603784,5.3485810512845156,0.12995896133125034
4.608376000000001,5.359924441303306,0.13082475801419433
4.612968,5.367615712451138,0.13150635745844091
4.617556,5.372143603584595,0.13196337650328122
4.622152000000001,5.370321072504146,0.1322829224599242
4.626740000000001,5.365990226428679,0.13239578828943513
4.631332,5.356374718749733,0.13241182971409085
4.63592,5.342906864220165,0.13233241994594136
4.640512,5.324364815698519,0.13225455798187385
4.6451,5.311341558576904,0.1320826170731787
4.6497,5.295541954846831,0.13201495526993667
4.654284,5.286937826697939,0.13183475677840345
4.658880000000001,5.28270868607314,0.13159233037283175
4.663472,5.28244383738137,0.13126361913333817
4.668052,5.278703435613156,0.13098095658489156
4.672643999999999,5.271854034910931,0.1307148981242105
4.677231999999999,5.263450134741702,0.13045690432829074
4.681807999999999,5.251081942639445,0.13028431388624412
4.6864040000000005,5.234871643318307,0.13018735531772396
4.6909920000000005,5.223647255091988,0.12997819156796722
4.695588,5.208947313789225,0.12981694079951842
4.700183999999999,5.190771819410015,0.1297023320966707
4.704771999999999,5.173617944192599,0.1295622690704259
4.709376,5.151600342594508,0.12952423963928653
4.713976,5.130726544872356,0.12945020371077787
4.718568,5.112551050493147,0.12932879678575798
4.723147999999999,5.100260901656409,0.12908059521193013
4.727752,5.087848568105526,0.12884156396191715
4.73234,5.075314049840494,0.12861180904234693
4.73694,5.055217501851845,0.12852502743962851
4.74152,5.043704602748608,0.1282696138088586
4.74612,5.0296155850165745,0.12804474554817175
4.750704,5.012950448655743,0.12785065722510455
4.755296,4.993464824237821,0.1277068253741406
4.759884,4.9757780687151945,0.127535314301654
4.764475999999999,4.959401443231282,0.12737605641780622
4.7690600000000005,4.9460896752327494,0.12714196848808512
4.773651999999999,4.9343324067012215,0.12689914358107598
4.778239999999999,4.926583571551351,0.12662577067884767
4.782824000000001,4.9202670511543385,0.126355265025555
4.787412000000001,4.918569887709711,0.12600251314981628
4.792004,4.920226092627383,0.12561435128780557
4.796600000000001,4.923558981726206,0.12520921217540468
4.801184,4.929345804739681,0.12477851103044954
4.805784,4.938485996115455,0.1243158954525712
4.810368,4.938798169177525,0.1240394951989929
4.81496,4.9351460503065665,0.1238507710698058
4.819552000000001,4.9339478653502615,0.12364229683590189
4.824127999999999,4.934548549289251,0.12340580210857338
4.828740000000001,4.941034578770711,0.12304519601910416
4.83332,4.942412512443201,0.12280636699041395
4.837912,4.94497839144026,0.12259107032218126
4.842508,4.949753834923679,0.12237493829015093
4.847091999999999,4.954284908978808,0.12217874829631147
4.851688,4.962413720824529,0.12192960037331617
4.856276,4.976305693498573,0.1215733634681853
4.860872,4.987665688992448,0.12130612043751943
4.86546,5.002745606991059,0.1209789077116616
4.87006,5.015493775789164,0.12065999703392458
4.87464,5.0254214565301805,0.12039149699158587
4.87924,5.0380474406141404,0.12008955562571687
4.883831999999999,5.046953502193362,0.11984865124986922
4.888424,5.051650902411264,0.11970742426164385
4.893012,5.058147171524462,0.1195406422685892
4.897607999999999,5.0617007678664265,0.1194332549708145
4.902212,5.0746152628273045,0.11916804081199796
4.906804,5.090105876416982,0.11887588646054557
4.911392,5.102243121644358,0.11861660130031162
4.915988,5.116956485500531,0.11833255138056029
4.920576,5.129382241604828,0.11811522753010305
4.925159999999999,5.142829616870918,0.11787483532948353
4.929747999999999,5.156276992137007,0.11763381395100216
4.93434,5.170868171279036,0.1173616264085966
4.938935999999999,5.188279838478154,0.11704411859494518
4.943523999999999,5.2068353095532105,0.11670369820494572
4.94812,5.219505435085798,0.1164762416447326
4.952696,5.2351182333896205,0.11619556776552636
4.95728,5.246644555046268,0.11600060060076789
4.961875999999999,5.262301494798718,0.11577752186924052
4.966463999999999,5.278080619265315,0.11554383263100161
4.9710600000000005,5.289240386779526,0.11537955195343672
4.9756480000000005,5.304120076798474,0.11516075026091001
4.9802360000000006,5.3270505353976265,0.1147877590009942
4.984832,5.3484264945297735,0.1144194679477034
4.9894240000000005,5.369924638376065,0.11404225331977993
4.994027999999999,5.387947229145912,0.1137054914053181
4.998615999999999,5.404415320448754,0.11337465368611138
5.003212,5.421660661485099,0.11304237867718928
5.0078000000000005,5.435430449444995,0.11274618160206
5.012391999999999,5.452920159909632,0.11240169823910622
5.0169760000000005,5.470776424516704,0.1120309481015892
5.0215760000000005,5.491042481589801,0.11159689867724794
5.026172,5.5132295922723396,0.11113890275241928
5.030755999999999,5.533740018773727,0.11069599791017819
5.035348,5.548365099732646,0.11035212749876891
5.0399400000000005,5.566954472624593,0.10994369426601602
5.0445400000000005,5.583867161335388,0.10954928365153906
5.0491280000000005,5.604988511407504,0.10907392619308552
5.0537160000000005,5.627620219497997,0.10855470308584307
5.058304000000001,5.65384966537908,0.10800089611733446
5.062892000000001,5.684698468212549,0.10739712798106323
5.067476,5.714770021312516,0.10680014258801969
5.072056000000001,5.740755097765309,0.1062834552341577
5.076631999999999,5.770215727294547,0.10574344373298154
5.081216,5.802252475452583,0.10518970913699134
5.085804,5.83314541973468,0.10466130302971183
5.090388,5.862772375426692,0.1041660704144137
5.094983999999999,5.893176580852208,0.10367214761976341
5.0995680000000005,5.927178524068313,0.10314693551900123
5.104156000000001,5.955783860598531,0.10267711455649249
5.108747999999999,5.985821511881609,0.10221873140890692
5.113335999999999,6.019334716241132,0.10174796585098886
5.11794,6.052970105314801,0.10127876392492005
5.122516,6.090081047464915,0.10079212367895647
5.127112,6.133199519871646,0.10022310640194777
5.1317,6.170799200878342,0.09971068544109675
5.136296000000001,6.211874434961485,0.09918214938961634
5.14088,6.252827484330482,0.0986720176765633
5.14548,6.288672437890512,0.09824251749584992
5.150060000000001,6.323862326431185,0.09781211767191202
5.154660000000001,6.3541884885911815,0.09744334816955891
5.159252,6.38529190048468,0.09707899233443659
5.163848000000001,6.418438550701767,0.09669018997372092
5.16844,6.449786332023557,0.09631941787450943
5.173032,6.479579613878342,0.09595144973050282
5.17762,6.513992252685513,0.09554594038906151
5.182212000000001,6.5535129873016515,0.09507530277372372
5.186804,6.595199144955524,0.09457569134574005
5.191392,6.63340974953295,0.09409821482238366
5.19598,6.677139145510408,0.09357914262198172
5.200576000000001,6.720335661182656,0.09304988346209234
5.205168,6.752250224626547,0.09262477202202647
5.209756,6.781222115299202,0.09223634407137242
5.214336,6.806962822323703,0.09185561757210105
5.218924,6.82694036851988,0.09153416244610799
5.223503999999999,6.8525588908302355,0.09116490033980892
5.228115999999999,6.872247926149493,0.09081736684035409
5.232696,6.88858359310645,0.0904814126196714
5.237288,6.907329052529432,0.09010033291053357
5.241879999999999,6.925419446933057,0.08971503311783711
5.246472,6.94526456878335,0.08927682923187512
5.251064,6.960856887823694,0.0888524670892661
5.255655999999999,6.971419154320589,0.08844135162414477
5.260248,6.9837361482641525,0.08798093522785308
5.264836,6.994865196883146,0.08749878094148258
5.269436,7.000186943225189,0.08702696160598003
5.274024,7.001133702043138,0.08657623971988522
5.278628,6.997949842765284,0.08613102948255782
5.283216,6.998075210401103,0.08563948603842182
5.287816,6.991371656598177,0.0851659594602405
5.2924,6.981436919147096,0.08468999939710656
5.296995999999999,6.978653515828569,0.08413251023013321
5.301588,6.972638928861888,0.0835709671238727
5.306183999999999,6.963803853838118,0.08302802691921857
5.310771999999999,6.9546802679374276,0.08245289247643672
5.315364,6.9450238017315264,0.08186579892924319
5.319956,6.940231061906301,0.08123661975102744
5.32454,6.932984388166426,0.080603704561311
5.329128,6.925449203549628,0.07994321336887446
5.333723999999999,6.913172477266301,0.07931439512495793
5.338311999999999,6.899096882087679,0.07869201953844884
5.342911999999999,6.887308894660935,0.07803205721627052
5.347504,6.8727004191771,0.07738346826803258
5.352092,6.8502855445413555,0.07679609646369975
5.356684,6.823784193258437,0.07624596191370117
5.361263999999999,6.799203895584959,0.07567735004165368
5.365856,6.774623597911483,0.07510605427577743
5.370451999999999,6.74685625803848,0.07456741107799476
5.375039999999999,6.715246810946594,0.0740543918779223
5.379644,6.6863356671976515,0.07352589514433744
5.384232,6.658079588468065,0.07300272645179737
5.3888240000000005,6.626103587233742,0.07249662273641182
5.393408,6.597969693218301,0.07195911424360535
5.397992,6.573022841402388,0.07138085659173281
5.402596,6.55347259627236,0.07078198036971244
5.407176000000001,6.528403559742301,0.07020570090058503
5.411772,6.499370231279213,0.06965975381231494
5.41636,6.475611324787866,0.06910012230870251
5.42096,6.451119310011645,0.0685791396384004
5.425548,6.433412075225542,0.0680106945482179
5.430140000000001,6.4162377207446495,0.06745699736498362
5.434728000000001,6.398574627407173,0.06692800842093441
5.439324,6.391171867136261,0.06635083726451473
5.443916000000001,6.39300782077012,0.06573529215468907
5.448508,6.4007291199464476,0.06507693729499495
5.453104000000001,6.409227668856278,0.06442431911416087
5.457692000000001,6.417726217766108,0.06377193587230932
5.462267999999999,6.434031165827849,0.06306947781795554
5.466852,6.448170690851858,0.06238727047341761
5.47144,6.464231269485308,0.061697461497448654
5.476031999999999,6.483889585909349,0.06100244019123738
5.480619999999999,6.50714564012398,0.060301437246594994
5.4852,6.529257890462673,0.05961814293770298
5.489783999999999,6.548060913887695,0.0589732953689252
5.494368000000001,6.560978591770247,0.05836684285024447
5.498948,6.573529715510362,0.05777520344411694
5.50354,6.5850592200886835,0.05718916809254001
5.508128,6.5937682366099155,0.05661685407527052
5.512716,6.59990113450235,0.05604069439831182
5.517312,6.600270871566459,0.055493580705219224
5.521892,6.59782012057348,0.054953300517792236
5.526483999999999,6.597534792618235,0.05439155951663129
5.531064,6.589565250225222,0.05386658222761985
5.535659999999999,6.574933112556239,0.05336835196295752
5.540247999999999,6.553149640754699,0.05291841790241864
5.544844,6.526502442572485,0.05248816008121318
5.54944,6.496912571619035,0.05206881597135074
5.554032,6.457473063190088,0.051698650257766515
5.558611999999999,6.420854042818228,0.0513158199961128
5.563204,6.378105307475608,0.05097274950680106
5.567804,6.326895107961721,0.05064996128017112
5.572396,6.267878509295922,0.05035978751332835
5.576984,6.2066964875923905,0.05008655789634514
5.581575999999999,6.146291715622361,0.049816201908202726
5.586156,6.0829442708810975,0.04955633800723042
5.590739999999999,6.018697391692187,0.049290686242850386
5.595332,5.951385655017893,0.0490420245238366
5.599908,5.877166953639338,0.04882631997046679
5.604492,5.798617406185317,0.0486516872500847
5.609075999999999,5.7147153934940365,0.04852823914469635
5.613663999999999,5.628647957765023,0.0484259778698037
5.61826,5.534285384027516,0.04839249947471335
5.622839999999999,5.439434071433425,0.04838826450524149
5.627424,5.338819598011012,0.04840928008596129
5.63202,5.2398818087697485,0.048440601413371503
5.636596,5.144297387890785,0.048485108565196354
5.641191999999999,5.046303174545797,0.04857299579712725
5.645772,4.952028883705546,0.04865134825516715
5.650367999999999,4.851869247322826,0.048765297567467725
5.654948,4.751953980368396,0.04885997733680787
5.659544,4.65473701675691,0.048952562805699255
5.664124,4.561117790936018,0.04904644632260399
5.66872,4.463656457896241,0.04916318305053975
5.6733,4.363619006227666,0.04926636942325013
5.677891999999999,4.268323096225623,0.04934598156476376
5.682479999999999,4.176258369871732,0.049454087008805346
5.687072,4.084071458803697,0.049577984069212995
5.69166,3.9966260894021928,0.0496831332333864
5.696243999999999,3.9122455774860683,0.04976059438546747
5.700831999999999,3.832850976664766,0.04979973294702924
5.705424,3.756399048614698,0.04981690599466565
5.710016,3.682234728316509,0.04979292592991279
5.7146040000000005,3.602673801332433,0.04977563633248649
5.7191920000000005,3.528876035176681,0.04971704076161771
5.723768000000001,3.454423204001572,0.049632564170527374
5.72836,3.375351015874079,0.04956421927334079
5.732948,3.2983220660701726,0.04947353151884969
5.737532000000001,3.222192550713914,0.04937542524803396
5.742132000000001,3.1499051425765385,0.04924621508093057
5.746720000000001,3.077251180296726,0.04915365281725181
5.751304,3.004475033302767,0.04907072777110344
5.755895999999999,2.931821071022954,0.04896809950837028
5.760496000000001,2.862109781514376,0.04883084805811035
5.7651,2.792031937863362,0.04873390933772776
5.769688,2.71541368365052,0.04866054980638842
5.77428,2.63262157301829,0.04857445680292639
5.778868,2.555836992642675,0.04838044111911314
5.783464,2.477009173943473,0.04821687874744262
5.788052,2.3972819207966234,0.04803460972461388
5.792648000000001,2.3130574954115346,0.047826056753653846
5.797232,2.2289552547405904,0.04756666573818339
5.801824000000001,2.1447308293555016,0.04730573918290928
5.806411999999999,2.0650035762086514,0.047047900081612797
5.811004,1.9820892808622752,0.04687142385845966
5.815600000000001,1.9027727233064904,0.04667077015560114
5.820196,1.8226789160172034,0.04643043076481965
5.824772,1.7414413048519772,0.04625833703189417
5.829368,1.657383205629662,0.046087250241020554
5.833956,1.5742245408549946,0.04369008528767103
5.838544,1.4909436913661813,0.041275335327120695
5.843136,1.4067634074297204,0.038860093880084476
5.847724,1.3196404507220247,0.03646311001991338
5.852315999999999,1.2314958748525353,0.03408541564984183
5.856903999999999,1.1434734836971916,0.03168859221648156
5.861496,1.0598260800659416,0.029291933849759193
5.866096,0.9806758486729305,0.02689546698381969
5.870679999999999,0.8942520984332192,0.02459164302326277
5.875284,0.8107710209647427,0.022268537590283962
5.879867999999999,0.729413083518726,0.019975241131145696
5.884467999999999,0.6551284369397465,0.017720188990064754
5.889048,0.5832977242754191,0.015528330450340213
5.893643999999999,0.5159641838493312,0.01335031012077445
5.89824,0.45235056592798023,0.011152314086445028
5.902831999999999,0.3943779241208077,0.008901677022166363
5.907428,0.3371825320471374,0.006689649606855597
5.912012,0.2862831811070019,0.0045007561188809275
5.916612,0.24012537183339708,0.0022427645869663873
5.921195999999999,0.19846473479803153,0.0
5.925795999999999,0.15848078194381598,0.0
5.930383999999999,0.12323837075613109,0.0
5.934983999999999,0.09249313180668542,0.0
5.939568,0.06726668425727254,0.0
5.944164,0.04653740894609894,0.0
5.948756,0.03030530587316457,0.0
