Time,Force,Position
4.059679999999998,16.226891615213905,0.04878406973743593
4.064259999999999,16.228103222723625,0.04870087992987536
4.068855999999999,16.226372157462105,0.04862296892694244
4.073435999999999,16.217856312210472,0.04855554833964393
4.078028,16.201778437235216,0.0484962303706817
4.082619999999999,16.180303955574075,0.04843688591067593
4.087211999999999,16.15535392083649,0.04837481149035677
4.091804,16.123086225803572,0.0483152251511221
4.096395999999999,16.084400304922976,0.048258081535702005
4.100995999999999,16.033166443223937,0.048219427522220075
4.105587999999999,15.967052891505952,0.04819157354403143
4.110175999999999,15.898485405873313,0.04815821430258794
4.114768,15.824643498268932,0.04812173879078763
4.119356,15.742828865349866,0.04808183063721062
4.123951999999999,15.649976649630736,0.048046653768081475
4.128539999999999,15.54800790472098,0.04801349271348579
4.133127999999999,15.432547643096509,0.047979596022703165
4.137711999999999,15.299753757538435,0.04795088850949314
4.142291999999999,15.159642211685034,0.04792443459201496
4.146884,15.013845548268824,0.047883032528896766
4.151471999999998,14.864040451470963,0.04782959973016805
4.156059999999998,14.70242052213953,0.04777746947907013
4.160672,14.531439694189181,0.047733068475420644
4.165255999999999,14.357882747610036,0.04768472725161478
4.169855999999999,14.17623089100206,0.04763479369828697
4.174436,13.988938058279903,0.047589388035263025
4.179023999999998,13.7981696724813,0.04753977266604816
4.183615999999999,13.603681364177966,0.04749192265916359
4.188208,13.406494752531684,0.04744237496083471
4.192812,13.208653075866048,0.047386431930657
4.197387999999998,13.013754071971645,0.04732390323070428
4.201984,12.81525733028665,0.0472592712954585
4.206563999999998,12.609076374163891,0.047206565375531036
4.211167999999999,12.39586626862272,0.04717312469071811
4.215748,12.180857294186255,0.04713763856603991
4.220343999999999,11.962128397245055,0.047103983664236744
4.224936,11.743155130875563,0.047076620211805725
4.229527999999998,11.524304049220214,0.04704514813324187
4.234115999999998,11.30083361061248,0.04701695827209083
4.2387,11.074298314519368,0.04699704564925964
4.243288,10.841100423150282,0.046987053191283004
4.247876,10.606880912619403,0.04697954086862296
4.252464,10.372905771516816,0.04696284674903716
4.257059999999999,10.13328965430005,0.04695343817153538
4.261643999999999,9.89269605937012,0.04698589970030363
4.266228,9.652557301479884,0.047082269109797334
4.270811999999999,9.414227652116685,0.047307486521881235
4.275404,9.187400662224977,0.047715437773521295
4.279995999999999,8.966557540404736,0.04831438004757885
4.284579999999998,8.752719905817752,0.04910392813474761
4.289167999999998,8.547520301196553,0.05004697719013565
4.293759999999999,8.346339369588744,0.051162098366442935
4.298352,8.158660194327394,0.05241804246412773
4.30294,7.983461156250707,0.05382739449166132
4.307535999999999,7.817721539321931,0.055443336574485115
4.312119999999998,7.6643840163123,0.05725205230856648
4.316716,7.525736194973695,0.05921882555098336
4.321304,7.401900260020257,0.061343504742336484
4.325904,7.292998396166135,0.06362118792780488
4.330492,7.1958435612118015,0.06608947674091879
4.335087999999999,7.117753415452586,0.06870487838381448
4.339671999999998,7.051165929164868,0.0715184165388925
4.344259999999999,6.994404418167499,0.07452999324177349
4.348851999999999,6.953354228002946,0.077692368011939
4.353447999999998,6.9233077188215715,0.0809535351258918
4.358035999999999,6.901766815260091,0.08425249244657125
4.362627999999999,6.8830803015725905,0.08749973739252631
4.367215999999999,6.85517873616547,0.09062833978965913
4.371811999999999,6.820516052953385,0.0936627925022967
4.376399999999999,6.784200347745299,0.09651270023314144
4.380984,6.736303939800197,0.0993766624783754
4.385563999999999,6.691462149708737,0.10210731585194738
4.390155999999999,6.642357317175592,0.10474873643574809
4.394751999999999,6.588334377181402,0.10731014881588463
4.399339999999999,6.528938492686475,0.10972476284171685
4.403936,6.459305937310136,0.112077959154483
4.408515999999999,6.380746841091097,0.11436254326667736
4.413107999999999,6.297269637411013,0.11656361359778314
4.4177,6.208097076536384,0.1186891975624793
4.422288,6.119358873437972,0.12061509844928284
4.426883999999999,6.025125541124677,0.12236425753272241
4.431471999999999,5.929117002101235,0.12391594001062181
4.436071999999999,5.832643386406361,0.12528095932398156
4.440664,5.734560890164118,0.1264649003118012
4.445252,5.63544653512834,0.12754932714351455
4.449847999999999,5.531868909671212,0.1286312761900116
4.454427999999998,5.42902439249896,0.1296971837407117
4.459023999999999,5.332353731746095,0.1307180055925552
4.463612,5.242223481555056,0.13167109446345915
4.468211999999999,5.15033850391735,0.1327474640154198
4.472804,5.07676462792641,0.1334717394044647
4.477407999999999,5.001636252468465,0.13422854161369452
4.481999999999999,4.9259749967053095,0.13500329613901896
4.486595999999999,4.854522402303473,0.13569018235720745
4.49118,4.789243664321029,0.13629237510955394
4.495775999999999,4.739866235519327,0.1365755807904872
4.50038,4.696007598117656,0.13676643024898558
4.504975999999999,4.659178110134395,0.13677797270706024
4.509563999999999,4.628889032712961,0.13665668434640912
4.514159999999999,4.5984777705773805,0.13654497952532485
4.518744,4.566433965709277,0.1365174162095704
4.523327999999999,4.534023606698738,0.1365257881852153
4.527904,4.5053331701929356,0.1364511180700566
4.532483999999998,4.475743299239485,0.13639032346611005
4.537075999999999,4.45023990493321,0.13621499541171903
4.541656,4.430866225597696,0.13586963022022053
4.546244,4.414923957889998,0.1354010146219048
4.550823999999999,4.402168732381827,0.1348316849884573
4.555399999999999,4.391090191054806,0.13423474174454292
4.560003999999999,4.389861287203284,0.13337988806883594
4.564591999999999,4.382380483666855,0.1327145097111674
4.569179999999999,4.379396852368665,0.13195951405891115
4.573772,4.384752500527598,0.13102597575963448
4.578351999999999,4.394360951496478,0.13003319379341174
4.582951999999999,4.403847217751212,0.12905111263448998
4.587532,4.406059965159246,0.12828692064163294
4.592131999999999,4.408272712567279,0.12751780140630772
4.596708,4.408442221651725,0.12680956260705756
4.601311999999998,4.408856100164464,0.1260828467232595
4.605899999999998,4.411968282020147,0.1253095449583001
4.610499999999998,4.418800386380565,0.12445628399482764
4.615079999999999,4.4336052160556685,0.12347893620214861
4.619675999999998,4.44677750299825,0.12259074133407431
4.624272,4.462037169713048,0.12171330771132415
4.628863999999998,4.475786478409469,0.12091345592719276
4.633467999999999,4.490479363002165,0.12016997457805724
4.638059999999999,4.508569757405791,0.11946312571656588
4.642647999999999,4.525193935239668,0.11889194914273667
4.647239999999998,4.547869784778788,0.1182502560775575
4.651819999999999,4.568302168014658,0.11775492265325548
4.656419999999999,4.591965734898683,0.11723953673164267
4.661003999999998,4.61975991987851,0.11669776250024955
4.665588,4.648253311326323,0.11624038019944473
4.670176,4.676790844222763,0.11585097671324034
4.674752,4.707826452482482,0.11550509248670623
4.679347999999999,4.745690982180949,0.11509166551095694
4.683931999999999,4.790917313623371,0.11463528882341967
4.688519999999999,4.838397351000784,0.11424654239614895
4.693111999999999,4.8892748981891225,0.11390211078962252
4.697699999999999,4.9426505207407425,0.11360756520418357
4.702287999999999,5.002610695302817,0.1132816189227829
4.70688,5.060816142418225,0.1130486329582134
4.71148,5.122008403753495,0.11281724286896953
4.716075999999999,5.189374521508154,0.11252926151941584
4.720656,5.260871257358616,0.11222012945430106
4.725251999999999,5.333800307961937,0.11192257511753029
4.729831999999998,5.404563935527525,0.11167707505959158
4.734432,5.481212908635583,0.1113334273410098
4.739023999999999,5.558516946762997,0.11101962223789433
4.74362,5.635165919871055,0.11069603193686757
4.748211999999999,5.710138208797963,0.11038785849344591
4.752803999999999,5.783433813543719,0.11010423664553821
4.757396,5.854764223231408,0.10980733830187864
4.761987999999999,5.929648229261059,0.10943524583415848
4.766587999999999,6.002811409660931,0.10902411575330528
4.771179999999999,6.070167287783852,0.10865192340715142
4.775767999999999,6.132737482791614,0.10830500700200228
4.780363999999999,6.193053971864388,0.10790650795806969
4.784948,6.248051897516792,0.10751259229960443
4.789543999999999,6.298097813891261,0.10709452128315047
4.794131999999999,6.33730637544533,0.10673827428900778
4.798727999999999,6.372462362169113,0.10634825747936426
4.803319999999999,6.403810143490904,0.10590836674741644
4.807907999999999,6.423176766116352,0.1055501027007801
4.8125,6.437224825321432,0.10519011034920216
4.817087999999998,6.448119744143874,0.10478783059962529
4.821683999999999,6.455861522583679,0.10433982647417553
4.826267999999999,6.453298826508293,0.10395921083119525
4.830843999999999,6.442230524813011,0.10362957591966242
4.835439999999998,6.430218647221453,0.10326121995862776
4.840027999999998,6.4170188243053286,0.10286970344237477
4.844615999999999,6.399932752721692,0.10247897806239226
4.849215999999998,6.3783495088998166,0.10212688681243197
4.853795999999999,6.34392981338258,0.10189976796526135
4.858388,6.307056183950692,0.10167872346688245
4.862971999999999,6.266051936423,0.10147294239639765
4.867571999999999,6.222593754980657,0.10127254225777274
4.872152,6.177214519928872,0.10109278699802673
4.876747999999999,6.128770427391706,0.10095972050090339
4.881331999999999,6.080081965426251,0.10083953791882738
4.885923999999999,6.033847437375446,0.10071086020088238
4.890516,5.9890452240775005,0.10058593911693252
4.895107999999999,5.944531521656474,0.10048951341722502
4.899707999999999,5.905292241207189,0.10035299544984749
4.904292,5.871205198015499,0.10018100876453975
4.908871999999999,5.836507231253082,0.10004592281449992
4.913455999999998,5.806062067300613,0.0998846017773462
4.91804,5.784733432538767,0.09963712667061991
4.922631999999998,5.767002535567513,0.09935749482065713
4.927219999999998,5.750703953349119,0.09908576073680515
4.931799999999999,5.735426990292517,0.09879692781151939
4.936383999999999,5.720560722826981,0.09853130549520359
4.940968,5.709536562580327,0.09821891389259342
4.945544,5.7099165392761755,0.09777613100809722
4.950147999999999,5.7195352298767945,0.0972496984118498
4.954735999999999,5.739947133849187,0.09664048071200775
4.959339999999999,5.76089191812679,0.09604674281463875
4.963932,5.783513386585545,0.09544665229662323
4.96852,5.811775831158476,0.09478744742802389
4.973111999999999,5.846334316864944,0.09408667669605789
4.977691999999999,5.886411593971443,0.09334260748074594
4.982287999999999,5.926244501649652,0.09261720945959925
4.986867999999999,5.970818950994392,0.09185106844979392
4.991463999999999,6.017314453948573,0.09107074958406836
4.996055999999999,6.0562479271791325,0.0903688593651382
5.000655999999999,6.09775751903849,0.08965872150595727
5.005248,6.136202253412468,0.0889960703369949
5.009839999999999,6.1728481188911495,0.08835889736185994
5.014415999999999,6.2111706685509835,0.08772273829367144
5.019011999999998,6.250514837372611,0.08707989671885545
5.023607999999999,6.290391886499447,0.08645945697878465
5.028203999999999,6.334233227559311,0.08579885972586626
5.032787999999998,6.377830199190886,0.08515989407108442
5.037372,6.41721850946114,0.08458979716898159
5.04196,6.446102117236539,0.08412274815687641
5.046551999999998,6.468689683878403,0.08369958155236065
5.051131999999999,6.494342108005649,0.08324194111556725
5.055712,6.520483270989476,0.08275845315580138
5.060307999999999,6.543803945916213,0.08229972348782151
5.064883999999999,6.561972383585356,0.0818613744414697
5.069471999999999,6.577809072053992,0.08142188991309206
5.074076,6.594256684093358,0.08094907970167381
5.078664,6.6053076894468346,0.08050636457027137
5.083247999999999,6.615048564761598,0.08004783593270111
5.08784,6.629242470865973,0.07952217612174296
5.092431999999999,6.638406324426899,0.07900064008846583
5.097023999999999,6.649080536006201,0.07844077790193223
5.1016,6.654480325613761,0.07789880744659915
5.106204,6.654972247392017,0.07735289230241728
5.110783999999999,6.652599539664556,0.07678234605088893
5.115383999999999,6.647772898022442,0.0762092011591133
5.119967999999998,6.637016769389231,0.0756412931745886
5.124567999999998,6.6184101001554785,0.0750878254730533
5.129152,6.5997592894731,0.07448796287132196
5.133743999999998,6.586460944027979,0.07381877442752109
5.138323999999999,6.572507533563503,0.07313646567009013
5.142916,6.554301320289078,0.07245619077097767
5.147519999999998,6.536095107014653,0.07177512748009837
5.152111999999999,6.517722567577454,0.07105264726826802
5.156687999999999,6.498694963120899,0.0703160012814557
5.161271999999999,6.47222751365487,0.06961114418307236
5.165859999999999,6.442695206703461,0.06893199341890185
5.170447999999999,6.411608400285047,0.06823778891527371
5.175032,6.376557301933605,0.06757009177774452
5.179611999999999,6.337664096363279,0.06692090664443365
5.184195999999998,6.301835748278334,0.0662355686639681
5.188775999999999,6.264985781031595,0.06555598753727085
5.193351999999999,6.228013629070711,0.06487426751338227
5.197951999999999,6.194639214900418,0.06417624028003385
5.202544,6.159632257997604,0.06351570793067686
5.207147999999998,6.125891289684874,0.06282618878601387
5.211739999999999,6.0946042552867965,0.06213713789949362
5.216327999999999,6.074599173117076,0.06138924106964598
5.220927999999999,6.052184298481332,0.060675767737874906
5.22552,6.026704566360207,0.059986419354502336
5.230111999999998,6.000736095382499,0.059320527618120726
5.234699999999998,5.977343743033589,0.058652319724422614
5.239296,5.951908152361092,0.05799810705905782
5.243884,5.9276605070131625,0.05737301920825192
5.248479999999999,5.901658134218565,0.05679381559858479
5.253067999999999,5.884650105900447,0.05619697406598593
5.257667999999999,5.87262798867715,0.055563877784026716
5.262255999999999,5.864614304835511,0.05495085418598157
5.266851999999998,5.860975608517964,0.05433708654523317
5.271439999999998,5.863266399191517,0.053737326118671574
5.276036,5.866090070170277,0.05315883194910213
5.280627999999998,5.867769937273101,0.052594059765223675
5.285219999999999,5.875623660795312,0.052031186990494936
5.2898,5.881967026299151,0.051505302111563234
5.294391999999998,5.890886510431785,0.05098314005711371
5.298979999999999,5.898950701565397,0.050510981119727516
5.303571999999999,5.905382349966489,0.05008101520599838
5.308164,5.905317729254385,0.049720365511606045
5.312755999999999,5.904886554399841,0.04937818716858213
5.317343999999999,5.905643324869865,0.049070555601768734
5.321923999999999,5.906277910625744,0.04876847506063178
5.326516,5.905524323077394,0.04849551139060955
5.331107999999999,5.904159811958314,0.04825729736307804
5.335683999999999,5.901651496963293,0.04803354583495465
5.340292,5.90208585473951,0.04779372129680358
5.34488,5.896634866973255,0.047583906706620355
5.349468,5.885464859827305,0.04744673472731843
5.354063999999999,5.873395418233708,0.04730934785508725
5.358659999999999,5.858261119154729,0.04719309482843347
5.363263999999999,5.837608028675718,0.04708328206812583
5.367856,5.81352352656889,0.0470159294466461
5.372459999999999,5.789971904767272,0.04696939978549112
5.377044,5.760534937423184,0.04695074617488883
5.381644,5.727378047574359,0.04693831849710736
5.386232,5.69295516913545,0.04694745515584109
5.390832,5.657632856248892,0.04695646028754569
5.395415999999999,5.620511674467038,0.046966195050550455
5.400015999999999,5.583757046827621,0.04695278503203542
5.404608,5.549700722531148,0.04693972111691492
5.409199999999999,5.512823910177587,0.04693426076189005
5.413787999999999,5.476846532271674,0.04692787597298926
5.418379999999999,5.436249797413374,0.046927694584442015
5.422975999999999,5.394098563088071,0.04691138838532839
5.427567999999999,5.350026275153327,0.046901784820815126
5.432155999999999,5.300190826390257,0.04691397930788278
5.436743999999999,5.251254812074837,0.046926391406481686
5.441327999999999,5.200886483006558,0.046916239135828326
5.445927999999999,5.1428339395005125,0.04693758979333586
5.450512,5.083104711813316,0.04694924353957354
5.455107999999999,5.019411192193093,0.046986951027693014
5.459703999999999,4.9571058458771,0.04699033798602354
5.464288,4.8919800115040175,0.04700297280337764
5.468883999999999,4.826199112111579,0.04699759502381427
5.473459999999999,4.762339266328582,0.04698206124862011
5.478039999999998,4.6930828138596965,0.04696736324284669
5.48264,4.619329189152572,0.04695108398180775
5.487223999999999,4.547618802769036,0.04691578561195344
5.491812,4.472843558900119,0.04690644594686783
5.496403999999998,4.391650089183521,0.046906690155635034
5.501003999999998,4.305959447228684,0.04690941850629685
5.505595999999999,4.216426698054964,0.04693194295067902
5.510176,4.1285706330623935,0.046967809241411425
5.514776,4.040592383355677,0.04701251942305612
5.519364,3.95183688391546,0.047044044356122194
5.523963999999999,3.865246807512975,0.04703999426828804
5.528547999999999,3.774037374158105,0.0470481290586484
5.53314,3.681151256622085,0.04704020383739393
5.537723999999999,3.5921072463049475,0.04701381756420865
5.542316,3.5020416168260167,0.04699523945486811
5.546907999999998,3.415940279280115,0.04694104562309961
5.551495999999998,3.324075780905888,0.04691875952449871
5.556083999999999,3.228857914169362,0.04686447110280325
5.560675999999999,3.1287763210521593,0.04685293184595707
5.565263999999999,3.028572543220811,0.04685065260937737
5.569856,2.9304120037130494,0.04681570512958276
5.574444,2.8349497675482316,0.046779167777061585
5.579039999999999,2.7329471208215876,0.04676931629717812
5.583627999999999,2.6290234204855016,0.04679540627844493
5.588215999999999,2.525099720149416,0.046837210810219666
5.592808,2.4239965078704198,0.046868347512262834
5.597391999999999,2.3222382305720664,0.046854658463736654
5.601984,2.2225231915973,0.04679415428165909
5.606567999999999,2.121786533460741,0.04676396493716534
5.611155999999999,2.0172077681052984,0.046782097076555715
5.615748,1.9104635797121243,0.04687325067006133
5.620339999999999,1.8046188257665972,0.04452193236723388
5.624927999999999,1.7050701129546049,0.04218775621854623
5.629519999999999,1.6036003465331716,0.03985530020724023
