Time,Force,Position
5.288096,12.652557965926793,0.04738851478577964
5.292695999999999,12.505705781531901,0.04739019588521624
5.2973,12.356033109079922,0.047395641835521425
5.301876,12.201496710247266,0.04741017686595447
5.306471999999999,12.039153912262694,0.04744196869174239
5.311052,11.870637257858737,0.04746966466946927
5.315652,11.696068931749537,0.04748994330878994
5.320236,11.51610399895445,0.04751133368205023
5.324836,11.331353383044204,0.04751417304985135
5.329420000000001,11.135320814905599,0.04753206944481606
5.334004,10.932992205633465,0.04755138999671576
5.338596000000001,10.722568686332496,0.047570612595242964
5.343188,10.509691233116873,0.04758327184818098
5.34778,10.290639923481862,0.047590581680972535
5.352372000000001,10.062105530513792,0.0476150705478419
5.356956,9.829973399755128,0.04764189437592114
5.361552,9.597230345425737,0.04769808284928315
5.366128,9.365308682278474,0.047807589038066416
5.37072,9.12787846736292,0.04806263635752313
5.375312000000001,8.898353174128271,0.04850401394384149
5.379900000000001,8.68171871366935,0.04911818923300042
5.384492,8.477364162415428,0.04993025485158895
5.3890720000000005,8.28602262865138,0.05089906823293924
5.393663999999999,8.10344130956726,0.05201568144195628
5.3982600000000005,7.936282800439038,0.05325276192008141
5.4028480000000005,7.782548004391754,0.054658786303716185
5.407444,7.63994931367353,0.05626556263731931
5.412032,7.511551585769748,0.05804837716379344
5.41662,7.3989093201474105,0.060001604791106875
5.421215999999999,7.306597732310276,0.062077588504648264
5.425808,7.232573583934757,0.06428893601417784
5.430403999999999,7.1729947678019705,0.0666611972995866
5.434988000000001,7.1287607183595645,0.06917505715997486
5.439591999999999,7.102325369522191,0.07182677209607262
5.444176000000001,7.092378591251137,0.07461016067894313
5.4487760000000005,7.098265318527047,0.0775018267166203
5.4533640000000005,7.121085213777231,0.08044403555690054
5.4579640000000005,7.151799791076583,0.083440857508906
5.462543999999999,7.201558578307577,0.08628699592191237
5.467136,7.245866377772317,0.08899773910595232
5.471724,7.281369821108502,0.09158570062375394
5.476308,7.3113781352298055,0.09400354008224973
5.480896,7.332748419385328,0.0963303633832947
5.485492000000001,7.345158260881261,0.09864786912857591
5.490080000000001,7.346153725802953,0.10095156322893477
5.494664,7.3350356076824195,0.1032073480513157
5.499256000000001,7.3203434139564445,0.10527583319513233
5.503848,7.299134471853794,0.1071911234779483
5.50844,7.265523435831998,0.10903795156838567
5.513028,7.21607889426324,0.11090117184875631
5.517620000000001,7.1573412577093425,0.11270255439796904
5.5222,7.093929883122695,0.1143996836955985
5.526784000000001,7.02044816381741,0.11605087916228848
5.5313680000000005,6.936363219488273,0.11763817086550424
5.5359560000000005,6.848093275982967,0.11908278046264274
5.540564,6.75118530251188,0.12048983216424788
5.545160000000001,6.646049994666078,0.12187271027335944
5.549748000000001,6.542581131369687,0.12312229546225359
5.554344,6.432239205185921,0.12437708273938491
5.558928,6.323818332611595,0.1256356642559899
5.563524000000001,6.219894632275509,0.12688188416104038
5.568111999999999,6.120101550035226,0.1281205199101229
5.572712000000001,6.027215432499206,0.12926071172226872
5.577292,5.946300234027791,0.13015665318240607
5.581887999999999,5.869960251060131,0.1309762131299563
5.58648,5.802570471120318,0.13165470272623417
5.591075999999999,5.735835756199864,0.13234835959060978
5.5956600000000005,5.667302172384115,0.13308993093641383
5.600244,5.6017112613396,0.13381149206842113
5.604844,5.54854610639938,0.13432874640304004
5.6094360000000005,5.5015106664299225,0.13471718084635198
5.61402,5.456229953907134,0.13503397479859017
5.618612000000001,5.4142584682980175,0.13527608698511107
5.623192,5.3726535368313355,0.1355030165378104
5.627776000000001,5.330026986202858,0.13575813250605556
5.632364000000001,5.290831847202199,0.135916132128731
5.63696,5.255601000134568,0.13598666824908892
5.641552000000001,5.218815653599933,0.1360653425926007
5.646128000000001,5.178310384560561,0.13622202815051782
5.65072,5.139970538558921,0.13632116023709837
5.655308,5.102652311719075,0.13640102346074043
5.659896,5.065700639021666,0.1364506060833288
5.664492000000001,5.022452925190723,0.13661901854604297
5.669080000000001,4.971154442779576,0.1369929427570456
5.673667999999999,4.924964056177397,0.1372267118473105
5.67826,4.877874235127573,0.1374742675124328
5.682848,4.831928217953685,0.13768701872563527
5.6874400000000005,4.791623176893976,0.13778372581783363
5.692019999999999,4.759246719700326,0.13767691905284626
5.696616000000001,4.7263373822014625,0.13754493487571726
5.701196,4.686110384407271,0.13755813899630334
5.705795999999999,4.646538451632436,0.13757466829667983
5.710384,4.610930810790629,0.13748593791830083
5.714983999999999,4.581741395796505,0.1372665766592789
5.719568000000001,4.5547174038401135,0.1369775785005527
5.72416,4.527693411883723,0.1366843888152354
5.728748,4.498093301298534,0.13642731795557092
5.733344000000001,4.468615375427491,0.1361550711367408
5.737944000000001,4.449397782623011,0.13566092954070333
5.74254,4.434022297037415,0.13507507051123566
5.747120000000001,4.423632722546639,0.1343603141953601
5.751712,4.413776028361076,0.13365994571877782
5.7563,4.415489797280787,0.1327582537838853
5.760896000000001,4.426320095391124,0.13167839652790173
5.765484000000001,4.435395666054793,0.1307006603567535
5.770076,4.445903551471321,0.1297226818328165
5.774672000000001,4.458865370802501,0.12872003703200738
5.779260000000001,4.47493618906769,0.12770760110032667
5.783852,4.490806779353217,0.12679705913414865
5.788432,4.502757219154342,0.1260400268100794
5.793012000000001,4.531308174604193,0.12504630701470254
5.79762,4.5664436820645,0.12400150415150533
5.802212000000001,4.603832895459795,0.12303333719162056
5.806804,4.64318730391316,0.12210583275991173
5.811392,4.685284157158096,0.12120557385238358
5.815984,4.7319223240899,0.12030468292275823
5.820584,4.78424560858451,0.11936545418502385
5.825172,4.84188745649949,0.1184260561072715
5.829768,4.896220077500797,0.11760976246574001
5.834348,4.947531982465353,0.11693202111155841
5.838948,4.996844790554951,0.11637086821767594
5.843540000000001,5.049755336435139,0.11576534867644651
5.848136,5.097024906201148,0.11527153407185786
5.852724,5.140207999319984,0.11487440987819562
5.85732,5.187888264677059,0.11442587218310042
5.861912,5.24096513672002,0.11392000288049083
5.866508,5.295474323515841,0.11342923521496893
5.871092000000001,5.351660194492812,0.11294257632346497
5.875688,5.4069466310221355,0.11247481321353917
5.880284,5.470816716436872,0.11187316480504907
5.884884,5.524793022927482,0.11141404572394836
5.889476,5.570552234675115,0.11106126119736094
5.894068000000001,5.616145120259974,0.11067320771113635
5.898656000000001,5.660960756111332,0.11029570066916641
5.90324,5.703322458048038,0.10993320421029738
5.907832000000001,5.743230226070089,0.10958792845414748
5.912416,5.781461309910993,0.1092600250928126
5.916995999999999,5.816583394817886,0.10894158175471548
5.921583999999999,5.847985557220045,0.10866918715983631
5.926176,5.883718565697668,0.10831074456854294
5.930759999999999,5.923005170517254,0.10787156417046856
5.93534,5.9622917753368405,0.10744135012327363
5.939947999999999,6.003621618480013,0.10698021292043106
5.944528,6.045440200479767,0.1064858418207835
5.949112,6.081084926060135,0.10605065835899163
5.953704,6.107368753021586,0.10573053776986448
5.958292,6.131198646068384,0.1054229541885909
5.962896000000001,6.149876301857588,0.10515481533565839
5.967472000000001,6.167366012322223,0.10486566393978916
5.972072000000001,6.179459116100972,0.10463103767123569
5.976660000000001,6.1880766668032745,0.10442017123503997
5.981256,6.202046682742836,0.10411129016736334
5.98584,6.213562764767746,0.10381461508241534
5.990436000000001,6.2198044248209134,0.10355951880922266
5.995028,6.225635389283015,0.10328088166899355
5.99962,6.231832907887555,0.10297986746235853
6.004212000000001,6.235820862005734,0.10267244731330107
6.008804,6.238376501371055,0.10235788092221883
6.013396,6.242320314040605,0.10200241039177785
6.017992,6.24086752002427,0.10169593414726152
6.02258,6.232752130731961,0.10146820238678397
6.027164000000001,6.218340700306118,0.10129468423109016
6.031752000000001,6.200209347375538,0.10115958413824801
6.036344,6.181056375283165,0.10103948904199149
6.040928000000001,6.164846075962026,0.10087975829290442
6.045516000000001,6.156686545221089,0.10060334081477557
6.050112,6.145828711137209,0.10034904780883803
6.0547,6.135625942072686,0.10010237141350667
6.059292000000001,6.123912814989786,0.09990226766070891
6.063872,6.115020175963974,0.09967169525057581
6.068455999999999,6.114589001109431,0.09935011116779642
6.073052000000001,6.115467956293603,0.09904781773498264
6.077640000000001,6.115735987907044,0.09878419044092207
6.082228000000001,6.122666614796458,0.0984479110379814
6.086824,6.131684621458088,0.09812945649902076
6.091408,6.138292835653694,0.09786363131521658
6.096012,6.148909483230955,0.09759499418321066
6.1006,6.161735695294578,0.09733700833869996
6.105192000000001,6.1779152757205,0.09706844888692537
6.109780000000001,6.195527170899281,0.0968079019492104
6.114376,6.215715184706861,0.09653266668325493
6.11896,6.243220858809767,0.09619531077153859
6.12356,6.27366920568391,0.09582281121867485
6.128152,6.308859094224582,0.0954053962382177
6.132747999999999,6.344704047784612,0.09500116422993267
6.137324,6.37556309024982,0.09466551547399576
6.141920000000001,6.413084727990999,0.09426486165376907
6.146508000000001,6.44917405097932,0.09385455807380506
6.1511,6.4866515472718715,0.09340794437610977
6.155688,6.5197540560403295,0.09298974846503844
6.16028,6.544272915923376,0.09266111882127043
6.164868,6.561596300225237,0.09238364653813237
6.169460000000001,6.576343565898301,0.09211590608689076
6.174052,6.588925408533632,0.09188673765457141
6.178636000000001,6.600441490558541,0.09162763652890103
6.183232,6.61448954976362,0.0913129646386442
6.18782,6.622608121977601,0.09101997816950659
6.192412000000001,6.629294379438723,0.09071860714980512
6.197000000000001,6.634426137432841,0.09041699737260997
6.201588000000001,6.640046634283542,0.09008690501482355
6.206184,6.64885417333377,0.08971302478736395
6.210772,6.650466236802814,0.08938540287767405
6.21538,6.6520783002718575,0.08905916554026985
6.219968,6.653035298721546,0.08872813235727253
6.224556,6.651660547970728,0.08839302776248573
6.22916,6.651429601095848,0.08803842314567174
6.233748,6.647600916430378,0.08770689594303678
6.238352000000001,6.6494132078790855,0.08733221628662861
6.242932,6.649426630432497,0.08696710486653207
6.247536,6.654303779366586,0.08655786739452218
6.252116000000001,6.665310643271436,0.08607764485774975
6.256716000000001,6.681059048842815,0.0855576822925576
6.261296,6.703181538813247,0.08495572126557215
6.265896,6.7175756728972855,0.08437384480237245
6.270488,6.7327470567148255,0.08379720836212401
6.275080000000001,6.746363941065361,0.08321881671507238
6.279668000000001,6.763700747920635,0.08261506383971862
6.28426,6.780260305042406,0.08201012377388972
6.288852,6.794243743535379,0.08141291129436155
6.293444000000001,6.808593736170789,0.08079754488140058
6.298032000000001,6.817424937406168,0.08021679257348396
6.302624,6.831119865022222,0.0795929987113594
6.307212,6.843138108457126,0.07897266841197276
6.311804,6.846694887720763,0.078409360958196
6.316388,6.849107863108459,0.07786230372433982
6.320976,6.851765207924449,0.07730268332230791
6.3255680000000005,6.853400933578644,0.07675398422689127
6.330147999999999,6.850172932852163,0.07624803601863836
6.33474,6.84976542018277,0.07572357680365142
6.339324,6.843350377256763,0.07525593218492872
6.343912,6.834769911293023,0.0748169532021936
6.348504,6.826433814757573,0.07436576497784367
6.353096000000001,6.810946384089569,0.07398474596024193
6.357684000000001,6.801510625126809,0.07358902816503082
6.362276,6.789132193392814,0.07321639122708486
6.366864,6.778308261125824,0.07284974169121163
6.371468,6.763764406354096,0.0725018443747636
6.376056,6.748976182154076,0.0721659579573977
6.380660000000001,6.738030065172939,0.07180327110818674
6.385248000000001,6.727983382639452,0.07143745588460484
6.389836000000001,6.721900992038993,0.07103875875776164
6.394416,6.71479698227674,0.07065013183646204
6.399016,6.709614026123927,0.07024933715560915
6.403608,6.710072046085292,0.06981553223133656
6.408200000000001,6.712695489084391,0.06935589233013824
6.41278,6.715074562655199,0.06891020787333876
6.417372,6.7184752553878,0.06845545277341776
6.42196,6.724041371158134,0.06797674569826474
6.426556,6.729607486928469,0.06750045612112028
6.431144,6.7363174065747415,0.06700590622348689
6.435727999999999,6.741228457325719,0.06651585025716905
6.440315999999999,6.744218454467255,0.06603828153698896
6.444908,6.753215981865407,0.06551368582769268
6.449503999999999,6.766299985910733,0.06495860167178269
6.454091999999999,6.781427228279645,0.06438595249451046
6.458679999999999,6.7975760898103506,0.06380937239813352
6.463267999999999,6.817444873845795,0.0632182223636477
6.46786,6.838824015899614,0.06259481071505371
6.472448,6.856238866020405,0.062001087974830574
6.477032,6.873287161998759,0.06143045805197122
6.481636,6.890091088548822,0.0608765909930056
6.486224,6.907794449546532,0.06032382343444477
6.490824,6.922555137773008,0.05978970495687206
6.4954160000000005,6.938337445161277,0.05925059542429816
6.500004000000001,6.95681805589249,0.05871173475639915
6.5046,6.975543036051993,0.05816257766119841
6.5091920000000005,6.992469147316202,0.057616641432321966
6.5137920000000005,7.007474204970969,0.057081522337625035
6.518383999999999,7.020802578444587,0.056544595452770324
6.52298,7.036829255261146,0.05600489858214759
6.527559999999999,7.051057063182412,0.055464434637747986
6.5321560000000005,7.062342198332442,0.054937180992259804
6.536747999999999,7.069663041549444,0.054434007429150603
6.541347999999999,7.069421855042824,0.05395762364635611
6.54594,7.067381799640911,0.05348225837721459
6.550535999999999,7.059578583410672,0.05302901413654435
6.555123999999999,7.047811075247405,0.052595907263463665
6.55972,7.032612155456322,0.05219977854484957
6.5643080000000005,7.012427324570416,0.05182699327561591
6.568904,6.987500952017979,0.051467765446222766
6.573492,6.957710853084866,0.05112788809489481
6.57808,6.923057027771077,0.050807034264123356
6.582656,6.88329510664832,0.05051661754466628
6.587256,6.8394467088783895,0.05025083673763559
6.591844,6.785870858347107,0.050024955029523324
6.596428,6.728330715882794,0.04981540394081188
6.60102,6.666704096771307,0.049629075812888085
6.605600000000001,6.601235370440938,0.04945216078645075
6.610196,6.532457417196897,0.049304739922047085
6.614784,6.455340184495734,0.049168687061879914
6.619372,6.379655266547432,0.049049039258045594
6.623964000000001,6.3038481638849815,0.04893262799105113
6.628552000000001,6.223832399861212,0.04884939143048247
6.633140000000001,6.141529028085564,0.04879172430133322
6.637728000000001,6.054117560500949,0.04876695534807766
6.642328000000001,5.963641235430954,0.048763214121636554
6.646932,5.872632030055747,0.04873219659375529
6.651508,5.779701771071098,0.048707392943943696
6.656104000000001,5.690735804019478,0.04865823975945601
6.660696,5.599071533624914,0.04860615963857231
6.665292000000001,5.505608394335055,0.048550854956391276
6.669872,5.412267439759343,0.048482981877739154
6.674472,5.320070289059569,0.048400235817643016
6.679055999999999,5.224275400569203,0.048313161532907656
6.683652,5.129746500668922,0.04819730817166281
6.688244000000001,5.030353874387966,0.04810255625111289
6.692836,4.933781736164099,0.04799586810778568
6.697428,4.8330009365789115,0.047932898452356376
6.702020000000001,4.729521833650779,0.047868345731863424
6.706607999999999,4.626942165170297,0.04779752285569227
6.711195999999999,4.524729050832249,0.04769066702839234
6.715783999999999,4.421494317332409,0.047588883908330756
6.7203800000000005,4.321568810746241,0.047433195613202556
6.7249680000000005,4.220866054426573,0.0472641055125775
6.729564,4.123105970878138,0.047070066376346996
6.734159999999999,4.027266940939144,0.04686226346054579
6.738747999999999,3.9287737491058343,0.04672343948747556
6.74334,3.8284816883772295,0.046579099951800276
6.747928,3.7242253357155968,0.046461410247865355
6.752523999999999,3.618702994463878,0.046378268748124896
6.757116,3.512936283783869,0.04631729195783909
6.761704,3.4023058467231837,0.04628778664742423
6.766308,3.295639701595527,0.046203551822941405
6.7708960000000005,3.188851371753723,0.04612321824869733
6.7754840000000005,3.0797754341600414,0.04609625995998342
6.78008,2.9733977999093035,0.04607821404688339
6.784668,2.8613791895443876,0.04608844579270881
6.789263999999999,2.7515260022172043,0.04606433543856548
6.793839999999999,2.6415506301758747,0.04606431360824078
6.798439999999999,2.537749114553935,0.04607734560886012
6.80302,2.4288395031230277,0.04618417790326948
6.80762,2.3200520764062653,0.04626174579426575
6.812204,2.2062787385946816,0.04641310072240467
6.816803999999999,2.0953258888401876,0.0465313111215766
6.821400000000001,1.9824519854762515,0.046663838265421864
6.825996,1.8686786476646675,0.046798623619299054
6.830579999999999,1.7565378525856055,0.04451613982469309
6.835176000000001,1.648894229744783,0.04223876143111957
6.839764000000001,1.5452148988369885,0.039951829412046946
6.84436,1.445377675148077,0.037639093492331265
6.848948,1.3465620706209587,0.035313359750389475
6.853536,1.2522436383320799,0.032974794279694124
6.858124,1.154738163843675,0.03069171347068135
6.862704000000001,1.0598088079840682,0.028415366561862797
6.8673,0.971542047400433,0.02610661019346071
6.871884,0.8869952093215349,0.023781150877431267
6.876472,0.8106654659856133,0.021438634931095078
6.881048,0.7397323293355786,0.019100515662742533
6.885643999999999,0.6753396032473704,0.016739564267111366
6.890236,0.6064497049209229,0.014378612871480203
6.894812,0.539358675489771,0.011959767221076393
6.899424,0.47573555693802716,0.009572456245770737
6.904007999999999,0.41943009868161185,0.007149499740474777
6.908608000000001,0.3666001935016423,0.004764587062078245
6.9132,0.31916689500755985,0.0023812828226203488
6.917788,0.2771302031993645,0.0
6.922383999999999,0.23922412948697147,0.0
6.926976,0.20311692466987408,0.0
6.93158,0.1694636537674289,0.0
6.936156,0.13940812065557506,0.0
6.940756,0.11384975978196052,0.0
6.945344,0.09201132141308307,0.0
6.949944,0.07479223999659056,0.0
6.954528,0.061293081084835124,0.0
6.95912,0.04947824855126738,0.0
6.963699999999999,0.04228277297008457,0.0
