Time,Force,Position
4.611452,16.36264035524059,0.048579900116361416
4.61604,16.15554972503844,0.04849987442179293
4.62064,15.944494802903264,0.048425499876878775
4.625219999999999,15.727187981083183,0.048366999105460044
4.629823999999999,15.508615170673016,0.048314153986837145
4.634407999999999,15.288532002244471,0.04827337331380789
4.638999999999999,15.067960094959345,0.04824254866991864
4.643579999999998,14.850330860445453,0.04820402126206121
4.648164,14.631680006769765,0.048167420884097714
4.652752,14.417648510046464,0.048126841744853335
4.657347999999999,14.213100096656225,0.048073650386741926
4.661935999999999,14.010228367447136,0.04802224809934957
4.6665199999999984,13.809522061275779,0.04796040811538086
4.671107999999999,13.603707659295452,0.047912710994331954
4.675699999999999,13.394950584543894,0.047870471705654116
4.680292,13.181085413983366,0.04784225393196487
4.684883999999999,12.965054820385108,0.04782292175152799
4.68948,12.744160500406169,0.04781273944006327
4.694059999999999,12.524165614874885,0.04780116327570963
4.698651999999999,12.301228056572361,0.04779631636445915
4.703235999999999,12.075714379641044,0.047787056668767355
4.707823999999999,11.848646203242723,0.04777016946642594
4.71242,11.618757538787307,0.047755824985945286
4.717008,11.389768308779542,0.047741158248113716
4.721596,11.156448232696313,0.047752889558159116
4.726191999999999,10.91675407221403,0.047806449857534856
4.730775999999999,10.675838064590288,0.04791428182640618
4.735372,10.432722732111927,0.04811286073630608
4.739959999999998,10.19558102807329,0.04836730807247404
4.74456,9.965434571636173,0.048669659103685085
4.749151999999999,9.733166833609953,0.049029496563322165
4.753748,9.49992161787057,0.04944454783342433
4.758327999999999,9.265088000847289,0.049942982042107766
4.762927999999999,9.032630274473144,0.05052196221359889
4.767519999999999,8.806023991824578,0.051185565680012694
4.772119999999999,8.579628176787415,0.05195953127508136
4.776712,8.353809383504093,0.05282937942304725
4.781307999999999,8.133186968926992,0.05378946254597746
4.785895999999999,7.90983234919006,0.05489650515081357
4.790491999999999,7.690530304283412,0.05612451507305273
4.795083999999999,7.477612583407555,0.057485435931784144
4.799655999999999,7.269035948238903,0.05901295866848026
4.804239999999998,7.0639009643298065,0.06072881018204954
4.808836,6.854889971384938,0.06268543052008291
4.813419999999999,6.655939083526971,0.06475443945875074
4.818007999999999,6.471501331545514,0.06687325088429573
4.822588,6.288451752868287,0.06909278749953582
4.827167999999999,6.102904098827781,0.0714239916672752
4.831743999999999,5.913225826691471,0.0738916245057877
4.836335999999999,5.7171293287074825,0.0765378996082926
4.840923999999999,5.5222207760480595,0.07940090301882644
4.845531999999999,5.336717263456181,0.08236846336953937
4.850119999999999,5.1620069642360775,0.08539142576313555
4.854704,4.996413194206597,0.08849476611005662
4.859304,4.839036518920094,0.09164440412566559
4.863895999999999,4.694862849471388,0.09476798841741095
4.868499999999999,4.564835761756758,0.0978770120768753
4.873083999999999,4.445523844148384,0.10106222307656998
4.877687999999999,4.343056811617027,0.1042047135164522
4.882275999999999,4.2537147416579515,0.10730552705140885
4.886871999999999,4.175943134804151,0.11032517099833108
4.891451999999999,4.114972271578742,0.11312029317171103
4.896051999999999,4.072723205591163,0.11565181760204475
4.900632,4.048951567413123,0.11797581520403769
4.905227999999999,4.0358509578927135,0.12016717415120773
4.90982,4.031378138706344,0.12225546610571686
4.914411999999999,4.044894008472933,0.12410263670016129
4.919011999999999,4.078197436087773,0.1256839915789275
4.923603999999999,4.125647445436689,0.1270779730807749
4.928179999999999,4.184135037585669,0.12827669043234052
4.932763999999999,4.25745817830497,0.1291142976761825
4.937351999999999,4.337521957565761,0.12972044827966497
4.941944,4.417785964806214,0.1302144735155689
4.946527999999999,4.504135545568801,0.13046891198457516
4.951115999999999,4.590929723739341,0.13058925327424772
4.955708,4.676902510727752,0.13063140638609783
4.960287999999999,4.760988145923611,0.13056619481272133
4.964879999999999,4.8432646725924355,0.13030590649483223
4.969472,4.92475370989602,0.12985442377192458
4.97406,5.00328983479663,0.1292732058141928
4.97866,5.071311017570645,0.12870392965586605
4.983248,5.126407465752044,0.12825572858449938
4.987839999999999,5.171521852112061,0.12787059060042869
4.992431999999999,5.214582760516751,0.12735862231665013
4.997019999999999,5.248927595690142,0.12684648270244125
5.001615999999999,5.272635304022796,0.12637191788171925
5.006195999999999,5.2825188433151835,0.12602428482775938
5.010795999999999,5.283608266110755,0.12574660021047757
5.015383999999999,5.279334984037329,0.1254300414523419
5.019979999999999,5.271786376867121,0.12508226212277682
5.024567999999999,5.253933295181722,0.12486322687233156
5.029167999999999,5.227330238448136,0.12476273973214004
5.033759999999999,5.198273247799897,0.12468684292524132
5.038352,5.165374149932776,0.12468304597731282
5.042931999999999,5.1354177248368895,0.12461401039764156
5.047516,5.107626722778735,0.12448582903878185
5.052107999999999,5.081878959044167,0.12430721778286195
5.056699999999999,5.061405617281341,0.1240562307868891
5.061287999999999,5.0381559289100535,0.12390648927772198
5.065871999999999,5.0181374241869205,0.12373191201941472
5.070459999999999,5.005847275350183,0.1234730414458021
5.075052,4.999364428790395,0.12316296637738032
5.079643999999998,4.994968962002824,0.12286296591218408
5.084235999999999,4.99176144053982,0.12258877322319627
5.088831999999998,4.993095232763684,0.12230709966042778
5.093419999999998,5.0047334995027395,0.12191701531720027
5.098011999999999,5.029252359385785,0.12139435148585384
5.102599999999999,5.0562251531834805,0.12085510488714339
5.107187999999999,5.086062576486895,0.12032873910147825
5.111792,5.1192533681526085,0.11977597963201522
5.116375999999999,5.1575963970759195,0.11916768812875986
5.120963999999999,5.201213847970969,0.11849248601125546
5.125556,5.251371709427847,0.11771620004467173
5.130139999999999,5.299852886703574,0.1169509774504908
5.134732,5.347434629531653,0.11621415837656202
5.139315999999999,5.393994753197941,0.11550875608882064
5.143908,5.436590584931198,0.11488591146385095
5.148484,5.473545440550278,0.11436151548170097
5.153087999999999,5.512910088635382,0.11377362370544367
5.157667999999999,5.54573432615866,0.11328580016951735
5.16226,5.581090540862107,0.11273420566966141
5.166843999999999,5.617302048564574,0.11212422075204116
5.171435999999998,5.651059622352388,0.11152654818100405
5.176039999999999,5.680197839187818,0.11099768883164735
5.180636,5.708148110698679,0.11044817432488094
5.185211999999998,5.731845579399593,0.10994369172391844
5.189799999999998,5.743728215566939,0.10958149274773707
5.194384,5.757654090057874,0.10918641929313135
5.198972,5.771946518691244,0.10876974671315404
5.203563999999998,5.783540643981671,0.1083833141493066
5.208148,5.791537031481507,0.10803515385919549
5.212739999999998,5.799122723390277,0.10766499958198404
5.217315999999999,5.8059311655655454,0.10730133761123907
5.221907999999999,5.818380583854991,0.10686877885505279
5.226491999999999,5.828908948534997,0.10646493972168665
5.231079999999999,5.84033674766265,0.10605506768802046
5.235683999999999,5.8518867315044485,0.10563552363804216
5.240271999999999,5.864458334508041,0.10519874296664881
5.244852,5.869878603379078,0.1048805187581624
5.249447999999999,5.880040413916648,0.10450078573097012
5.254047999999999,5.883828140055163,0.1042427207680336
5.25864,5.890724865127687,0.10398672525001615
5.263228,5.905305804637977,0.10363411033450279
5.267831999999999,5.918865124986474,0.10329616582123416
5.272407999999999,5.936022183125561,0.10292953861557895
5.277007999999999,5.9499921990651226,0.10261994954291677
5.281595999999999,5.971524244728304,0.10221855999448878
5.286192,5.987170944849016,0.10190005461466517
5.290783999999999,5.9987311683225535,0.10164748289883194
5.29538,6.014910748748476,0.10134856253550824
5.299963999999999,6.037997293878662,0.10095702340877467
5.304559999999999,6.057896796809321,0.1006221240037328
5.309163999999999,6.07113370446401,0.10036697841023856
5.313744,6.07926251630973,0.10019269858967618
5.318332,6.0846930248125055,0.10004117197367533
5.322915999999999,6.086647980238836,0.0999131961985181
5.327499999999999,6.089624554826962,0.09976936522459
5.332091999999999,6.093500563862733,0.09961834435458175
5.336675999999999,6.106326775926357,0.09934160470465757
5.341251999999999,6.115310880771096,0.09911213305202332
5.345835999999999,6.127726397243654,0.09881146394318506
5.350415999999999,6.132946438135028,0.09857351654793257
5.355003999999999,6.126640157369755,0.09847447794751228
5.359599999999999,6.124420353251655,0.09831343549427538
5.364187999999999,6.11758119218117,0.0981978062319384
5.368791999999999,6.113029638862564,0.09803551079995139
5.373379999999999,6.105901966915161,0.0978875931310516
5.377967999999999,6.1027385869007835,0.09768659046969148
5.382572,6.102762249085934,0.09743198636278687
5.38716,6.09648987013755,0.09722847895567654
5.391755999999999,6.083188341770756,0.0971219334736481
5.396331999999999,6.073606735908701,0.09697910108968619
5.400931999999999,6.070687725322617,0.0967630296386927
5.405512,6.070300691916701,0.09648617335832421
5.410112,6.075310265196674,0.0961672588897407
5.414691999999999,6.085716445162534,0.09580822738804501
5.419288,6.094978821252456,0.09547140374270036
5.423867999999999,6.103996827914083,0.09515157249330304
5.428459999999999,6.109949977090331,0.09487846897820525
5.433059999999999,6.1178241798760205,0.09458343810935074
5.437651999999998,6.123288590195687,0.09434053080138599
5.442239999999998,6.13132911914415,0.09408395694648772
5.446831999999999,6.145787873940295,0.09376909772267661
5.451419999999999,6.157714651556269,0.0935159246234933
5.456003999999998,6.172339732515188,0.09324385504416154
5.460591999999998,6.185821009598167,0.09299427953852224
5.465171999999999,6.198280667519353,0.09275963594679153
5.469764,6.211884129316478,0.09250580631188828
5.474343999999999,6.223444352790016,0.09228105129031412
5.478931999999999,6.237702879606497,0.09203626146139018
5.483516,6.252327960565415,0.09176655146953408
5.488104,6.261800804266739,0.09152044855139656
5.492704,6.266776475729821,0.09130795296209122
5.497295999999999,6.269831093583463,0.09111651743400077
5.501883999999999,6.268755093341301,0.09093414602261132
5.50648,6.259828552498602,0.0907921449917687
5.511068,6.249591881617189,0.09063111943990997
5.515671999999999,6.239311069287148,0.09042226742396962
5.520247999999999,6.226043442737244,0.09019845685303542
5.524847999999999,6.211587870862772,0.08994722420047245
5.529423999999999,6.197865407273175,0.08964912243810502
5.534027999999999,6.1833215525014475,0.0893001528404166
5.538615999999999,6.168855740995237,0.08889556522894979
5.543215999999999,6.1517696694116,0.08845078170550875
5.547799999999999,6.130552979732162,0.08801036049366522
5.552391999999999,6.112889886394686,0.08749879614497437
5.556979999999999,6.095471162485503,0.08697013213044284
5.561571999999998,6.073677451052225,0.08645955842421767
5.566159999999998,6.052494663189678,0.08590870538034608
5.570755999999999,6.033599483079006,0.08531715717336497
5.575343999999999,6.018790779615509,0.08467390125649811
5.579935999999998,6.008479248390252,0.08400206545685254
5.584515999999999,5.9972682827173465,0.08333091203531844
5.589108,5.984258448149147,0.08266642559747232
5.593699999999998,5.9721480480285924,0.0819939688673943
5.598275999999999,5.963635385698631,0.08129556346878568
5.602867999999999,5.959742080321056,0.08056378238217107
5.607455999999999,5.9515179288680145,0.07989449926031784
5.612039999999999,5.946524961063127,0.0792271163655861
5.616636,5.9450075463346845,0.07854914496307626
5.621224,5.945166815787393,0.07787055466684595
5.625819999999999,5.945614596117021,0.07722399738927195
5.6304,5.944552018428271,0.07662042282066797
5.634995999999999,5.950807101034851,0.07597640403917474
5.6396,5.961559355879669,0.075312477508436
5.644188,5.967081330201375,0.07471579646698909
5.648788,5.972603304523081,0.07411877807189064
5.653367999999999,5.981723016635378,0.07350614609719316
5.657967999999999,5.9914977937670315,0.07290612367249248
5.662552,5.999229332575099,0.07233267822190353
5.667152,6.006061436935518,0.07176793032940645
5.671735999999999,6.012360660990725,0.07118717880466272
5.676335999999999,6.024178676445968,0.0705806482990986
5.680919999999999,6.043680906338975,0.0699240211340263
5.685511999999999,6.068046862612655,0.06923754834947243
5.690107999999999,6.097154360552869,0.06852952948961234
5.694692,6.125362424045435,0.06783250924736065
5.699295999999999,6.160355267528117,0.0670892403035367
5.703887999999999,6.19367142682965,0.06634811710031058
5.708475999999999,6.228786455026479,0.06561418019414465
5.713063999999999,6.266966340708688,0.06486384206940707
5.717651999999999,6.310787202505075,0.06409494922426913
5.722247999999999,6.357672921786844,0.06330549827086743
5.726835999999999,6.4008387185638735,0.06254456025288654
5.731427999999999,6.442982896179111,0.06180115626580558
5.736019999999998,6.489091365727377,0.06103156856976489
5.740599999999999,6.536343639151582,0.06025170440885027
5.745191999999999,6.583351543147496,0.05949259157407967
5.74978,6.628438393533969,0.05874556884427315
5.754375999999999,6.673525243920441,0.05800332227514951
5.758971999999998,6.717223921002683,0.057294925872275554
5.763559999999998,6.761699847818427,0.056598983252351104
5.768144,6.801678602395932,0.055915374888396915
5.772735999999998,6.83205208892623,0.055281374335020214
5.777335999999998,6.856540229914057,0.05468582854790988
5.781927999999999,6.873099787035829,0.054139281050281526
5.786508,6.885939421652862,0.05360377551757308
5.791099999999998,6.891339211260424,0.05308837612941923
5.795687999999998,6.896739000867984,0.05257274299717983
5.800287999999998,6.891756272694836,0.05208971113363311
5.804875999999998,6.877046091760334,0.0516507771914692
5.809479999999999,6.850032339435683,0.051249741988520635
5.814072,6.817133241568561,0.050875019010661486
5.818671999999999,6.776838440140592,0.050558125376853266
5.823263999999998,6.729881043436654,0.05026027835941045
5.827855999999999,6.677937735637892,0.04998704013161758
5.832443999999999,6.622563016211312,0.04975046840693827
5.837039999999998,6.558849017327611,0.049525842930757825
5.841635999999999,6.493091780120323,0.049310968898258346
5.846219999999999,6.421571382084709,0.049112861025669245
5.850807999999999,6.343754942915562,0.048911385805102965
5.8554,6.256211050985062,0.048747740254117725
5.859988,6.165602301569183,0.04859915209731848
5.864583999999999,6.072828129115569,0.048468813538886955
5.869171999999999,5.975068045567134,0.04836432960822601
5.873767999999998,5.877552331446991,0.04824155776215648
5.878355999999998,5.776605205699029,0.04815987833571901
5.882943999999998,5.671571603303894,0.04810492777775039
5.88754,5.558731601756848,0.04808452270482595
5.892119999999999,5.4458916002098015,0.04806053160539859
5.896711999999999,5.332029979500961,0.048042687104247694
5.901295999999999,5.218168358792121,0.04802449403252594
5.905875999999999,5.100342446150251,0.04803037341376294
5.91048,4.984149076240906,0.0479828251580567
5.915063999999999,4.863091979950884,0.04796405404868736
5.919663999999999,4.735372288384889,0.047977069841355
5.924259999999999,4.6014787403995046,0.04797856336535661
5.928844,4.4683624421476225,0.04798768372126943
5.933447999999999,4.336512132485825,0.047949265756889
5.938027999999999,4.201719150052793,0.04793084549720667
5.942623999999999,4.066681798191469,0.04792684276004696
5.947211999999999,3.9362638032825314,0.04791489730119742
5.951815999999999,3.8030253203165034,0.047909834547864995
5.956403999999999,3.6719522603882075,0.04786196839000246
5.960999999999999,3.539979766012265,0.04782028641787386
5.965584,3.403265729969791,0.04779233650325457
5.970179999999999,3.2670404327839004,0.0477037296980597
5.974767999999999,3.1383771653216304,0.04756424452927064
5.97936,3.0163764931353314,0.047371067829560756
5.983948,2.894131451520741,0.04719729836283354
5.988548,2.7727858443537987,0.04701299480539776
5.993136,2.6572033980151804,0.046752918573589757
5.997719999999999,2.5453408741812993,0.04647082664864467
6.002307999999999,2.43286742677669,0.046256168499986546
6.006899999999998,2.3250133363244654,0.046030515437212996
6.011491999999999,2.223821841148212,0.04573792624768416
6.016083999999999,2.1279047679437006,0.04544209580995237
6.020675999999998,2.0307217061491047,0.045218842319400855
6.025263999999998,1.9274089293837475,0.045101450362291656
6.029847999999999,1.8297371287325686,0.044917632853038916
6.034439999999998,1.7337420122625402,0.04476229761760043
6.039027999999998,1.6378690805066567,0.042387458890591555
6.043635999999999,1.5446944520937171,0.04001399493866879
6.048223999999999,1.4501316503765473,0.037675599066417945
6.052815999999998,1.3565904678211709,0.03532288188173264
6.057411999999999,1.269345326399329,0.032973668138837654
6.061999999999999,1.183532499730346,0.030668051454610983
6.066603999999998,1.0937553811283347,0.02840438236061652
6.071191999999998,0.9989923514315019,0.026184811984186852
6.075787999999999,0.9098702978488471,0.023955153133199056
6.080367999999998,0.8244681667709293,0.021735896618870522
6.084963999999999,0.7385772968364289,0.01959225214733474
6.089547999999999,0.655729266095999,0.017459698852179
6.094143999999998,0.5785222114697475,0.01529240030403999
6.098723999999999,0.5068339482435287,0.013113747705186089
6.103316,0.43862123809375564,0.010977007280106327
6.107899999999999,0.3740062657345742,0.008854872155254483
6.112492,0.3169533230990125,0.006659387934329307
6.117092,0.2682396599205728,0.004412823829247397
6.121683999999998,0.222102115370931,0.002220136927094246
6.126271999999998,0.1805839277736741,0.0
