Time,Force,Position
3.174124,9.102656052968017,0.046950671684218105
3.178672,8.913897003676116,0.04692686802070708
3.183212,8.722850346632333,0.046921741148115106
3.1877439999999995,8.538344100150377,0.046906714936578275
3.192276000000001,8.350895180897187,0.04690316929669309
3.196808,8.163734772520916,0.046926897449284716
3.201332,7.975308375554562,0.046965729326042406
3.205856,7.789169586340083,0.046983001352168687
3.210396,7.600987558802021,0.04701143594787349
3.214947999999999,7.417302703502196,0.04704057087282395
3.219492,7.241179877925992,0.047051333578136
3.2240200000000003,7.068899159568669,0.04704998725051738
3.228552,6.902503786753817,0.04702363021312674
3.233076,6.732144122005936,0.047016185716394945
3.2376,6.562028826686348,0.0469942345486626
3.242131999999999,6.3907697274908175,0.04698450143846929
3.246672,6.22172019278165,0.047002727886361284
3.2512160000000003,6.053325723091838,0.04704331765905373
3.255752,5.886652079031804,0.04716076098457449
3.260279999999999,5.719822348440736,0.0474300917977053
3.2648199999999994,5.5639182555673266,0.0479162587352533
3.269344,5.41935049600264,0.048656768350531204
3.2738760000000005,5.289883133700044,0.04968957479082371
3.2784000000000004,5.168198508364209,0.05101358281995958
3.282932,5.063657518614048,0.052579949795537095
3.2874600000000003,4.969553427724963,0.05436519889412452
3.2920159999999994,4.891160657668698,0.05634305214369045
3.296556,4.827091035141018,0.05852596779280746
3.30108,4.778243994589573,0.06093006843042451
3.30562,4.744741720728508,0.06349813460354628
3.310144,4.7204544985870625,0.06631003153239101
3.3146759999999995,4.705748882307675,0.06935379284609895
3.319204,4.701524306337989,0.0726019004031127
3.323759999999999,4.715176474238854,0.0759495609786381
3.328295999999999,4.743806854687663,0.07948075330316517
3.332819999999999,4.789703055436293,0.08311986895766257
3.337364,4.843870732008266,0.08691653977873562
3.341888,4.911295795498406,0.09081855273711625
3.3464199999999997,4.9871484213429245,0.09474759119972598
3.350948,5.073672075845071,0.0985942878306377
3.355503999999999,5.162927935507053,0.10225699685918263
3.360044,5.252007229374522,0.1056347447641558
3.3645760000000005,5.330561341483658,0.10874374347419173
3.369108,5.400555466892533,0.11163954210068158
3.373639999999999,5.459780041114782,0.11430622957362581
3.378187999999999,5.511754758675482,0.11679348286773328
3.38272,5.552759697069896,0.11915604392038458
3.3872519999999997,5.58201760656452,0.12140446480399435
3.391787999999999,5.606557636577764,0.12340144614753702
3.396323999999999,5.619062126814298,0.12525974375602128
3.4008519999999995,5.623084673616086,0.12689990830044745
3.4053759999999995,5.621734275917139,0.12831723144200807
3.409907999999999,5.613212064822159,0.1295369700046871
3.414436,5.59666274733213,0.13062324570167566
3.418995999999999,5.5743297897502995,0.13146413136430116
3.423531999999999,5.538528977638898,0.1322156256937248
3.428055999999999,5.4931024182168136,0.13282406536553576
3.4325959999999998,5.4414034798463415,0.13324076397819354
3.4371199999999997,5.381188696224236,0.13360297646907032
3.441648,5.314667631836857,0.13389605268973417
3.446179999999999,5.24638160037107,0.13409616490520615
3.4507319999999995,5.1715110168948275,0.13436684850367384
3.455272,5.100115986495031,0.13459723837541698
3.459796,5.03472848635185,0.13469196828174768
3.464327999999999,4.974859777608703,0.13468125602845954
3.468851999999999,4.91932191494102,0.13454832600270047
3.473375999999999,4.868769963368159,0.13430028051934334
3.477916,4.822182303728328,0.13396194684362028
3.4824720000000005,4.772896340745552,0.13366727776975787
3.487011999999999,4.7251648772297825,0.13336284942555812
3.4915519999999995,4.682096912115027,0.1330243297968511
3.496083999999999,4.644958433991367,0.13260074394118038
3.500607999999999,4.612361269554575,0.13215501905608382
3.505136,4.579808246566411,0.13176914161624226
3.5096800000000004,4.550286179246736,0.1314307520187985
3.5142359999999995,4.528003728956876,0.13102463660024566
3.518776,4.51169490710674,0.1305987004828003
3.5233,4.498661410353389,0.13020183699111532
3.527831999999999,4.492212465610492,0.12973008209062933
3.5323640000000003,4.489649769535106,0.1292325457803473
3.5369079999999995,4.486231780460701,0.12881090505697654
3.541439999999999,4.490419962558543,0.12828709794887502
3.545968,4.496407013551681,0.12772894284271225
3.550508,4.502926944850031,0.12719102752493816
3.555032,4.505893279806415,0.12677850773705995
3.559575999999999,4.50914812563972,0.12640792786084384
3.564108,4.511259167597086,0.12607461122087127
3.5686519999999997,4.517090132059189,0.12566988299116832
3.5731840000000004,4.524842150130733,0.12521899377382176
3.577716,4.532594168202277,0.12476293490134223
3.5822519999999995,4.539935490682756,0.12427763882324191
3.5867759999999995,4.5409807720297,0.12390100220394096
3.59138,4.536218751099692,0.1235844434609146
3.595968,4.534355261492291,0.12313301866061417
3.600568,4.527295393178664,0.12268387496982008
3.605147999999999,4.517903775664533,0.12224572946681068
3.609744,4.510921950616425,0.12172159620573142
3.614344,4.501486191653665,0.12121960135997226
3.61894,4.495237474890431,0.1206328576693503
3.623536000000001,4.487067704517757,0.12008568974630386
3.628136000000001,4.486215594440409,0.11941943037996955
3.632732,4.485241299648917,0.11876970422100672
3.6373279999999992,4.486887264934851,0.1181560001210184
3.6419159999999993,4.48755575250762,0.11762943967189222
3.646500000000001,4.492599227604482,0.11704479181668602
3.651087999999999,4.499197202168348,0.11645814265242967
3.65568,4.510825229275665,0.11582787489409926
3.660272,4.5226195825457545,0.11525804559120473
3.664863999999999,4.538055815055064,0.11470116685095014
3.669451999999999,4.559299349841327,0.11409985677376859
3.674036,4.580997721667282,0.11359035816949363
3.678627999999999,4.609158460789546,0.11304237762030461
3.683215999999999,4.648400924160503,0.11239050966298876
3.687803999999999,4.685522105942357,0.11186293298134616
3.692396,4.727595297002143,0.11136470139608926
3.696988,4.774454171177088,0.11085624425661622
3.701572,4.824544229000186,0.11035357056106038
3.706167999999999,4.878109839899731,0.10982196918490833
3.710755999999999,4.930820157800255,0.10938192286322149
3.715348,4.989704332120169,0.10888497009199129
3.719931999999999,5.041803726449966,0.10851448450769767
3.724531999999999,5.09288150161797,0.1081708079323339
3.729107999999999,5.144692385070846,0.10777925545571876
3.7337,5.201855733760983,0.10727651276186313
3.738295999999999,5.260162886327058,0.10675452309280549
3.742895999999999,5.317814973873777,0.10623219538378394
3.747488,5.3739125619534915,0.10572502520883942
3.75208,5.428577835280347,0.10521818783501598
3.756668,5.485897270501518,0.10464665922308168
3.761264,5.5420287603981215,0.10406339008347898
3.765868,5.60028153188383,0.10338770189977653
3.770459999999999,5.65566967386382,0.10270321378508968
3.775047999999999,5.700753341328621,0.10209931323490291
3.779635999999999,5.747713920954233,0.10142048981059087
3.784223999999999,5.79205424050242,0.10071064595308585
3.788823999999999,5.827522400288274,0.10007770677351935
3.793399999999999,5.856938888368885,0.09949675167433539
3.797984000000001,5.882102573639546,0.09894374806321811
3.80258,5.9018255107756925,0.0983914449912053
3.807168,5.917784383958474,0.097838979909411
3.811760000000001,5.934476365426131,0.09723496247276216
3.816348000000001,5.94715991351213,0.09663497418476684
3.8209399999999993,5.954324670198097,0.09609182946969042
3.825532,5.956337189626468,0.09558319120730796
3.830108,5.9543412756731815,0.09508061286602956
3.834708,5.952589731148188,0.0945636483670848
3.839299999999999,5.949161502442043,0.0940549424980811
3.843884,5.941358286211805,0.09357216090358968
3.848475999999999,5.92701465941974,0.09315653511821453
3.853056,5.908828925408792,0.09278409160272723
3.85766,5.888477768360112,0.09244880258422032
3.862248,5.869270415187372,0.09208952619872289
3.866844,5.854438049538725,0.09170305626583534
3.871427999999999,5.836296456976406,0.091375379594453
3.876024,5.817788310271649,0.09107024706189834
3.880608,5.804921139681073,0.09070774980236927
3.8852,5.791809599662204,0.09036016098432738
3.8898,5.780008189682047,0.09003066110478711
3.894391999999999,5.7691503555981685,0.08974295520496185
3.898991999999999,5.756415609353474,0.0895266906286108
3.903584,5.747811481204582,0.08930207367147198
3.908164,5.745791905066146,0.08906586120305368
3.912755999999999,5.7500683700612445,0.0887854134224424
3.917331999999999,5.755532780380911,0.08853289996505365
3.921924,5.763861820206294,0.08830373897338147
3.926516,5.770558317299156,0.0881293449661696
3.931104,5.776766075535434,0.08798703384103422
3.935692,5.787759516886872,0.08784688552159257
3.940276,5.801739772458172,0.08772199693680612
3.94486,5.818829026963482,0.08760420613358814
3.949452,5.83735059622165,0.0874989355198229
3.95404,5.856937926090239,0.08743141421191084
3.958644000000001,5.877302505692331,0.0873675105400256
3.963231999999999,5.901387007799159,0.08727234291590054
3.967824,5.932789170201317,0.08712631695864984
3.972416,5.966767451232271,0.08697479442787681
3.977004,6.004343470053818,0.08680274254531856
3.981595999999999,6.044862161646599,0.08660043462590844
3.986176,6.093964502124795,0.08632296668984157
3.990776,6.1462538848025146,0.08600140675320854
3.995359999999999,6.194945529689646,0.08570650038627159
3.999959999999999,6.24208267510977,0.08541237544717778
4.004547999999999,6.288198201368102,0.08513814023970122
4.009147999999999,6.335213162074082,0.08486106844532625
4.013735999999999,6.383371926656,0.08456829587391637
4.018323999999999,6.436760971761032,0.08421274633999419
4.02292,6.492071070475506,0.08384125227059629
4.027511999999999,6.551589830551299,0.08342296324054062
4.032111999999999,6.610209156179446,0.08300971423647396
4.036703999999999,6.67021665511182,0.08256855142790973
4.04128,6.730590708186634,0.0821112912734554
4.045875999999999,6.790309696242091,0.08165007386086585
4.050463999999999,6.852849172354637,0.08117747126928689
4.055056,6.91628808291483,0.08070696767582551
4.059639999999999,6.973553137055634,0.080270981015479
4.064232,7.027587007548285,0.0798388987692003
4.068827999999999,7.081743062755081,0.07940727067658568
4.073403999999999,7.131524130437782,0.07899227187526685
4.077988,7.169612550301061,0.07863413638702685
4.082572,7.204225417087895,0.07828867027144165
4.087148,7.237283784407724,0.07793832693197242
4.091748,7.2680104025270476,0.07758263699342859
4.096327999999999,7.292563164226983,0.07724773426993695
4.100903999999999,7.318870653373583,0.07686909360001168
4.105496,7.340148089976735,0.07649488030430805
4.110076,7.353208431836911,0.07616172510516599
4.114672,7.3652030130866635,0.07579970215345168
4.11926,7.36730381541229,0.07547715822685093
4.123864,7.36792816153643,0.07510197026308192
4.128448,7.3665873126025,0.07470130873704421
4.133048,7.363159083896356,0.07428019292140477
4.137631999999999,7.3559667912368445,0.07383739095599381
4.142224,7.336426785738557,0.073423729260775
4.146824,7.310057858801522,0.07301462341547091
4.151416,7.2793139443403945,0.0726113859190384
4.156,7.244972292088675,0.07221707465753255
4.160592,7.201103415055267,0.07183322350668889
4.16518,7.162464818544971,0.07139430853346429
4.169764,7.129178687271935,0.07089222113571673
4.17434,7.093316437370101,0.07038820643442412
4.178928,7.057942926324849,0.06985447777554257
4.183512,7.019871111936656,0.06932429844741374
4.188092,6.984086905300338,0.0687579013165282
4.192676,6.937797996169168,0.06824741626927444
4.197259999999999,6.890731837304494,0.06772650044426072
4.201844,6.845708916763408,0.06718157376241345
4.206444,6.795944454555792,0.06665606680895503
4.211035999999999,6.751410272871288,0.06607197646888249
4.21562,6.704588483434904,0.06551117596666253
4.220216,6.654579651798995,0.06497736994737092
4.224804,6.603427016287149,0.06445249371442661
4.229408,6.550886207471071,0.06394826764320242
4.233984,6.50848354700741,0.06340011375412094
4.238584,6.472743481819722,0.06281273167744254
4.243172,6.439579535260832,0.06221948672731803
4.247763999999999,6.409113892044886,0.06161505621525618
4.252351999999999,6.386620974143623,0.06099345733068565
4.2569360000000005,6.357221091538098,0.06041585873931283
4.261511999999999,6.325044862324112,0.05989210382306832
4.266108,6.296710740329008,0.0593434466311033
4.270692,6.269686748372616,0.05881540590562346
4.275287999999999,6.250224786139846,0.058253859970670764
4.279872,6.233338942535872,0.05769322928558099
4.284463999999999,6.224914563103167,0.05709491202704371
4.289039999999999,6.218944117585114,0.056502439337630855
4.293632,6.213628737086417,0.055920256074328656
4.298224,6.214609397721255,0.05532818432562818
4.302803999999999,6.212813711747632,0.05479202942783848
4.3074,6.216414632459896,0.0542492280373563
4.311979999999999,6.219648999029724,0.05372292573657516
4.3165640000000005,6.222272442028822,0.053228546184713336
4.32116,6.228493622818513,0.052728635499937435
4.325736,6.231405576694533,0.052267233767389135
4.330339999999999,6.229331619475729,0.05183707931283909
4.334927999999999,6.2281570967045745,0.05140481704132595
4.339515999999999,6.228659258114569,0.050978807105968214
4.344119999999999,6.228017615648623,0.05056804165277541
4.348707999999999,6.229952091811477,0.05016017988978657
4.3533,6.229965514364888,0.049756591291720415
4.357876,6.2254037214145415,0.04940795796798816
4.362476,6.2189208748547555,0.04906600585516971
4.36706,6.206430498038356,0.0487609110495755
4.371659999999999,6.188709840698841,0.04849660819558262
4.376248,6.166780521998005,0.04826596742703967
4.380847999999999,6.144606833868878,0.048047698508082534
4.385428,6.122433145739753,0.04782752471734463
4.390019999999999,6.0937190470488005,0.04761884328287855
4.394607999999999,6.06386114448191,0.047422579540325444
4.399207999999999,6.0263190274772525,0.04725148994867179
4.403804,5.989676344920243,0.047078338124336545
4.408388,5.9522564126297315,0.046896160467058294
4.412976,5.910750003692046,0.04674022647212974
4.417568,5.869365779468506,0.04657513677612747
4.422147999999999,5.827492816388383,0.046436541113335686
4.42674,5.7825549958228795,0.046316568624276896
4.431328,5.7328756335908455,0.04620711137094908
4.435908,5.674612622473399,0.04612326149291108
4.440499999999999,5.6144285577465105,0.04604335171297409
4.445075999999999,5.554366677733767,0.04595367597911639
4.449663999999999,5.493894102129958,0.045830984991785735
4.454256,5.429335049878976,0.045736266896862485
4.458844,5.356969598476082,0.045677369365333675
4.463439999999999,5.281905843730246,0.045618032922663435
4.468035999999999,5.207985892860348,0.045539265870125314
4.47262,5.131489823361653,0.045446189695020976
4.477223999999999,5.048986223606342,0.0453897217813666
4.481815999999999,4.967792753889744,0.04536741204174661
4.48642,4.883245915810846,0.04532429707285381
4.491008,4.79755527385601,0.04529991789090235
4.495603999999999,4.708144709396435,0.045280033880294036
4.500196,4.613870418556185,0.045286598259109356
4.504796,4.5180416282489295,0.045271696469582526
4.509384,4.413751373770407,0.04527806455384631
4.513979999999999,4.308683869558381,0.04527523186704949
4.5185640000000005,4.202716930898708,0.04527047765537879
4.523155999999999,4.094706753915449,0.04528446012932957
4.527743999999999,3.992581922474659,0.0452563853096847
4.5323400000000005,3.887514418262634,0.04524669352172845
4.536936,3.78244691405061,0.04522901321991209
4.541531999999999,3.678156659572087,0.04521186803204034
4.5461160000000005,3.57513239368365,0.045159219807132146
4.5507,3.4750508005664478,0.04509133157112133
4.555288,3.377134630486977,0.04497664242237101
4.559888,3.27243368041739,0.04490137449854734
4.564476,3.1616030153770414,0.04490815863967729
4.569067999999999,3.052815588660278,0.04489296809015157
4.573659999999999,2.943617466352452,0.044810574639377126
4.578243999999999,2.836096028225774,0.04473230989286312
4.582836,2.736503173965154,0.04455109566835393
4.587416,2.6367881349903883,0.044377945197476606
4.592004,2.5419368223962984,0.04415332998946651
4.5966,2.4468411403739174,0.043946909819939775
4.601183999999999,2.3600847378086587,0.043705248792995026
4.605771999999999,2.269730597452808,0.043429772426956725
4.610368,2.177577588201662,0.04311934061095857
4.614964,2.0836257100552213,0.04278047838964824
4.619559999999999,1.987752778299338,0.04239545133256005
4.624135999999999,1.8927792809911028,0.04199391863525074
4.628732,1.7969063492352195,0.04151129903644233
4.63332,1.6997674288892513,0.039292456653844794
4.637916,1.603405758276786,0.037095279272768414
4.642504,1.5166493557115273,0.034891803158471284
4.647104,1.4314474526132723,0.03272934598515626
4.651696,1.3489438528579614,0.0305474751684352
4.656292,1.275146086702209,0.028305201394680984
4.660884,1.2030250047276074,0.026069977774830708
4.665475999999999,1.1305373686105684,0.023883747192194778
4.670072,1.0596042319605339,0.021707902292243828
4.674663999999999,0.9834408147873861,0.019618241887944338
4.679256,0.9139399928902101,0.017524202169592017
4.683848,0.8444391709930342,0.015463851907300754
4.688436,0.7794355213340975,0.013400702567512702
4.693024,0.7116113836180717,0.011367293882014889
4.697612,0.6498389176072895,0.00937044865947225
4.702203999999999,0.5971829807871314,0.007412170245592638
4.706796,0.5518447042623018,0.005473302709954308
4.7114,0.5087159922238331,0.0036105224783914685
4.715991999999999,0.4673861490806602,0.0017555294152867362
4.720579999999999,0.43120854319508295,0.0
