Time,Force,Position
4.558363999999999,16.053081026676868,0.049349089054720185
4.562951999999999,15.952181225299206,0.04913022846191976
4.567544,15.83914417869417,0.04893929585524898
4.572132,15.718955797956577,0.04876494052866432
4.576727999999999,15.591616083086429,0.04860784978188746
4.581315999999999,15.454304546026636,0.048470708583548905
4.5859000000000005,15.30816499065314,0.04834800131931383
4.590488000000001,15.154341220841879,0.04823463152530229
4.595084,14.991811617431056,0.048132879500257325
4.599667999999999,14.81853294209709,0.04804918228476701
4.604248,14.634505194839978,0.04798370167329794
4.608832,14.43588626844084,0.047942772596147244
4.61342,14.231259811785081,0.047915364211278226
4.618008,14.026222659538256,0.04787328641735683
4.622603999999999,13.80875975118714,0.04784775893190197
4.627191999999999,13.581691574788811,0.04783642126926165
4.631788,13.341298207838545,0.047844779362094046
4.636384,13.098206537545336,0.04785207721184481
4.640972,12.84653121836671,0.04787197126213327
4.645567999999999,12.583940501102164,0.047895044758336884
4.650164,12.314809373275793,0.047925774746804845
4.65476,12.037583335420589,0.04795892681967022
4.659336,11.75610449475544,0.047985373300702974
4.663936,11.466941439652524,0.04803015724878194
4.668516,11.175446635349102,0.048063036758727265
4.673116,10.884074015759829,0.048093793424724196
4.677707999999999,10.5936008306182,0.0481253806693855
4.6823,10.304926514371868,0.04815778845159011
4.686888,10.015396905126519,0.04822844357202
4.69148,9.729797685997308,0.04837357290912844
4.69608,9.458477472948053,0.048655840597240756
4.700671999999999,9.210064056312799,0.04908821562146977
4.705264,8.979938079139162,0.04967198618960554
4.709856,8.762869260904026,0.05043307488004189
4.714444,8.56187831764414,0.05132757831658168
4.719032,8.374266946016569,0.052360502304707846
4.72362,8.208374425478432,0.05351106456702453
4.728216,8.052307880230641,0.054839535005891296
4.732808,7.908643428901995,0.05635917593821044
4.737399999999999,7.7840436667684685,0.05802656661082507
4.741992,7.677198463791345,0.05981620597607859
4.746584,7.587985635256481,0.06174115854241282
4.751184,7.513218138964349,0.06383236481413515
4.755763999999999,7.458248440152207,0.06603020159666853
4.760344,7.415680835259214,0.068399490610684
4.764951999999999,7.387680747323096,0.07091169670128629
4.769544,7.371794242429207,0.07356526123355127
4.774136,7.3655673866628915,0.07636040574292431
4.7787120000000005,7.369200408003812,0.0792582689476984
4.7833000000000006,7.379129470478271,0.08217966888909725
4.787891999999999,7.377233460787421,0.08508188314754433
4.792472,7.356639316043893,0.08793055939237712
4.797076000000001,7.321966393200066,0.09070073835694081
4.801664000000001,7.275013561151241,0.09340653858730553
4.8062640000000005,7.218401079974841,0.09608523509507812
4.810844,7.1574033716426095,0.09870372879741021
4.815440000000001,7.082781722249778,0.10135268580587052
4.820024,7.003975073680774,0.10389618076977296
4.824616000000001,6.9208170997728296,0.10630130313331869
4.829196,6.826278651107531,0.10865077716755346
4.833791999999999,6.719504434685862,0.11101127405078594
4.838388,6.604580927154994,0.11331806050835949
4.842979999999999,6.484206431857872,0.11555943271341383
4.84756,6.3547832110039035,0.11774815810872179
4.852152,6.221419360402057,0.1198025233348913
4.85674,6.084237064766477,0.1216861423719155
4.86134,5.94340265025994,0.12346179209067079
4.865928,5.797405758864067,0.125217913525554
4.870519999999999,5.647678705331721,0.1269660723533682
4.875112,5.498762803349761,0.12865888364407657
4.8797,5.361495407738597,0.13020131454033446
4.884292,5.233999606337413,0.1316944594663969
4.88888,5.1143543455367695,0.13314647765913773
4.893468,5.005135743965463,0.13452011357743135
4.898064,4.907976344356017,0.1357060238687144
4.902652,4.816580105574894,0.13680508757108267
4.90724,4.737853992326358,0.1376625358396166
4.911835999999999,4.669143842716094,0.13834501733493113
4.916423999999999,4.608939298725726,0.138927623380444
4.921028,4.556463110621753,0.1394242710559218
4.92562,4.513225636422548,0.13975880340817326
4.930216,4.476694898947944,0.14001870436056837
4.934804,4.447359637054522,0.14015134300591317
4.939404,4.424853296599848,0.14018454576911354
4.94398,4.406355389526831,0.14017787607580562
4.94858,4.38880105835009,0.14021645286361725
4.953172,4.372801226640353,0.14024555126942337
4.957772,4.367961162444828,0.14002635543765868
4.962368,4.374280865763513,0.13955725535509203
4.96696,4.387140979644025,0.13894321759062334
4.971544,4.402332842725042,0.13831563332107086
4.976127999999999,4.4238207469395965,0.13756566648906748
4.980724,4.448006954497093,0.1367586277651496
4.98532,4.472437531482881,0.1359246234794722
4.9899,4.494947054859228,0.13514684890353382
4.9944880000000005,4.51925544713087,0.13433743336783854
4.9990760000000005,4.540376797202986,0.13362893383552493
5.003672,4.55651223618028,0.13305705823819122
5.0082640000000005,4.57444654405287,0.1324609830694388
5.0128520000000005,4.5953235246966955,0.1317968666239283
5.017443999999999,4.612480582835783,0.13120476817639934
5.022024,4.630903629564957,0.13056417828166123
5.026603999999999,4.64764999211298,0.12994706511320483
5.031191999999999,4.663619104927499,0.12933848038194698
5.035779999999999,4.6777893488467255,0.12876028186547087
5.040388,4.6938806463753915,0.12813844081371203
5.044976,4.71242587781871,0.1274882576376813
5.049567999999999,4.725985198167206,0.12697444342079686
5.05416,4.737501280192116,0.1265269701642014
5.05874,4.743909266408058,0.12621443167395205
5.063336,4.748274014300413,0.12595546023201784
5.067916,4.752638762192768,0.12570087781069472
5.072516,4.7584358248379806,0.1254506750242088
5.077104,4.767586255845494,0.1251659028279421
5.081704,4.777025197729927,0.12492034325908977
5.086288,4.78507596631013,0.12473212898991765
5.090888,4.799422776023867,0.12444746403683093
5.095471999999999,4.816345704366403,0.12412944785410515
5.100059999999999,4.830325959937703,0.12387840430437
5.104656,4.840874803881186,0.12373254891088298
5.109252,4.858496938691705,0.1234862126626121
5.113847999999999,4.8786951921310235,0.12321535312280746
5.118444,4.903268433094436,0.12289223621991505
5.123032,4.92633131603947,0.12263210622095644
5.12762,4.953769186508599,0.12231673825006951
5.132208,4.980063253101789,0.12203651025792393
5.136796,5.007623308285064,0.12171679201042214
5.141384,5.036082797915986,0.12138387721850065
5.145975999999999,5.063398483670969,0.12109065975642813
5.150568,5.094800646073126,0.12070822023892569
5.155156,5.128246046798872,0.12028307090798329
5.159748,5.159526024486883,0.1199199001924514
5.1643360000000005,5.190928186889041,0.1195517992318147
5.1689240000000005,5.222330349291198,0.11919193790357759
5.173515999999999,5.257818988340531,0.11875230672666531
5.178108,5.296372484875241,0.11825205808841546
5.182696,5.331861123924573,0.11782616552280509
5.187288000000001,5.367471947688048,0.11739313531823743
5.191884,5.4046372709185295,0.1169571750054128
5.196488,5.4439680171867435,0.11646755407733192
5.2010760000000005,5.4841981979026055,0.11598125422357577
5.205672,5.5203419019712925,0.11558123239284232
5.2102520000000005,5.55624123661169,0.11521006800995734
5.2148520000000005,5.596882112918617,0.11476788542253435
5.219428000000001,5.636379185349605,0.11436016806499864
5.224028000000001,5.675631888352302,0.11396743328272817
5.228619999999999,5.7164390908220035,0.11358070616641851
5.2332160000000005,5.7622322043865255,0.11311837526257375
5.237807999999999,5.8054491993222515,0.11267905672255561
5.2424,5.847644575096183,0.11226780014226148
5.246988,5.889839950870115,0.11186334996551876
5.251583999999999,5.930236457748751,0.11147742120115564
5.2561800000000005,5.971776768503325,0.1110724545005873
5.260776,6.008942091733807,0.11070964872872582
5.265364,6.038911939383104,0.11042714906278038
5.269947999999999,6.0673272875654,0.11015237736373815
5.274536,6.093533071261333,0.10987347854340637
5.279135999999999,6.121904277994999,0.10955603822273031
5.283720000000001,6.1483102896705955,0.10921877909079966
5.288304,6.1761044746504234,0.10884432928927859
5.292895999999999,6.198990791800946,0.10849644762183544
5.297483999999999,6.2211779024834835,0.10809304947337688
5.30208,6.237557710889069,0.10772078987788042
5.306668,6.247230782570055,0.10738708438617346
5.311244,6.255838093640619,0.10702435316000182
5.315844,6.266322316871996,0.10659013265783235
5.320432,6.269855433950481,0.10620919148220045
5.325023999999999,6.265049271571845,0.10592248435009803
5.329616,6.2643295858403825,0.10557152647327621
5.334196,6.26193321592777,0.10523042551934672
5.338792,6.255161858491065,0.10492235230193599
5.34338,6.245037132692059,0.10462981892362594
5.34798,6.227472561883579,0.1044197297637374
5.352568,6.2145273480274845,0.10415950445134722
5.35716,6.20632367583792,0.10384118078997791
5.361744,6.196076765324768,0.10355504481287488
5.366344,6.188650342868706,0.10323640895185313
5.370927999999999,6.177503997907906,0.10295843552827398
5.375524,6.166646163824026,0.10271114614318268
5.380132,6.155421775597709,0.10248763847471015
5.38472,6.146406951857752,0.10227150429428372
5.389308,6.141156192071161,0.10206289997298516
5.393903999999999,6.137459931751574,0.10185325954141888
5.398491999999999,6.139815343137232,0.10160470933929046
5.403088,6.145646307599335,0.1013356654606614
5.407675999999999,6.150988533204855,0.10109887724493871
5.412255999999999,6.162504615229765,0.10081759664712601
5.4168400000000005,6.177618435045265,0.10050575635665888
5.421423999999998,6.187990713194235,0.10024815566552986
5.426016000000001,6.200284044952648,0.0999702658835426
5.430599999999998,6.214254060892209,0.09968384772935286
5.435184,6.240405463507774,0.09927649301999733
5.439768000000001,6.274118895846962,0.09878774890427654
5.444355999999999,6.304356775109702,0.09832465368749571
5.44894,6.330996916581851,0.09789250351007753
5.453536,6.357759242768147,0.09745215336284405
5.4581240000000015,6.384765938382733,0.09700364278748246
5.462727999999999,6.410995384263817,0.09655372737701248
5.467316,6.440778426486864,0.09603579908717434
5.471912,6.470928022852347,0.095501947301108
5.476488,6.499889673893264,0.0949485932167712
5.481088,6.523943457104877,0.09440648190458306
5.4856760000000016,6.551306467230161,0.09381206382273187
5.490279999999999,6.579402585640319,0.09318392288473663
5.494864,6.601324847631089,0.09259547794932288
5.499464,6.621159729849642,0.09199054006460401
5.504055999999999,6.63890723229598,0.09137285135782373
5.508648000000001,6.65468953968425,0.09073124104100742
5.51324,6.671615650948458,0.0900681818511966
5.517831999999999,6.68146847134563,0.08944220958163225
5.522431999999999,6.69499707279891,0.08874525593688055
5.527024000000001,6.698754080042209,0.08810963546583826
5.531611999999999,6.697481034742059,0.08748639975670877
5.536200000000001,6.693998424955548,0.08684765875450659
5.540787999999999,6.689982934863826,0.08618942596087978
5.5453800000000015,6.683757880285742,0.08551475073947962
5.549959999999999,6.670337350126476,0.0848787007629981
5.554535999999999,6.656261754947854,0.08422937531592765
5.559131999999998,6.632170196130959,0.08363913709634162
5.563711999999999,6.602149150322966,0.08305878699067959
5.568304000000001,6.56607643280973,0.08249193380880708
5.572896,6.532169138334226,0.08188804800667616
5.577483999999998,6.492865237172836,0.08130846903507777
5.582087999999999,6.447509664306202,0.08074086541434139
5.586676000000001,6.401621211134357,0.08014812187967367
5.591272,6.3558549426766575,0.07954061104336665
5.595867999999999,6.304692067533073,0.0789513437721054
5.600456000000001,6.252385388513548,0.07837282708279933
5.605048,6.198646394741163,0.07777323188513692
5.609628000000001,6.1516921809588965,0.07710597359057678
5.614232000000001,6.099752056081807,0.07648166320667721
5.61882,6.047811931204718,0.07584789404698665
5.623415999999999,5.995993991041774,0.07519653554883753
5.628004000000001,5.94675216950763,0.0745315551972441
5.632604000000001,5.900985901049931,0.07385277841965784
5.637195999999999,5.863558912049354,0.07312253179203486
5.641791999999999,5.828708041677575,0.07237856072162942
5.646376,5.799620332134119,0.07158860420699575
5.650967999999999,5.782469639838378,0.07073588155916229
5.655556000000001,5.767650696743142,0.06988703328356599
5.660152,5.762725532572033,0.06900007186253436
5.664739999999998,5.760376487029721,0.06811439743863618
5.669336000000001,5.761258625135564,0.06723530408586646
5.673912000000001,5.7648832080329795,0.06639355231724375
5.678508000000001,5.773537843473845,0.06555735288014872
5.683095999999999,5.784524228115216,0.06473717696295503
5.687688000000001,5.804260587804775,0.0639065708209815
5.69228,5.829760108322657,0.06304453784178198
5.696867999999999,5.860534050812281,0.062182235159114974
5.701467999999998,5.8906970697311785,0.06136522798482955
5.706056,5.926134510621815,0.06054763931847843
5.710647999999999,5.963659331284668,0.05976042274819146
5.715236000000001,6.007113638938618,0.058989410507313315
5.719823999999999,6.053799130240724,0.0582412891436294
5.724419999999999,6.100240252114537,0.05751560686145399
5.729004,6.141451093465236,0.05685311318376644
5.733599999999999,6.187814172073533,0.05619924080381673
5.7381920000000015,6.231645273501661,0.05560087182877691
5.742784,6.2686915949396695,0.055047903801104886
5.747375999999999,6.3063929813970345,0.05450810599029217
5.751956,6.336698664293554,0.05404169491433596
5.756556,6.362795685828754,0.05361671595118848
5.761143999999998,6.389792141811602,0.053193646754018595
5.7657440000000015,6.416910782508595,0.052765638340034164
5.770332,6.439043512110765,0.052370113291899945
5.774940000000001,6.460809687570499,0.05199772425054355
5.779527999999999,6.478978125239642,0.051632837669500914
5.784127999999999,6.492449162690883,0.05133352366330816
5.788712,6.503510407676098,0.05107154324110065
5.793308,6.50880849183299,0.05083161745027836
5.797892000000001,6.5111639032186455,0.05060789640103518
5.802488,6.5138858687467405,0.050364727518954835
5.807064,6.512765727055952,0.05013782586966543
5.811655999999999,6.50588242453684,0.04993249385482536
5.8162400000000005,6.494379765065341,0.049734024754027405
5.820823999999998,6.478379933355605,0.04953499294179833
5.825416000000001,6.45788292940763,0.049336655893620164
5.829999999999998,6.43072333018368,0.04915784454360974
5.834592000000001,6.400376688760208,0.04900399510732552
5.839168000000001,6.371173851212671,0.048834722760313046
5.84376,6.341438133359925,0.04864392320583635
5.848344000000001,6.310025731326029,0.04844397897329077
5.852920000000001,6.27195073401616,0.04826252664260258
5.857516,6.228112575877968,0.04809910999074883
5.862107999999999,6.18169829911098,0.047926025585435426
5.8666920000000005,6.125023689277425,0.04777254928731599
5.871288,6.0605426802919595,0.04765109800583705
5.875879999999999,5.989643445458816,0.04753774265292422
5.880472000000001,5.904763955054369,0.04745468344004202
5.885051999999998,5.820128834078215,0.047352638140914276
5.889648000000001,5.728053868092587,0.047262410211315546
5.894235999999999,5.6293163068309875,0.04718774608471925
5.898824000000001,5.524038335007562,0.047124590458507754
5.903411999999999,5.41414100623175,0.04706948279816692
5.908003999999998,5.299257766361116,0.047046491931265165
5.912600000000001,5.182086918738604,0.047057650081188895
5.917192,5.062217767773149,0.047060232363524766
5.921783999999999,4.941693551788335,0.04704415803273364
5.926376000000001,4.822313139679461,0.0470090868218457
5.930959999999999,4.6941047092568855,0.04702365051645856
5.935544,4.565119029100805,0.047020053466872935
5.940128000000001,4.432046872297551,0.04705481103734148
5.94472,4.300118519370236,0.04706310428224988
5.9493040000000015,4.168067981728776,0.0470843874623907
5.953879999999998,4.039737366592053,0.04708594457391327
5.958463999999999,3.915371043388358,0.04705719431623972
5.963044,3.7939473929558982,0.04700426388338795
5.967628000000001,3.6737897311135232,0.046915596019318356
5.97222,3.5650362062136507,0.04676987156675059
5.976811999999999,3.4541172582760455,0.046650387152265126
5.981407999999998,3.342953940910149,0.04655762815158105
5.986004000000001,3.230402450240022,0.046523198096418736
5.990592,3.1167071556939554,0.046524765510396304
5.995196,3.007875587528566,0.04647517115501367
5.999772,2.906728233800941,0.04636396493951844
6.004368,2.8086457375586975,0.046205341321564994
6.008944,2.7063545799551334,0.04612462403161549
6.013544,2.608438409875663,0.04605396145514314
6.018128000000001,2.508479001472606,0.04601409950882532
6.022728000000001,2.4140383844695816,0.045976086122250494
6.02732,2.3192312133241195,0.04598814887545652
6.031911999999998,2.2291655838451887,0.045975011386146854
6.036491999999999,2.1368123466143802,0.04605058339166649
6.0410840000000015,2.0436818596500688,0.0461160683811583
6.045672,1.9474865152003769,0.046251252428161305
6.050272,1.855788342988924,0.04636445211048883
6.054856000000001,1.7646230510826821,0.04658406697850706
6.059439999999999,1.679875985024121,0.046737597455173224
6.064019999999999,1.5930856806419726,0.04692605391152806
6.068608000000001,1.511036917926355,0.04705863105896483
6.073191999999999,1.433607512163122,0.0447940725277124
6.077772,1.3639845055518007,0.044800027055566745
6.082363999999998,1.300124659768803,0.04245321878437191
6.086948,1.2321783373386315,0.040149445252089556
6.091524,1.1603899076895772,0.03788832896689989
6.096132000000001,1.0865582397169358,0.0356539755692493
6.100719999999999,1.0206551556103514,0.033363889086939665
6.105308000000001,0.9529532026084712,0.031076085640476016
6.109891999999999,0.8890933568254737,0.02876987224896798
6.114484000000001,0.8234346421471805,0.026440036748610646
6.119088000000001,0.762517469135418,0.02408587626898117
6.123663999999998,0.702621915285449,0.021733441260915108
6.1282640000000015,0.650166206444954,0.019320039955015432
6.132839999999998,0.6058054076332899,0.01690506345454059
6.137443999999999,0.562221858555128,0.014449009990031157
6.142036000000001,0.5167172558675246,0.012032379524342777
6.146632,0.47529912982709516,0.009527363146111441
6.151215999999998,0.43261501519658097,0.00710942499202645
6.155808,0.3934064536425125,0.004689968976577814
6.160399999999999,0.3548529571078006,0.0023182866466548106
6.164991999999998,0.31948650277261487,0.0023182866466548106
6.16958,0.2800335717902552,0.0
6.174175999999999,0.24213514027489969,0.0
6.1787600000000005,0.21269817293081195,0.0
6.183347999999999,0.18661457394902423,0.0
6.187932,0.1668270161007715,0.0
6.192527999999999,0.14655071939593609,0.0
6.197116000000001,0.12909491074818993,0.0
6.201712000000001,0.11261809233680109,0.0
