Time,Force,Position
8.190640000000002,0.08074717438379032,0.0
8.195236000000001,0.07015565008911451,0.0
8.199824,0.058420321918499475,0.0
8.204424,0.04848386264318016,0.0
8.209016000000002,0.04092183291956033,0.0
8.213608,0.03221599932000131,0.0
8.2182,0.022610731272794442,0.0
8.222784,0.017869189606263845,0.0
8.227364000000001,0.01631469013925948,0.0
8.231956,0.0220778509675836,0.0
8.236540000000002,0.03143874958649913,0.0
8.241120000000002,0.036180291253029725,0.0
8.245716000000002,0.04079964820541465,0.0
8.250304,0.04464175542429741,0.0
8.254892000000002,0.05253497637602968,0.0
8.259488000000001,0.0631265006707055,0.0
8.264076,0.07384020967952698,0.0
8.268684,0.0844317339742028,0.0
8.273276,0.09477888884058727,0.0
8.277864000000001,0.11088920453529588,0.0
8.282452,0.1250784666205631,0.0
8.287052,0.13926772870583032,0.0
8.291656,0.15051431801986265,0.0
8.296236,0.1604949187438101,0.0
8.300828,0.16654659044905373,0.0
8.305408,0.17631818465903443,0.0
8.310008,0.18519034442136728,0.0
8.314592000000001,0.18919877780302383,0.0
8.319196000000002,0.1873218656422106,0.0
8.323776000000002,0.17992616208136458,0.0
8.328372000000002,0.17073158962522286,0.0
8.332968000000001,0.16398217254942982,0.0
8.337564,0.15977351118811006,0.0
8.342152000000002,0.1539235285599648,0.0
8.346748000000002,0.14603030760823257,0.0
8.351336,0.13543878331355677,0.0
8.355924000000002,0.12472507430473527,0.0
8.360512,0.11413355001005944,0.0
8.365108,0.1044060972487069,0.0
8.369700000000002,0.0882957815539983,0.0
8.374292,0.07410651946873108,0.0
8.378888,0.05991725738346389,0.0
8.383468,0.04867066806943156,0.0
8.388052000000002,0.038690067345484094,0.0
8.39264,0.03140776996448017,0.0
8.397228000000002,0.02142716924053271,0.0
8.401836,0.012346002964233101,0.0
8.406424000000001,0.0051858902973748655,0.0
8.411032000000002,0.003230934871044126,0.0
8.415624000000001,0.006149945457128443,0.0
8.420212,0.019505854904288744,0.0
8.424808000000002,0.04457343033691347,0.0
8.429396,0.07512735645011681,0.0
8.433992,0.11906963272993461,0.009192936566839602
8.438572,0.1738153620132654,0.017886240514179225
8.443180000000002,0.23809855571002436,0.026459641883669595
8.447768,0.30950942135418735,0.03529602076582721
8.452368,0.3908684470028437,0.04409129400646385
8.456948,0.4832326147321114,0.052762170449082144
8.461548,0.5879635134662001,0.061309109602377496
8.46614,0.7031313110613647,0.06975323012794787
8.470736000000002,0.8295132572511074,0.07809152955287343
8.47532,0.9671093520354284,0.08634125681941422
8.479916,1.1129769226430926,0.09466096939577903
8.484504000000001,1.2716131413123393,0.10287354039887053
8.489096,1.444039627204962,0.11094888987574447
8.493676,1.6279246311204543,0.1189436921777853
8.498268,1.8184824699436573,0.12695122725712557
8.502860000000002,2.0167598861189506,0.13488920225669385
8.507452,2.2186689419017243,0.14270044134748294
8.512039999999999,2.4079756757856896,0.15060032641270038
8.516628,2.588111499398664,0.15841156550348948
8.52122,2.7619749440632537,0.16614255966126096
8.525808000000001,2.922781229789341,0.16466044303311414
8.5304,3.073028431940207,0.16365120730021812
8.534988000000002,3.210018247172908,0.16286995022753015
8.53958,3.3413907484765817,0.161733941824755
8.544167999999999,3.462893133041279,0.16055446283428998
8.548756000000001,3.5691287941811125,0.15952120667410583
8.553352,3.6608749816295862,0.15861044187949933
8.557940000000002,3.7388309018546835,0.15787175767118616
8.562532000000001,3.8042625434464905,0.157231493084361
8.567124,3.8589687753003012,0.15662279884858057
8.571716000000002,3.90650319375808,0.15581691858097377
8.576319999999999,3.9396703232386434,0.15506260337720104
8.5809,3.955649675684903,0.15443676390101183
8.5855,3.9571836958884297,0.15391638859665643
8.59008,3.9525336200408288,0.15332490589868594
8.59468,3.9414550787138083,0.15269235046865928
8.599264000000002,3.9229705941942026,0.15211844211935688
8.603868000000002,3.905052891796698,0.15139591712309464
8.608452,3.8767085301698554,0.15091423336306006
8.613044000000002,3.8477091035236564,0.15041598999152986
8.617628,3.8171551774104526,0.14992991586740828
8.622224,3.784391686810888,0.1494527439814467
8.626820000000002,3.753627293086283,0.14881782077782987
8.631416000000002,3.720408965447026,0.14821474816006242
8.636004,3.6813052922652982,0.14781174179636825
8.640588000000001,3.643878303264721,0.1473677632356272
8.645176,3.6080058137311486,0.14689553663121363
8.649768000000002,3.574543116663599,0.14629044746018327
8.65436,3.5396481048431907,0.14568155948314537
8.658936,3.5031985935557794,0.1450811716545955
8.663532,3.46331767064055,0.14463758449630487
8.668116000000001,3.424624693049888,0.14420742568266
8.672712,3.389695779412591,0.14373404644112314
8.677299999999999,3.3582424188517397,0.14316684680325106
8.681888,3.32756630802439,0.142580807365555
8.68648,3.291659916673928,0.14221053185694862
8.691068000000001,3.258618154829183,0.1418207966945209
8.695648000000002,3.22831883777601,0.14143112982400727
8.700251999999999,3.2098784947050327,0.14078960024051723
8.704848000000002,3.1909935542261008,0.14029454844294154
8.70944,3.178326611615187,0.1397271050950494
8.714020000000001,3.169179363529347,0.13916258887442115
8.718616,3.1669051783308797,0.13854267567952042
8.723196000000002,3.1701939259810743,0.13785998646347408
8.727800000000002,3.1848087673082537,0.1369258335721395
8.732384,3.207684844827037,0.13587855734155757
8.736984,3.232037378547308,0.13491170877642325
8.741568000000001,3.259543052650215,0.1340083524975948
8.746164,3.293022355192849,0.13308472018609002
8.750748000000002,3.330143536974702,0.1321701545862004
8.755336,3.37384927076701,0.13116684676237278
8.759928000000002,3.420952514370246,0.13020323673278286
8.764528000000002,3.4716976372127015,0.12926064181770186
8.769116,3.5250630201325834,0.12837282867240987
8.773708,3.5811708478440365,0.12753317607981435
8.778300000000002,3.64705026976547,0.12649607943543698
8.782896000000001,3.715794321192621,0.12550696284910873
8.787484,3.78740300212549,0.1245534800435202
8.792076000000002,3.8614656169730104,0.12362824998993038
8.796668,3.938470904591766,0.12262538557961089
8.801248000000001,4.013310769172789,0.1217198466168913
8.80584,4.088927883487314,0.12082278312899092
8.810428000000002,4.161846694458896,0.12001409857737716
8.815016,4.229535224907365,0.11938007426169343
8.819624000000001,4.29199347483272,0.1189214250763531
8.824212,4.347011879748601,0.11862883429058518
8.828808000000002,4.407260565187595,0.11819921966305913
8.833384000000002,4.467220739749671,0.11773505956390731
8.837984000000002,4.527669653168329,0.11724459411399123
8.842588,4.589018001034634,0.11675702349269436
8.847176000000001,4.645991361376845,0.11633838566987995
8.851772,4.702021145822781,0.11587995372914082
8.856352000000001,4.754286866315352,0.11543309741825919
8.860948,4.8016447189786176,0.11502287697934313
8.86554,4.844339073240871,0.11463351060125618
8.870136000000002,4.879960136636084,0.11434783427084536
8.874724,4.908097213573199,0.11412641106511742
8.879324,4.932714595985238,0.11388960532286627
8.883912000000002,4.947926938329733,0.11375061536461936
8.888504000000001,4.960929716187868,0.11360950967870201
8.893096,4.972211668416226,0.11342296816705813
8.897688000000002,4.981894979728951,0.11318297084739205
8.902276,4.985115923745365,0.11297636051672354
8.906872,4.98865928045559,0.1126786075027465
8.911460000000002,4.991625615411976,0.11230217857308687
8.916044,4.994303439491442,0.11188404653021099
8.920632000000001,4.987454038789219,0.11156814806186989
8.925232000000001,4.9782728888864884,0.11125698859253703
8.92982,4.961241198383219,0.1110301551591701
8.93442,4.941467063088378,0.11077679161589335
8.939012000000002,4.921648786344909,0.11046217890208701
8.9436,4.8965560876297,0.11020366973114974
8.9482,4.869009454999837,0.10995642536067235
8.952788000000002,4.843872614835998,0.1096332538045995
8.95738,4.818980144100451,0.10928692108900392
8.961972,4.795720216097426,0.1088654759844756
8.966560000000001,4.773726276684485,0.10839872161551498
8.971164000000002,4.753775575595132,0.10788691609939481
8.975752,4.73766698172466,0.10730688995519833
8.980352,4.718493530368809,0.10678811887887538
8.984944000000002,4.700097328746459,0.10626618804786053
8.989532,4.681212388267527,0.1057831050034965
8.994132,4.670422357817426,0.10520159603090257
8.998724,4.660043022958391,0.10464898462602075
9.003316000000002,4.652117622014007,0.10408579059130725
9.007896000000002,4.648689393307863,0.10347240460976417
9.012496000000002,4.6531117052022575,0.10278748507121224
9.017084,4.656023659078276,0.10216005369983652
9.021688,4.666786153554834,0.10146109076196534
9.026276,4.675671735870578,0.1008534359201937
9.030876,4.6864003285302465,0.10028950870764525
9.03546,4.7029362234668675,0.09969551531002792
9.040052,4.727078289575736,0.0990594264817718
9.04464,4.754084985190322,0.09845369247057935
9.049236,4.783056875862977,0.09788179777783665
9.05384,4.813094527146054,0.09735783260834517
9.058432,4.848939480706084,0.09681591852665418
9.063008,4.88266315267701,0.0963868623875663
9.067604,4.919129269439508,0.09599583713395765
9.072192,4.964834100106774,0.09550470935888654
9.07678,5.0144251794415515,0.09502693853353289
9.081368,5.068146876872131,0.09454414621752363
9.085964,5.122034900465485,0.09412598256960145
9.090556,5.183118399640021,0.09365829618279387
9.095136,5.246411463300919,0.09321728641395961
9.099728,5.310892472286382,0.09281958101158089
9.104316,5.3741074926817625,0.09246725313626793
9.108904,5.446805596410203,0.09201872456645316
9.113500000000002,5.520158765158,0.09159497854818209
9.118088,5.599397279448268,0.0911017136019846
9.122676000000002,5.678102913433324,0.09059659401685516
9.127268,5.759096155170258,0.09006097185331938
9.13186,5.836491659116601,0.0895656552333056
9.136452000000002,5.914375901919526,0.08905318018805948
9.141048,5.994547752474332,0.08850576405681106
9.145652000000002,6.077662275800371,0.08793795059830749
9.150232,6.159344484373552,0.08737551310491441
9.154832,6.243680854841049,0.08675230525026417
9.159412,6.329116887735856,0.08607733813664073
9.164012,6.413120605877804,0.08541962414233539
9.1686,6.493360260066389,0.08475482719894611
9.173196,6.5707352847492535,0.08408079616166517
9.177784,6.640748507688164,0.08341320294744074
9.182372,6.701234505845383,0.08279090589742905
9.18696,6.757057005601589,0.08216348151676886
9.19156,6.808582561099219,0.08150975879530498
9.196152,6.85761004123357,0.08081878509182287
9.200744,6.899686415215029,0.08016473810118666
9.205332000000002,6.934767541594967,0.07949305982319246
9.20992,6.96019925847907,0.0788563039497034
9.214508000000002,6.9852202797721095,0.07820051150499478
9.219104000000002,7.002635129892901,0.07755868403758932
9.2237,7.017429719936266,0.07688106377039064
9.228288,7.023596519645589,0.07622228207990463
9.232884000000002,7.021257713735017,0.07557399162014919
9.237472,7.009391683042756,0.0749460272630476
9.242068,6.988897862016453,0.07433101015974591
9.246656000000002,6.962596738713197,0.07371216464438642
9.251236000000002,6.9271790862193185,0.07313124471089463
9.255848,6.879946601191871,0.07259660140394636
9.260436000000002,6.833202855021006,0.07203063827406175
9.265032,6.782983555773695,0.07146545068795278
9.26962,6.735462559869328,0.07088511407958477
9.274208000000002,6.688063748679109,0.07029123317639416
9.278804,6.635923395822355,0.06971900048765056
9.283404,6.577775512708988,0.06919090516058932
9.288008,6.5143973490725084,0.06871082537699465
9.2926,6.448198697378938,0.06823996653662594
9.297196,6.38420961017173,0.06777914558584275
9.301784,6.324839879916905,0.06728923327558278
9.306384,6.263304726624349,0.06681987022808306
9.310964000000002,6.203979137818152,0.06636273276519071
9.315564000000002,6.144042625441228,0.0659328975092463
9.320152,6.090035600055402,0.06549943369409443
9.324748,6.044900734431909,0.06504216623741517
9.329336,6.002874867742425,0.06459719478359677
9.333928,5.9704984105487755,0.06413518214786391
9.338516000000002,5.942130386736782,0.0636857556004566
9.343112,5.919814034630033,0.06323029860472204
9.347704,5.905348223123823,0.06276404793992012
9.352296,5.890149303332738,0.062339989860656614
9.356876,5.879081001637456,0.06192578715549203
9.36146,5.872876426322851,0.061482029513540495
9.366048,5.873989511303574,0.0610183802095429
9.370644000000002,5.886140179084363,0.06052085198442943
9.375236,5.909450614379361,0.05998211983844734
9.379812,5.94457588220793,0.059417403076090954
9.384408,5.985997191170032,0.05884641014543241
9.388996000000002,6.0325707373897295,0.05828719934849596
9.393588,6.086461943904757,0.05772197139611828
9.398184,6.143828703496229,0.05716152597798756
9.402772000000002,6.2028721472688515,0.056608899900426134
9.407384,6.263592275222623,0.056062450922501325
9.411972000000002,6.328032325681132,0.0555149576634367
9.416572000000002,6.388508084206613,0.05500123395538372
9.421168000000002,6.4548691882745635,0.05446026894075374
9.425756,6.519309238733074,0.05393851828284655
9.430352,6.581583866153851,0.05344079638723558
9.434932,6.644757928022275,0.05294882197695654
9.439536,6.706910370728906,0.05246718952633965
9.444120000000002,6.768041194273743,0.05199433183360036
9.448720000000002,6.824186106723759,0.051552349658582734
9.453308,6.873179685041221,0.05116608130763026
9.457900000000002,6.912201441169037,0.050840405269831336
9.462492,6.942761733125587,0.05054356605956811
9.467088,6.964616191482576,0.05028538044075843
9.47168,6.978253555096591,0.050040544295978935
9.476276000000002,6.982163465949252,0.04983755234802352
9.480864,6.976057413163642,0.0496449889619292
9.48546,6.955360181236003,0.049514387410503166
9.490056,6.933885699574862,0.049377403385802765
9.494652000000002,6.90766967624719,0.049253603280992625
9.49924,6.879654784024221,0.04912906839480045
9.503824000000002,6.838436885963455,0.0490381495408282
9.508412,6.792477446236158,0.04895979753286693
9.513008,6.736912738461655,0.048912963530483876
9.517596,6.673663816249386,0.04889205333817191
9.522176000000002,6.609882013731905,0.04884977132435368
9.526768,6.537394377614867,0.04884060196939825
9.531348,6.462574992297322,0.04880814511691667
9.53594,6.38121519641795,0.04878931082682551
9.540532,6.299200335519222,0.04875688009857359
9.54512,6.215264421011052,0.04873210678133933
9.549712,6.129651822321732,0.048703166904555874
9.554304000000002,6.042895419756473,0.04868633239057039
9.558892,5.955239582743567,0.0486695316781389
9.563488,5.860798965740543,0.048682848269401384
9.568076,5.770567010098838,0.04865768083830457
9.572668,5.6800906850288415,0.04864737922098384
9.577248,5.595621890215462,0.04859916388257217
9.581848,5.503591065678461,0.048571015357730514
9.586436,5.413603479465048,0.048524252825086475
9.591036,5.319651601318606,0.048499698245093946
9.59562,5.230196895410403,0.04847717687104394
9.60022,5.138943320606905,0.04845455257961368
9.6048,5.050388049146351,0.04843143735293685
9.609396,4.960933343238149,0.048411195754149025
9.613984000000002,4.868413779844565,0.048412759238528856
9.61858,4.7810023122599485,0.04836776639330034
9.623184000000002,4.691181052209309,0.04836258324171381
9.627784000000002,4.605079714663408,0.04834965275359358
9.632376,4.514236835450975,0.04835590137196897
9.636968,4.42261670650504,0.048354721249729796
9.641548,4.336759738387428,0.048321423599365344
9.64614,4.251802204717466,0.048287656164355874
9.650728,4.164923617438061,0.04826570300335203
9.655324,4.0847076254346275,0.04821316960315372
9.659916,4.001426775945814,0.048185905398578976
9.664504,3.9239090872853253,0.04812345042356031
9.6691,3.842427106691808,0.04809075098093436
9.673684000000002,3.76262181027944,0.04807092878762005
9.67828,3.6788522219340445,0.048083399578125824
9.682864000000002,3.599824175255179,0.04807223264855248
9.687452,3.5229615516140464,0.0480222428192125
9.69206,3.4504739154970077,0.04798610988835654
9.696648,3.3732447377134385,0.047979861694572565
9.701256,3.3007571015963997,0.047947220354293135
9.705844,3.2262262271557733,0.04794691918473399
9.710432,3.147731060782119,0.0479791880060534
9.715036,3.069235894408465,0.04801997239634397
9.719624,2.9908629127489568,0.048043486489752936
9.72422,2.9209513952607153,0.04801800815264574
9.7288,2.851817127505977,0.04801103963925793
9.733396,2.778063502798853,0.048007984914078435
9.737984,2.69981270585349,0.04800444587875035
9.742584,2.6255262008411555,0.047943422559497406
9.747176,2.5486635772000223,0.04784531655425154
9.751776,2.468858280787655,0.04778935533921435
9.756368000000002,2.3798142704705176,0.04775178069058891
9.760964,2.2915475098868825,0.04775891744963629
9.765544000000002,2.2005824459603036,0.04778609338894586
9.770136,2.108840132300223,0.047801691165085494
9.774728,2.010557408078316,0.04788028691117203
9.779320000000002,1.9066337077422304,0.04551564257014287
9.783908,1.800378258205638,0.04313668299147354
9.788496000000002,1.6983314700303656,0.04072763388624362
9.793084,1.592564759350356,0.03833425757160647
9.797672000000002,1.491661775051023,0.035907936088238175
9.802264,1.3905144213233984,0.033480393582608986
9.806856,1.2866687642528305,0.031033659572024253
9.811452,1.1836003569157647,0.028604065766156275
9.816028,1.0756682231980226,0.026211685776798055
9.820624000000002,0.9706787622515151,0.023800223149669203
9.825212,0.86814323521966,0.021408485172776992
9.829792,0.7725500358063929,0.019017297585285326
9.834388,0.679410770307778,0.016671259312744872
9.838976000000002,0.590524307619111,0.01437484984173034
9.843564,0.5090776899399179,0.012036422044334787
9.84816,0.43662541673720345,0.009705519986975322
9.852748000000002,0.3689146852010197,0.007317570046740244
9.857344,0.3085216139601644,0.0048963097682849475
9.861928,0.2544245838528441,0.0024724645636985034
9.866524000000002,0.20764521404085226,0.0
9.871112,0.1680613198100432,0.0
9.875716,0.1327302283891821,0.0
9.880304,0.10063032061647538,0.0
9.884896,0.07392701952965575,0.0
9.889488,0.048900402623986164,0.0
9.894076000000002,0.02951476183249501,0.0
9.898652000000002,0.01744678133633235,0.0
9.903248,0.008077104183113241,0.0
9.907852000000002,0.0033267839822790648,0.0
9.912448,0.0002531479625949195,0.0
9.917024,0.0,0.0
9.921612,0.0,0.0
9.9262,0.0,0.0
9.9308,0.0,0.0
9.935388,0.0,0.0
9.939988,0.0,0.0
9.944580000000002,0.0,0.0
9.949168,0.0,0.0
9.95376,0.0,0.0
9.958336,0.0,0.0
9.962916,0.0,0.0
9.967512,0.0,0.0
9.9721,0.0,0.0
9.9767,0.0,0.0
9.981292,0.0,0.0
9.985884000000002,0.0,0.0
9.990476,0.0,0.0
9.995068,0.0,0.0
9.999660000000002,0.0,0.0
10.004244,0.0,0.0
10.008844,0.0,0.0
10.013424,0.0,0.0
10.018028,0.0,0.0
10.02262,0.0,0.0
10.027216,0.0,0.0
10.0318,0.0,0.0
10.036396,0.0,0.0
10.040984000000002,0.0,0.0
