Time,Force,Position
4.725164,0.39965029426189064,0.0
4.729752,0.3716897831192897,0.0
4.73434,0.33555631868234054,0.0
4.738936,0.3030205920359828,0.0
4.743515999999999,0.27972357929439495,0.0
4.748116,0.2592470546098964,0.0
4.752707999999999,0.24375644102021976,0.0
4.757291999999999,0.23198574993528018,0.0
4.761895999999999,0.22225829717392764,0.0
4.766476,0.21547351718381,0.0
4.771071999999999,0.20268120693707686,0.0
4.775659999999999,0.19324226505264383,0.0
4.780259999999999,0.18686818065359131,0.0
4.784835999999999,0.18691232210221947,0.0
4.789419999999999,0.18912188658858037,0.0
4.794004,0.1865899094084106,0.0
4.7986,0.18507955139003437,0.0
4.803195999999999,0.18855510446648016,0.0
4.807792,0.19779381837124996,0.0
4.812371999999999,0.20331260977128277,0.0
4.816968,0.21111900892319393,0.0
4.821556,0.21880322336095945,0.0
4.82614,0.23351658721713392,0.0
4.83072,0.2482299510733084,0.0
4.835316,0.2597121312813285,0.0
4.839908,0.27184937650870505,0.0
4.844496,0.27977796037476194,0.0
4.849087999999999,0.2868071097931709,0.0
4.853675999999999,0.2986999855922562,0.0
4.858251999999999,0.31161448055313484,0.0
4.862856,0.3332348091135727,0.0
4.867444,0.3531784534928605,0.0
4.872051999999999,0.3709566748344155,0.0
4.876639999999999,0.38195011618585295,0.0
4.881227999999999,0.39204412308964254,0.0
4.88582,0.40598023721231485,0.0
4.890415999999999,0.4227368393920764,0.0
4.89502,0.43487408461945304,0.0
4.899612,0.44214760346615334,0.0
4.904203999999999,0.45722752146476486,0.0
4.908784,0.46629990920676095,0.0
4.913384,0.4756166663770483,0.0
4.91796,0.48571067328083783,0.0
4.922555999999999,0.4940058112893317,0.0
4.927148,0.5007905912794494,0.0
4.931743999999999,0.49821447265065155,0.0
4.936319999999999,0.4997689721176558,0.0
4.940912,0.5079521650437427,0.0
4.945512,0.5177000970685729,0.0
4.950107999999999,0.5374742323634139,0.004534983202914278
4.954691999999999,0.5591796608994349,0.00962920642952618
4.959288,0.5896011626667538,0.01497860862677998
4.963864,0.6282058573601595,0.02044522662235239
4.968464,0.677692048322596,0.02611171588502782
4.973052,0.7334845200503061,0.03207134802649635
4.977652,0.7948060228097877,0.03820982317881278
4.982243999999999,0.8584695144015148,0.0446204299364755
4.986828,0.9343246323009853,0.05099176048878021
4.991423999999999,1.0199174425935473,0.057404227680417655
4.996012,1.103477254194261,0.06410522705671293
5.000604,1.2002503112645115,0.07080174411031898
5.005192,1.3070495716047732,0.07748502409109842
5.00978,1.4163130054914255,0.08435338871630102
5.014376,1.5345810234862953,0.09128907815059736
5.018964,1.6627089185884023,0.09819913867940747
5.023552,1.8108348391501634,0.1049503732715537
5.028147999999999,1.9630133345422096,0.1117404739433155
5.032747999999999,2.113637330467251,0.11854515031740363
5.03734,2.2591429909515863,0.12538656192196806
5.041928,2.393356459575826,0.12774520023109834
5.046523999999999,2.5252720808164493,0.12946984559745803
5.051104,2.6509255627404267,0.1309246033007069
5.055704,2.7668854937199403,0.13237132063762352
5.060287999999999,2.8800588384592545,0.13355132168668352
5.064887999999999,2.9855377291290637,0.13450298897565802
5.069472,3.08217836185343,0.1353560650234013
5.074063999999999,3.172268344384231,0.13598075701455592
5.078648,3.249677961750706,0.1367503232514434
5.083244,3.322257754553394,0.13745851062762493
5.087832,3.395238003315409,0.13782988233446744
5.092432,3.463099916636717,0.1381232447506879
5.09702,3.5204468878314312,0.13847178707480085
5.101612,3.5723870127085195,0.1386492617200373
5.1062,3.6191646606962733,0.13866670093824712
5.110788,3.6596801693673817,0.1386739427597152
5.115372,3.68763749758831,0.13883276665729424
5.119951999999999,3.710354305654386,0.1389321048465948
5.124536,3.7270974852807357,0.1390582968329696
5.129112,3.7466170115155464,0.13903261991995716
5.1337,3.7675247110545875,0.13892819542750445
5.138312,3.784301792497827,0.13889189905085553
5.1429,3.7986249400264143,0.13889034031712966
5.147484,3.8136811958398753,0.13879981897237723
5.152079999999999,3.824729018271679,0.13876271160401227
5.156667999999999,3.843294728978475,0.1384521026846683
5.161267999999999,3.861816298236643,0.1380599440411778
5.16586,3.8814375299221218,0.1375464832642426
5.170464,3.9028134890542683,0.13690712595438015
5.175043999999999,3.9179714503183973,0.1363232733853371
5.17964,3.9292431629150153,0.13578022286410846
5.184228,3.9330308890535313,0.13535609572432278
5.188823999999999,3.9358750392957713,0.13487490704843702
5.193412,3.940107362842242,0.13432022302438765
5.198011999999999,3.9367776566650923,0.1339691560587044
5.202604,3.92931733239214,0.1336803187583859
5.207195999999999,3.920180323938039,0.1334190968572839
5.211783999999999,3.9120649346457306,0.13312412579263636
5.21638,3.905870598962864,0.13277392303150604
5.220975999999999,3.8984102746899123,0.13248575441440522
5.225575999999999,3.8884179732367907,0.1323186832895935
5.230168,3.8824341051653257,0.13210621683791432
5.234751999999999,3.88262409351325,0.13177269113902043
5.239339999999999,3.8861674502234744,0.1313898705052489
5.243923999999999,3.891143121686558,0.13101005671926946
5.248511999999999,3.888112166018067,0.1309479357378477
5.253108,3.8915435776458844,0.13081593542904318
5.257699999999999,3.8942860224374556,0.13083229841466398
5.262287999999999,3.9045124536871296,0.13075261519740392
5.26688,3.9218563172524687,0.13061365083302853
5.271456,3.944108048647113,0.13042375036873688
5.276036,3.975642635395155,0.13011023794237267
5.280632,4.011474166401772,0.1298072749409277
5.285215999999999,4.049925957485815,0.12954446012891194
5.289812,4.097660603923258,0.12914837928400913
5.294403999999999,4.149814379333421,0.12874345340803633
5.298991999999999,4.206753837858743,0.1283001064470871
5.303596,4.264759056994487,0.12790746160177052
5.308188,4.329471012854831,0.1274509433311166
5.312779999999999,4.395248729325598,0.1270449455124541
5.317367999999999,4.471286778862927,0.1264400744253664
5.321964,4.5470804589719656,0.12587646981722517
5.326543999999999,4.618909847147974,0.12542745426709814
5.331148,4.69253810421928,0.12496646383062797
5.335731999999999,4.765022557414645,0.12454112856013728
5.340324,4.841837856685477,0.12398073635321863
5.344903999999999,4.916199222041656,0.12346594658981597
5.3495,4.994114183739798,0.12283505748642365
5.3541,5.064833669856758,0.12233839432388782
5.358695999999999,5.132688526468,0.12184562924391575
5.363283999999999,5.198211633878736,0.12138030347753433
5.36788,5.253840962365345,0.12106453770720235
5.372467999999999,5.309426149403326,0.12070196380481142
5.377052,5.360714392182731,0.12033425490324832
5.38164,5.409871113741294,0.11991440492225013
5.386231999999999,5.455996879631364,0.11944381359666996
5.390823999999999,5.497947885977005,0.1189580217684538
5.395404,5.536745751940008,0.11843384042187255
5.4,5.564584078368462,0.11801315428603602
5.404588,5.585549341909543,0.11760361499513423
5.409192,5.596576685077871,0.1172764381854559
5.413776,5.599709346197028,0.11697953952809166
5.418364,5.5989116172000495,0.1166389818570367
5.422959999999999,5.594061313372785,0.11626681860011355
5.427547999999999,5.590022161095911,0.1157772186398914
5.432135999999999,5.582585499008109,0.1152608807165612
5.436732,5.568930839052292,0.11475692565013458
5.441316,5.5484031162091,0.11425646262592996
5.44592,5.528686544916299,0.11363587722540998
5.450508,5.507249147993719,0.11297117902309257
5.455111999999999,5.477672699593681,0.11234107616388249
5.459699999999999,5.450339717496894,0.11159229680373224
5.464296,5.416666552817942,0.11085750783886063
5.468875999999999,5.381805442814423,0.11008915498437029
5.473472,5.33987104194387,0.10938539654128553
5.478056,5.296504326320456,0.10866482679173466
5.482644,5.248640438458802,0.10798649749380689
5.487239999999999,5.1952577591971165,0.10736986097359962
5.491832,5.141464384344364,0.10671614591725345
5.49642,5.088570443939261,0.10604251781518284
5.501015999999999,5.03477706908651,0.10536830011607454
5.505603999999999,4.983804182290847,0.10464080976157339
5.510196,4.933119806372105,0.1039422431064128
5.514784,4.88027000741563,0.10328159911755051
5.519379999999999,4.822067743221897,0.10273323963803853
5.523967999999999,4.7634989248857265,0.10220238259470309
5.528548,4.710082343807151,0.10161719430409802
5.53314,4.660307641967794,0.1010399232975876
5.537719999999999,4.608167289111043,0.10058569548138158
5.542312,4.560035369635948,0.10010868675400257
5.5469,4.521064120800104,0.09957657483702084
5.551488,4.48549038177519,0.09908169514354692
5.556095999999999,4.452414718113555,0.09863369525129194
5.560683999999999,4.419916076205759,0.09826427815818321
5.565292,4.395556485775423,0.0978667494198738
5.569883999999999,4.377537077927251,0.09746286639842847
5.574476,4.366346591517823,0.09701141275031375
5.579071999999999,4.363661710728291,0.09650426084620317
5.583659999999999,4.370015315863866,0.09596693572914
5.588252,4.3839750921716885,0.09539124961094277
5.592831999999999,4.4032534318998815,0.09483445943158259
5.597435999999999,4.426051466153147,0.09431547312800002
5.602023999999999,4.452980118502216,0.09378246580934743
5.60662,4.48420571510986,0.09329028544321044
5.611208,4.522015863727959,0.09277458645933102
5.615808,4.56256845713763,0.09229815627611793
5.620396,4.60598568005302,0.09186219431836974
5.624987999999999,4.657253443568947,0.0913888466550163
5.629563999999999,4.712774009894823,0.0908923751159895
5.634159999999999,4.765518229612237,0.09050258888725674
5.638756,4.820716383244303,0.0901250599571328
5.643351999999999,4.877713405771665,0.08974129763937135
5.647935999999999,4.941128654146708,0.0893030418256536
5.652532,5.011983747531223,0.08879526080713453
5.657115999999999,5.082961025629888,0.08829507877932016
5.661715999999999,5.1480529581860806,0.087880730151826
5.666303999999999,5.214821574923423,0.08747480914853413
5.670887999999999,5.2841663102895655,0.08707270520742191
5.675472,5.3573531528745875,0.08665080380679413
5.68006,5.4286189418501705,0.08626387504300109
5.684644,5.501272904129984,0.08584670208605681
5.689227999999999,5.578257712485261,0.08536900892878384
5.693812,5.657407943878272,0.08486766006337436
5.698424,5.736391849108508,0.08433065121047763
5.703012,5.81610886262362,0.08375690939060057
5.707612,5.897336234157109,0.08314662512558696
5.712208,5.971856868965996,0.08255456890936594
5.716796,6.033663236793669,0.0820536523835562
5.7214,6.0933822248491225,0.08153412286705936
5.725988,6.153834321189454,0.08097014035826557
5.730591999999999,6.208479115252833,0.08042150360461402
5.735172,6.258338226201051,0.07987104154101765
5.739771999999999,6.302145665444026,0.07934846646079134
5.744352,6.33708094492467,0.07887209462955276
5.748948,6.3678856063095095,0.07840182776163251
5.75354,6.400689364569311,0.07786013770033606
5.75814,6.4301397544668095,0.07732770247785667
5.762731999999999,6.4503072890109125,0.07680996068751528
5.767324,6.45632824182094,0.07634961586980285
5.771912,6.454620838744574,0.07590372488742848
5.776507999999999,6.4489050022865495,0.07545160285461115
5.781092,6.434072636637903,0.0750479649418009
5.785688,6.4148652834651605,0.07465726150644865
5.790268,6.3911607580541805,0.0742842692302688
5.794852,6.364880114014403,0.07391454794701509
5.79944,6.333080678574592,0.07357250453412796
5.804032,6.303979546477725,0.07321704414466432
5.808623999999999,6.282684813532769,0.07279548454141459
5.813216,6.259713396406664,0.07237166192749342
5.817811999999999,6.233388610918257,0.07194481046111516
5.822392,6.205020587106266,0.07153589401076599
5.826984,6.177185443599484,0.07114217354310429
5.831572,6.150494103968642,0.07072845338949144
5.836159999999999,6.124946568213738,0.07029337419680594
5.840751999999999,6.10426275883951,0.06982055485932552
5.845344,6.0824351455893435,0.06936297450074692
5.849932,6.058808663443879,0.06890920995056615
5.854515999999999,6.040334418556013,0.06844873126612307
5.859108,6.0279118453733895,0.06797753412793803
5.863703999999999,6.025871789971475,0.06744545194593896
5.868291999999999,6.020522507655888,0.06695459902296394
5.872891999999999,6.019670397578542,0.06644814367440094
5.877475999999999,6.023315459739436,0.06593144188912102
5.882075999999999,6.029781009957417,0.06539844096070856
5.886663999999999,6.033958952423521,0.06489886347557523
5.89126,6.046842728489184,0.06434520680035297
5.895851999999999,6.062546992611935,0.06378177459066843
5.900448,6.075430768677597,0.06323733105770458
5.905031999999999,6.095632205038588,0.06267452351090866
5.909627999999999,6.121763128390677,0.06212142581259886
5.914215999999999,6.155333896752239,0.061542543514741886
5.918807999999999,6.193646206780333,0.060945782835332134
5.923391999999999,6.234290266008932,0.06037056162614593
5.927988,6.281108181656922,0.05979617492084197
5.932572,6.32461687039124,0.05927059600814415
5.937172,6.374421600259093,0.05874250110744986
5.941752,6.431910544564712,0.05818536640540648
5.946328,6.494141030536861,0.05761963932769878
5.950924,6.563156296499127,0.057030526128512685
5.955507999999999,6.631805008318956,0.05647796065529968
5.9601,6.708792999595907,0.05590586901679672
5.964688,6.789623098091741,0.055328457263734754
5.969276,6.866733274082838,0.05477080856291753
5.973868,6.94731900315038,0.0542243384050892
5.978459999999999,7.0326462738844535,0.05366481896710012
5.983052,7.11004496075247,0.05315911541860204
5.987644,7.183601540401603,0.052674763998663124
5.992244,7.255114881727149,0.05220699918248948
5.996847999999999,7.320865062224371,0.05177000482901392
6.001423999999999,7.3830175049310025,0.051340333621464035
6.006028,7.437607917914013,0.05093698004244315
6.010608,7.488478408392288,0.0505471882596421
6.015208,7.532031238575234,0.0501672549815851
6.019783999999999,7.568266408462851,0.04979941662451733
6.024375999999999,7.597061733340993,0.049444189663951574
6.028968,7.613675671543133,0.049117521416968006
6.033563999999999,7.6213394067174205,0.04883668653680541
6.038139999999999,7.618742808825146,0.04857662065207604
6.042735999999999,7.60102215148563,0.04835331181760104
6.047332,7.5681774346988755,0.04816530868748121
6.051923999999999,7.523395700664409,0.04798858687953998
6.056503999999999,7.466310395239789,0.04783969288941209
6.061087999999999,7.401663060091552,0.04770607770848516
6.065675999999999,7.325078707695599,0.047581440076248704
6.070268,7.237456772499582,0.047464905959250556
6.074851999999999,7.143294426741738,0.0473587144406152
6.079439999999999,7.042591670422068,0.047261637244795235
6.084032,6.935104134112279,0.04718822573411316
6.088608,6.815557395840632,0.04713115275588664
6.093187999999999,6.68779356282601,0.047075448504994594
6.097784,6.555410372859002,0.04702360552515569
6.102367999999999,6.414565718720725,0.04698614958429853
6.106955999999999,6.272943814848948,0.04693575285924927
6.111551999999999,6.127601988472433,0.04688559474561884
6.116139999999999,5.981360727648271,0.04683328918009697
6.120743999999999,5.835241651538254,0.04676963370766345
6.125336,5.682582164866411,0.046721565231888744
6.12994,5.522893528776159,0.04672245090174855
6.134524,5.361938904095822,0.04675491641019348
6.139124,5.209445743586752,0.046765461944015915
6.143703999999999,5.05952870170648,0.046782382366975225
6.148303999999999,4.9094894751120615,0.04681084765418392
6.152891999999999,4.762148551860587,0.046839876173933856
6.157476,4.61713937780962,0.046901171965712446
6.162055999999999,4.476627375996892,0.046958168584442884
6.166648,4.339957481403047,0.04699656475093776
6.171247999999999,4.205985890152146,0.04703581830884857
6.175847999999999,4.079820698053155,0.0470213337139562
6.180435999999999,3.9627720351447886,0.047000139479883504
6.185031999999999,3.8482994908652204,0.046985900819711345
6.189612,3.7393457379856856,0.046957955547503955
6.194195999999999,3.6348891573443884,0.04692971866728023
6.198776,3.529821653132364,0.04696284083912279
6.203371999999999,3.427330267549137,0.04700572852994402
6.207959999999999,3.3284366197565016,0.04705013784492228
6.212547999999999,3.233795774773814,0.04712242826185557
6.21714,3.1458175250670983,0.04716186650034099
6.221728,3.070265031464679,0.047131343142785685
6.226323999999999,3.0045621753377576,0.04700392809719112
6.23092,2.936816080887249,0.046900446504781784
6.235508,2.868825617008449,0.046828080663762046
6.240116,2.8045550756343864,0.046741928932364334
6.244704,2.741061783993826,0.0466717875558407
6.249308,2.680511165124501,0.0465750537296118
6.253899999999999,2.620615611274532,0.04650860030653394
6.258492,2.565339414376948,0.046415587068300665
6.263096,2.5109626519270116,0.0463190878993331
6.267684,2.4535210319916945,0.04625882090741591
6.272279999999999,2.396201596770523,0.04617413934915818
6.276868,2.3385156074069147,0.04615285579423869
6.281467999999999,2.2760880763767766,0.04616522001693734
6.286048,2.2136605453466376,0.046176445425114815
6.290648,2.1544200565160248,0.04611493203135768
6.295236,2.0931363293618253,0.046105573574517014
6.299836,2.034018025245358,0.04600542857876454
6.304427999999999,1.9723236025000936,0.045879216544301
6.309024,1.9085859414312423,0.04579341296694982
6.313615999999999,1.8384300545147099,0.045689524074964676
6.318212,1.7670081790080925,0.04561062349436917
6.322815999999999,1.6949312384821187,0.04545675214927984
6.327412,1.6241202865462299,0.045205277324640615
6.332,1.5561298226674303,0.04490476659105138
6.336591999999999,1.4910820315598654,0.0445346241918674
6.341183999999999,1.4261564251664463,0.04408844706128314
6.345767999999999,1.363274057096614,0.04356360929947081
6.350355999999999,1.2955279626461058,0.04128155361858573
6.354955999999999,1.23162397541448,0.039003679491188374
6.359543999999999,1.166698369021061,0.03673029690683487
6.364135999999999,1.1016505779134964,0.034482491364300365
6.368723999999999,1.0435097515101948,0.03217374131531646
6.373307999999999,0.9917871509545737,0.02984660380062241
6.377904,0.940841800132455,0.02752275344503564
6.382483999999999,0.891695318205632,0.025228939058755465
6.387064,0.8474125626594853,0.022884163458008436
6.391656,0.8014972643808168,0.02063143513125533
6.396244,0.7603235077686786,0.018388899338855715
6.40082,0.7228696736612781,0.01612350865823885
6.405428,0.6895464576496791,0.013909299436054042
6.41002,0.6531583841527001,0.011736593924552648
6.414611999999999,0.6202458637321666,0.009626157115109122
6.419192,0.5918305155498724,0.007582968597444019
6.423792,0.5613719290439911,0.00559213209600402
6.428375999999999,0.5297695386621708,0.0036554770468596614
6.43298,0.5035637549662374,0.0017971867538756423
6.437572,0.4781352210038062,0.0
6.442156,0.45630442483196637,0.0
6.446739999999999,0.43218602090824826,0.0
6.451332,0.4135864083845628,0.0
6.45592,0.39756291448967523,0.0
6.460511999999999,0.3803956167188486,0.0
6.465091999999999,0.3604078308909327,0.0
6.469684,0.3423410986724581,0.0
6.474268,0.32672830036863576,0.0
6.478856,0.3109933173506678,0.0
6.483448,0.29448108459919764,0.0
6.488024,0.2765806785434969,0.0
6.492608,0.2625223797066789,0.0
6.497196,0.24666521197456528,0.0
6.501788,0.23644902035663004,0.0
6.506376,0.22508902486275564,0.0
6.510963999999999,0.21552789826417687,0.0
6.51556,0.21148556306563096,0.0
6.520148,0.20654379341943715,0.0
6.524736,0.1950616132114171,0.0
6.52934,0.1807589449463078,0.0
6.533936,0.17029838390008117,0.0
6.53854,0.16200324589158738,0.0
6.543131999999999,0.15280867343544563,0.0
6.547724,0.14193741679815391,0.0
6.552304,0.12992235628492294,0.0
6.5569,0.12174940299057474,0.0
6.561488,0.12036122968634422,0.0
6.566092,0.11549750330566798,0.0
6.570683999999999,0.11525313387737662,0.0
6.57528,0.12359241333449862,0.0
6.579859999999999,0.13307549666755983,0.0
6.584452,0.1385942880675926,0.0
6.589044,0.14885462113415598,0.0
6.59364,0.1543734125341888,0.0
6.598235999999999,0.16295706141960212,0.0
6.602832,0.16487811502904345,0.0
