Time,Force,Position
6.84436,1.445377675148077,0.037639093492331265
6.848948,1.3465620706209587,0.035313359750389475
6.853536,1.2522436383320799,0.032974794279694124
6.858124,1.154738163843675,0.03069171347068135
6.862704000000001,1.0598088079840682,0.028415366561862797
6.8673,0.971542047400433,0.02610661019346071
6.871884,0.8869952093215349,0.023781150877431267
6.876472,0.8106654659856133,0.021438634931095078
6.881048,0.7397323293355786,0.019100515662742533
6.885643999999999,0.6753396032473704,0.016739564267111366
6.890236,0.6064497049209229,0.014378612871480203
6.894812,0.539358675489771,0.011959767221076393
6.899424,0.47573555693802716,0.009572456245770737
6.904007999999999,0.41943009868161185,0.007149499740474777
6.908608000000001,0.3666001935016423,0.004764587062078245
6.9132,0.31916689500755985,0.0023812828226203488
6.917788,0.2771302031993645,0.0
6.922383999999999,0.23922412948697147,0.0
6.926976,0.20311692466987408,0.0
6.93158,0.1694636537674289,0.0
6.936156,0.13940812065557506,0.0
6.940756,0.11384975978196052,0.0
6.945344,0.09201132141308307,0.0
6.949944,0.07479223999659056,0.0
6.954528,0.061293081084835124,0.0
6.95912,0.04947824855126738,0.0
6.963699999999999,0.04228277297008457,0.0
6.968292,0.03418786294125391,0.0
6.972892,0.02801400652186462,0.0
6.977492,0.02363901899777103,0.0
6.98208,0.021595780674183985,0.0
6.986675999999999,0.02429408401712754,0.0
6.991263999999999,0.02651129070052608,0.0
6.995851999999999,0.03134875746135066,0.0
7.0004360000000005,0.03644083328220536,0.0
7.005027999999999,0.047717005154188134,0.0
7.0096240000000005,0.07081824919147743,0.0
7.014212000000001,0.09908197011810127,0.0
7.018808,0.13557302541944025,0.0
7.023396,0.18078015395207703,0.00867887773701642
7.027988000000001,0.23355955184007243,0.017210222807477853
7.032576000000001,0.29432191467449154,0.025728133996389044
7.037164000000001,0.3609018194176018,0.0345287087181436
7.04176,0.43444306994534226,0.04340634679035436
7.046348,0.5190321429048871,0.05193269257770185
7.0509520000000006,0.6026021941373395,0.06103698820854359
7.055548,0.6890029730586198,0.07018528789035847
7.0601400000000005,0.7808105982975261,0.07949867352617804
7.0647400000000005,0.875981831530471,0.08899198759062202
7.069331999999999,0.9754161072051029,0.09852585114060149
7.073924,1.0883079977775632,0.10769151068406986
7.078512,1.2097937768671756,0.11669346108548392
7.083112,1.34240542165411,0.12546689977636818
7.0876920000000005,1.479147684536846,0.13409900198866578
7.092288,1.623485878960092,0.14243165383395803
7.0968800000000005,1.7647048348175904,0.15060387783684967
7.1014800000000005,1.8915225998809841,0.1588613441387466
7.106064,2.012767192463978,0.16707890808004983
7.110659999999999,2.1238633970628156,0.17538638911388063
7.115252,2.229064016487445,0.17489028075509466
7.1198440000000005,2.328491235452011,0.1744733496056322
7.1244320000000005,2.419935489470153,0.17406985233771996
7.129023999999999,2.5047849518461023,0.17339920586574584
7.133611999999999,2.585737925922802,0.1724971657086372
7.1382080000000006,2.655765262281842,0.17192847466321273
7.142788,2.7313011504091773,0.17059436400299974
7.147384000000001,2.8028625069717443,0.16917349606179138
7.151972000000001,2.8735141894549256,0.16747156166264168
7.156556,2.9454216208964525,0.16539319018974885
7.161148000000001,3.0100011524109123,0.1633327143257646
7.165736000000001,3.0603458192940414,0.1617550299384756
7.170332,3.1047949010029616,0.1602584707943962
7.17492,3.145025081718824,0.1588174887116922
7.179508,3.181080502890256,0.15745807959499167
7.184104,3.2082637642993537,0.15643816277868522
7.188692,3.2353248409943065,0.15547483307483853
7.193284,3.263818232442118,0.15448055886022186
7.197876000000001,3.29734167643338,0.1533919909027497
7.202464000000001,3.329843501262848,0.15231403700639998
7.20706,3.3582588494451424,0.151430104320712
7.211656,3.387573632075085,0.15054169209401358
7.216248,3.4179100338668205,0.14961479991616758
7.220836,3.4489015006779122,0.1486870738497576
7.225436,3.4747848716800367,0.14799129232925667
7.230016000000001,3.5012011229873723,0.14731891521117077
7.234616000000001,3.522753647914031,0.14685424874159103
7.239204000000001,3.5432845536788977,0.14643766873151623
7.243804000000001,3.563815459443763,0.14604196895513535
7.248388,3.579238269399661,0.14586269770882246
7.252980000000001,3.597481567412648,0.14559298321172434
7.257568000000001,3.623042525720964,0.14511030836736208
7.262164,3.6452942571156077,0.14477977121793212
7.266756000000001,3.662682262129575,0.14462766330981344
7.271348,3.6781492135341014,0.14454077622755424
7.275936,3.6973360874433645,0.14434788146625044
7.280528,3.711947745848871,0.1443631934825061
7.285116,3.730034957330823,0.1442989036702705
7.289707999999999,3.743136257717953,0.14440979349637867
7.2943,3.76919619451459,0.14417480259030116
7.298892,3.796810630778232,0.143914771466284
7.303483999999999,3.821360209556493,0.14376629763890486
7.308064,3.84824153753526,0.14360137805963763
7.312656,3.88064165691406,0.14330562785956844
7.317244,3.916639514083452,0.14291922650829766
7.321828,3.9526373712528433,0.14253308560638314
7.326428,3.9881023481170237,0.1421267038272567
7.331016,4.023689509695351,0.14170853931904762
7.335616,4.058499421540175,0.141318542628685
7.340208,4.094453137260938,0.1408846533707502
7.344796,4.133593895181229,0.14036085943388843
7.349392,4.169136915310927,0.13993002334706067
7.353972000000001,4.206967543192504,0.13940752945826052
7.358568,4.2427549327504925,0.13894209110300867
7.363148000000001,4.276621268699041,0.1385229323646685
7.367748000000001,4.307300562448063,0.13821612929087476
7.372332,4.341411267824903,0.1377701772972476
7.376936000000001,4.377032331220119,0.13725901068288102
7.38152,4.414696632938922,0.13668505604738462
7.386112000000001,4.439402298248217,0.13642897243441635
7.390708,4.468805363775415,0.13600138254417804
7.395291999999999,4.499718787320989,0.1354970772574668
7.399896,4.526623777484907,0.13504155571203008
7.404488000000001,4.54837653039123,0.13468018520139702
7.409076000000001,4.568696968544693,0.1343208690921029
7.41366,4.586685657497649,0.1339764263487968
7.418252000000001,4.604918715878898,0.13360987481746928
7.422840000000001,4.623762697830874,0.13319015005479684
7.427428000000001,4.636188453935172,0.132900248182258
7.43202,4.646526830267253,0.1326056364847848
7.436612,4.648525927142212,0.1324860984970638
7.4412,4.64831545953081,0.13237057680193162
7.445796,4.650104088794366,0.1321387286008355
7.450384,4.652215130751732,0.131808420191644
7.454976,4.656203084869912,0.13137052202233784
7.45956,4.661412886129547,0.13081959934125603
7.464148,4.66363587316932,0.1302779690707465
7.46876,4.657886134894408,0.1298691452772073
7.473352,4.650293386275571,0.12942946427575672
7.477956000000001,4.645232614836905,0.1288871461111451
7.482544000000001,4.630933129493468,0.128526061055174
7.48714,4.611237037464145,0.12825907890968907
7.491744000000001,4.591785314863112,0.12796703636087264
7.496335999999999,4.56873585447149,0.12773826103743968
7.500932000000001,4.54503132906051,0.12750078955991398
7.505520000000001,4.523370041973116,0.12720659832557887
7.510116,4.503751993209311,0.12685473101277164
7.514704000000002,4.480946902245979,0.1265942976584723
7.519300000000001,4.461328853482173,0.12623908804347142
7.523883999999999,4.441344250575931,0.12591654056264384
7.528476000000001,4.425079570174424,0.12551681617408827
7.533055999999998,4.411513193115862,0.12506693816011577
7.53764,4.389651678048806,0.12484726277761163
7.5422280000000015,4.3699997274681115,0.1246229913501314
7.54682,4.349859038030833,0.12444246496817182
7.551400000000001,4.327963621146887,0.12435680641945922
7.555983999999999,4.309055018482804,0.12426452451191082
7.560572,4.2968531525433225,0.12409467716065667
7.565156000000002,4.2853504930718245,0.12399752777517813
7.569744,4.27515796363904,0.12391493328046825
7.574324000000001,4.270772736483207,0.12377102855130437
7.578907999999998,4.277058537985003,0.12345522944018933
7.583496,4.285431719259015,0.12315319129549487
7.5880839999999985,4.3016554411335655,0.12273992724504454
7.592691999999999,4.323275769694003,0.12224693815048664
7.597280000000001,4.349148901064389,0.12171558532303856
7.601872,4.369913936625807,0.12131259999306152
7.6064599999999984,4.393499460244315,0.1208544508011886
7.611044,4.419050178920892,0.12042387765918454
7.615648,4.446399766492765,0.11996634065849751
7.620248,4.474404419083993,0.11952038439414019
7.624852000000001,4.505884624751667,0.11904494224558598
7.629443999999999,4.544560306000525,0.11845259073461278
7.634036000000002,4.58389105226874,0.11787765418011174
7.638624,4.625920101879897,0.117271004112343
7.643224,4.671014008976436,0.11659450721982018
7.6478,4.717251719948914,0.11589849785670903
7.6524,4.763078735330326,0.11518821996223949
7.656995999999999,4.81053829344426,0.11440917812787041
7.661595999999999,4.858364405700632,0.11360767996720403
7.666180000000001,4.905002572632435,0.11278564615628242
7.670771999999999,4.943668014249554,0.1120805373669594
7.675371999999999,4.980778956399669,0.11138354849626152
7.679964000000002,5.012737661292188,0.11074772408156641
7.684552,5.037256521175232,0.11023174020679258
7.689147999999999,5.05829982798183,0.10976146792312023
7.693736000000001,5.085228480330899,0.1091854859892479
7.698328,5.116121424612994,0.10854957795704541
7.702908000000001,5.148769096341759,0.10784632497415439
7.7074919999999985,5.179495714461082,0.10717485262462435
7.712076,5.212509940332286,0.10645433426651627
7.7166640000000015,5.241026993965248,0.10579727343280101
7.721260000000001,5.268478286987788,0.10511326830474893
7.725847999999999,5.295396699705118,0.1044181379315926
7.7304400000000015,5.323703285726678,0.10369231605125867
7.735036000000001,5.350577556995379,0.1029657276301032
7.739619999999999,5.374875709635282,0.10226542552427663
7.7442199999999985,5.393777255589299,0.10161937082812517
7.748808,5.412923170971608,0.10096468098641438
7.753412000000001,5.431047467192122,0.10033114806098718
7.758004,5.450970632307932,0.09968593671476686
7.762604,5.472692666319039,0.09902291628593124
7.767208,5.492738016148996,0.09836663305202314
7.771792000000001,5.514826604302539,0.09767878153451313
7.776388000000001,5.541534549408466,0.09694026360604498
7.780968000000001,5.565666375885596,0.09621927376217303
7.785564000000001,5.5859560951438425,0.09555389300708145
7.7901440000000015,5.59982758855441,0.09496038934021087
7.794732,5.610878593907888,0.09440524974753298
7.799332,5.626626999479266,0.0937478207421468
7.803932,5.6387776672600545,0.0931254686099502
7.808516000000001,5.648352216412045,0.09251478023160985
7.813112,5.660625068906978,0.0918910842326649
7.817716000000001,5.672242856382556,0.09126131321679563
7.822312,5.679119102191603,0.09068769949229985
7.826907999999999,5.687549847467656,0.09012107605525756
7.831507999999999,5.699944884676734,0.08951057409527663
7.836103999999999,5.716837094124053,0.08886670284645945
7.840700000000002,5.728865577190696,0.08828022810054556
7.845292000000001,5.74305948329507,0.08766129733748436
7.849875999999998,5.754799455484795,0.08704809753063324
7.854464,5.768827035426396,0.086395602956939
7.859064,5.787063276729318,0.08568309473187587
7.863651999999998,5.802723399403442,0.08498198532356185
7.868244000000001,5.818095011200646,0.0842538491935762
7.872835999999999,5.835387676607292,0.08350690960438012
7.877420000000001,5.854190700032313,0.0827165917224673
7.882012,5.8719721042955415,0.0819347405154767
7.886600000000001,5.889631323844623,0.08116363420860336
7.891192,5.90463638149939,0.08046712319878234
7.895796000000001,5.922217557782956,0.07976703976043786
7.900372000000001,5.946339144628347,0.07902148384227956
7.9049559999999985,5.964819755359558,0.07832623530800416
7.90954,5.98281162723419,0.0776639699792764
7.914128000000002,5.999904064661172,0.07700511122355555
7.91872,6.014176014031065,0.07637044189127683
7.923296000000001,6.022440433144343,0.07580457445368097
7.927896,6.036468013085944,0.07520023841520986
7.932480000000002,6.056014384427579,0.07456497226705493
7.937068,6.074172582464982,0.07396885763994213
7.941652000000001,6.093763095255245,0.07338938926563739
7.946244,6.1128648691889245,0.07284593516258481
7.950828000000001,6.133154588447172,0.07233973748450354
7.955424000000001,6.159618164124809,0.07182148783618961
7.960007999999998,6.186248065965219,0.0713484795403918
7.964604000000001,6.215698455862719,0.07086443938274026
7.9691800000000015,6.248624398836664,0.07038269747306328
7.973772,6.290133990696022,0.0698515857425465
7.978352000000001,6.335485689774264,0.06930285110811414
7.982944,6.381981192728444,0.06874387607708832
7.987535999999999,6.426433457359038,0.06820859452424369
7.992115999999999,6.467943049218396,0.06770405872611635
7.996704000000001,6.512150944420698,0.0671938100801889
8.001292,6.558768632089024,0.0666503212137798
8.005876,6.611027295871529,0.06608477776378933
8.010472,6.667250251587061,0.0654957452678108
8.015056000000001,6.727559683949768,0.06487443291975149
8.019644,6.7785082176935605,0.06430641629991199
8.024228,6.829823305579789,0.06372975193710412
8.028815999999999,6.882648751484394,0.06312557234864825
8.033408000000001,6.937883989855023,0.06249456092700791
8.037987999999999,6.990010229291643,0.06185068862926899
8.042584000000002,7.036206981737166,0.061205833874775704
8.047172,7.075985508335008,0.06058622319806999
8.051776,7.114576089608282,0.05994367440035738
8.056363999999999,7.148669498643317,0.059314554866986426
8.060948,7.178265735440114,0.0586995796476066
8.065539999999999,7.196457835294407,0.05813476055086612
8.070132000000001,7.20708790542508,0.05760069798236747
8.07472,7.2132208033175145,0.057073621837678196
8.079315999999999,7.218287940599526,0.05651191498688718
8.083904,7.2188579056433,0.05595453139838831
8.088496,7.215952317610627,0.05539457966928314
8.09308,7.2080608184831325,0.054864021782947525
8.097667999999999,7.192851659060309,0.05434713766966029
8.102256,7.172001523523308,0.053847165574256006
8.106848,7.144610977424479,0.05336222051081244
8.111432,7.118119865773299,0.05287261726754948
8.116015999999998,7.0840667243985,0.05240413850940142
8.1206,7.044250422195376,0.05195442425291774
8.125184,6.998304405021491,0.05154232333091267
8.129760000000001,6.951869648991023,0.051150084281464295
8.134356,6.905967773265766,0.05077109575234576
8.138943999999999,6.859821528112218,0.05040121357088087
8.143532,6.806279579397825,0.05008574412025389
8.148128,6.752004522398557,0.049804603838844955
8.152704,6.697773606847917,0.04956538674061049
8.157308,6.6520041554685445,0.049301536663488535
8.161895999999999,6.605090900213233,0.04904687031749026
8.166492000000002,6.557688906101338,0.04881421540737328
8.17108,6.510453238152217,0.048615582657575325
8.17568,6.467714742441337,0.04841292633978252
8.180271999999999,6.425509127035667,0.04822624484823872
8.184871999999999,6.383059142201706,0.048050268913011826
8.189452,6.339753864368724,0.047917957225496306
8.194047999999999,6.295182597945658,0.04780305121315879
8.198644000000002,6.2520436462754505,0.04770552979920302
8.203236,6.205839837119863,0.04762602090906273
8.207836,6.159025104393546,0.04757917585827293
8.212420000000002,6.111721632810646,0.04755849986753291
8.217004,6.064295976513601,0.04754409433705624
8.221599999999999,6.015604331626472,0.047550167343151345
8.226184,5.966546132596905,0.047576984398272355
8.230772000000002,5.916710683833838,0.047594991235903744
8.235364,5.8737821997750315,0.04757804242372725
8.239951999999999,5.830975900430372,0.04755424468909476
8.244536,5.783139548542262,0.04750849040782221
8.249112,5.726352993626301,0.0475131597633832
8.253703999999999,5.6759846645580225,0.047510059964919964
8.258299999999998,5.626271400509099,0.04752323640239313
8.262884,5.5743927134224425,0.04755973713368649
8.267484,5.518305364974467,0.04763340958249777
8.272072000000001,5.4600525934887605,0.047731569858177336
8.27666,5.407318613403086,0.04782127192160332
8.281255999999999,5.359570544412231,0.047882146858492756
8.28584,5.315420213211968,0.04794339356262742
8.290436,5.274090370068794,0.047996579829942855
8.295012,5.238157133611509,0.048050174118252006
8.299612,5.210563176611344,0.04808921558700763
8.304188,5.18771076127771,0.04811276594565505
8.308776000000002,5.166657214839373,0.0481364623556175
8.31336,5.150223025353419,0.048152534517668835
8.317952000000002,5.134810455029261,0.04816098283478601
8.322536,5.120952384172106,0.04818495283606798
8.327131999999999,5.104151640543716,0.04822456211641253
8.331724000000001,5.088372516077119,0.04825609506967057
8.336316,5.074925140811031,0.048312959111425614
8.340896,5.066341491925618,0.04834626142050574
8.345488,5.053915735821322,0.048396221187859904
8.350068,5.0455764563642,0.0484129573247272
8.354652000000002,5.036459927173576,0.048422005756150424
8.359236,5.027465582697097,0.04842313371765633
8.363824000000001,5.0232127798871495,0.048406745234978545
8.368407999999999,5.010742882334225,0.04839997656830908
8.372992,4.994553062276564,0.048402069085294167
8.377579999999998,4.975542754161814,0.04841357318351788
8.382188,4.9507692852187395,0.04845294900126893
8.386776000000001,4.9222758937709274,0.04850253597984946
8.391359999999999,4.886831396170224,0.048534518844388086
8.395952000000001,4.845745922455342,0.048585591843255796
8.400552000000001,4.799019472626283,0.04865864947371413
8.405152000000001,4.747018600825481,0.04872308584981612
8.409744,4.6914199912340875,0.04878921442826469
8.414348,4.633000893585605,0.04886739465868097
8.418924,4.576502849546564,0.04893515138027483
8.423524,4.518083751898083,0.04901229057886067
8.428111999999999,4.462729511734981,0.04906175018159768
8.432708000000002,4.405576402676584,0.04911213951549793
8.437296,4.348667663046477,0.04914347870633486
8.441892,4.282275840083311,0.049217411939390915
8.446484000000002,4.219726124339026,0.04927105680255902
8.451080000000001,4.157298593308887,0.04931693908355101
8.455656000000001,4.093316562811744,0.04933984133260305
8.460252,4.0310112164957514,0.04937512056383675
8.464839999999999,3.967928620446256,0.04939921442795885
8.469436000000002,3.9059898282727,0.04940215458651651
8.474015999999999,3.8516130658227636,0.049372906060371285
8.478608000000001,3.800178976144062,0.049321348715935576
8.483196,3.747234528446985,0.049325804400275154
8.487784000000001,3.6950673304834094,0.049346373028850164
8.492376,3.6513615966911015,0.04933127058307224
8.496956,3.6074114934705017,0.049339468556204844
8.501548,3.564360824697551,0.04934788407834374
8.506128,3.522209590372248,0.04935927593502659
8.51072,3.4771156832757097,0.04939728492917892
8.515315999999999,3.4320217761791714,0.04943632561269416
8.519904,3.382430696844394,0.04947539640444497
8.524512000000001,3.3348828558332038,0.04948486026121255
8.5291,3.283370722888985,0.049538354936236165
8.533688000000001,3.2368445010395877,0.049537599198260195
8.538284,3.1846773030760125,0.049568136113626024
8.542872,3.1300561711977846,0.04956845902461666
8.547476,3.072614551262468,0.049576887276827776
8.552052,3.0163167352030906,0.04955599865244792
8.556648,2.957076246372478,0.04956716290177151
8.561236000000001,2.8914175316941844,0.0495953142497828
8.565836000000001,2.8165201031111216,0.049663155447049995
8.570416000000002,2.7343050142327296,0.049751167221674684
8.575016000000002,2.6565429561439498,0.049708122818472866
8.5796,2.5782480177499583,0.04961432204796268
8.584195999999999,2.493901407650724,0.04945627324905404
8.58878,2.4078781133703386,0.04927746027818446
8.593376,2.324675307147043,0.04906778630466368
8.597964000000001,2.2409396206185366,0.04877883046603742
8.602556,2.1555272499088804,0.048458369450790365
8.607144000000002,2.0694598141798672,0.04805835432223141
8.611736,1.982126389860769,0.04771489031063143
8.616323999999999,1.887108751103906,0.04744600428371278
8.620916000000001,1.7905366128800384,0.04711119170666036
8.625508,1.6948639091038182,0.04462513417949349
8.630092000000001,1.6004571939176835,0.042119317708924284
8.634684,1.507482793484407,0.03964257057392693
8.63926,1.408623047508661,0.03718081468297976
8.643856,1.3077200632093278,0.03473528613145741
