Time,Force,Position
6.6838599999999975,0.23277355413538645,0.0
6.688452,0.22803201246885585,0.0
6.693039999999998,0.21740512525985548,0.0
6.6976359999999975,0.20743330307021154,0.0
6.702223999999999,0.2020808378329526,0.0
6.7068080000000005,0.19492950370039794,0.0
6.711395999999999,0.18892197344378248,0.0
6.715995999999999,0.17727346707298855,0.0
6.72058,0.16562496070219462,0.0
6.725163999999998,0.1569191271026356,0.0
6.729756,0.14641442460778087,0.0
6.734336000000001,0.13464373352284134,0.0
6.738911999999997,0.12185142327610825,0.0
6.743508,0.11326777439069488,0.0
6.748095999999999,0.10417924242513349,0.0
6.752687999999997,0.09394690658363292,0.0
6.757275999999999,0.08385289967984336,0.0
6.761863999999997,0.0737588927760538,0.0
6.76646,0.06238275305861399,0.0
6.771056,0.051006613341174206,0.0
6.77566,0.04167371194732148,0.0
6.780236,0.033362429715262265,0.0
6.784836,0.030786311086464402,0.0
6.789423999999999,0.030375615495399237,0.0
6.794023999999999,0.02792168158074702,0.0
6.798608,0.029886876638816548,0.0
6.803203999999999,0.032761745776272715,0.0
6.807795999999998,0.04991562099368761,0.0
6.812388,0.07685133005282196,0.0
6.816979999999999,0.11074838489658659,0.0
6.821575999999999,0.15017447077212276,0.007926026586389644
6.826179999999999,0.19974894463181542,0.015876217738269034
6.830771999999998,0.26090412122852324,0.02377107654366537
6.835368000000001,0.3303307736485744,0.03170372224365477
6.839964,0.4094332194197647,0.03976357334963769
6.844551999999998,0.5005270635190353,0.04769859123068104
6.84914,0.5989768047704359,0.055757732354272206
6.853723999999998,0.7015674037493776,0.06409772479379602
6.858316,0.8177980880124872,0.0721679980715666
6.862912,0.9433218672607332,0.08026859361980557
6.867488,1.0750738840087355,0.08857622678126237
6.872088,1.218817299084818,0.09678407942999653
6.876664,1.372781240818748,0.1049075175313601
6.881259999999999,1.5338728545000824,0.11311665984278181
6.885855999999999,1.707688974794371,0.12123258759559166
6.8904440000000005,1.8865792890807378,0.12930137085562976
6.89504,2.070044818870861,0.13727834387889556
6.899627999999998,2.2468375137532743,0.1451978842845684
6.904227999999998,2.4165908195855392,0.15311495433284333
6.908823999999997,2.5803263555294498,0.16101584478147868
6.913411999999999,2.73821044774778,0.16107885954289433
6.918016,2.892652888706554,0.1610521453080243
6.922616,3.040300310043472,0.16106512361262235
6.927211999999999,3.182540885062764,0.16097593424334433
6.931796,3.3206406023545143,0.1606722101980386
6.936392,3.446504551889893,0.1605186468202049
6.940979999999998,3.5669616551076464,0.16022489480811322
6.945579999999998,3.6890852028748107,0.15954898143513735
6.950159999999999,3.800815993229527,0.1591197089243304
6.954759999999999,3.9057076225137592,0.15862245381196155
6.959348,4.007069317641178,0.157857921153821
6.963944,4.099137917783461,0.15713430767915101
6.968531999999998,4.178315685150015,0.1565145789492372
6.973124,4.254985137521551,0.15567204081654193
6.977724,4.324038179089099,0.15482749560238881
6.982315999999999,4.386907124605519,0.1539509742097046
6.986903999999997,4.441837246624144,0.15314026255670368
6.991496,4.490549370774751,0.1524068125965352
6.996087999999999,4.535331104809219,0.15165615059852774
7.000672,4.576060264013403,0.1509017922204588
7.005259999999998,4.6187443786439175,0.14995859278504128
7.009852,4.653411626511119,0.14912829663963012
7.014435999999998,4.687091157033415,0.1482083153332957
7.019015999999999,4.714674874401841,0.1473490308220097
7.023607999999998,4.7369400283498955,0.14654504198869422
7.028195999999999,4.76402476723,0.14556175713930677
7.032780000000001,4.788611430746823,0.1445568131487243
7.037380000000001,4.80722446582392,0.1436046043913116
7.041967999999999,4.823583794966028,0.1426111347342307
7.046567999999999,4.835401810421268,0.14164873462931055
7.051159999999998,4.843455761923145,0.1407132499190114
7.055748,4.843781357538625,0.1398996850517328
7.060352,4.843696257563042,0.13905483119543732
7.064952,4.834861182539271,0.138368107917425
7.069543999999999,4.817153947753169,0.13784389680736117
7.0741359999999975,4.796870594338268,0.13735812516952478
7.078743999999999,4.77478837202807,0.13690346489351723
7.083319999999999,4.760268179441493,0.13627592264601243
7.087919999999999,4.748201920769569,0.1356180178566214
7.0925080000000005,4.738589596012296,0.13493049039656002
7.097111999999997,4.726811848217292,0.13431022058194733
7.101691999999998,4.721452326269966,0.1335635091023393
7.10628,4.71331645771418,0.13293726407569462
7.110860000000001,4.7093112072541965,0.13226277537480075
7.115451999999999,4.709192205461724,0.13156549291491818
7.120043999999998,4.703476369003702,0.131047489265539
7.124636000000001,4.69714960897495,0.13058191279696674
7.129223999999999,4.6938096631660615,0.13011046297116938
7.133819999999998,4.689614424358155,0.12971402299874987
7.138408,4.690327053379551,0.1292708386061152
7.142999999999999,4.69570318080196,0.1288055454027767
7.147588000000001,4.710606533006059,0.12821013633627643
7.15218,4.72849669943002,0.12761043752332596
7.156771999999998,4.750150929807347,0.12699677119741806
7.16136,4.781210200252219,0.12626168831581186
7.165943999999998,4.812069242717426,0.12560669281247017
7.170527999999999,4.847713968297792,0.12491842938870143
7.175115999999997,4.876618055336669,0.12444491900482947
7.179708,4.908631141309555,0.1239680343492958
7.184295999999998,4.9415878031787175,0.1235419520576427
7.188895999999998,4.9744664217823615,0.12318480894334298
7.193488,5.008532985710572,0.12286438882345668
7.198088,5.045586363858646,0.1225394842025592
7.202679999999999,5.081906633721847,0.12227972323036831
7.207271999999998,5.114018242223727,0.12212429895650195
7.211864,5.149483219087908,0.1219349829527548
7.216455999999999,5.18715776043845,0.12174381417074459
7.221043999999997,5.22434356293241,0.12159858883988171
7.225636,5.263572603749955,0.12140978330949098
7.23024,5.300514036815623,0.12128977188368098
7.234831999999999,5.338354904328939,0.12116702005363111
7.239427999999998,5.372475849337517,0.12110879680360034
7.244012,5.407374044079598,0.12105036715912085
7.248607999999999,5.443416042697618,0.12096249327193753
7.253203999999998,5.4777813571344875,0.1208956828252931
7.257799999999998,5.5173769520944695,0.12071872290759003
7.262399999999998,5.556195297320951,0.12054898627753508
7.266996000000001,5.597545619727602,0.1202987885968249
7.271583999999999,5.632599901000717,0.12013120629830353
7.276168,5.667732225539351,0.11990800018524717
7.280759999999999,5.703964212505295,0.1196058067782313
7.285344,5.7356548857843705,0.11931446900419942
7.289923999999997,5.768933960347341,0.11891731984928752
7.294516,5.801636013156472,0.11845808127662297
7.299107999999999,5.8400570853453,0.11786420353375432
7.303687999999999,5.875857897456701,0.11724800071849378
7.308272,5.913002741423706,0.11654588491587317
7.312859999999999,5.944462467827903,0.11587131834572607
7.317444,5.9735904450315935,0.11520654555440345
7.322039999999999,6.002918650214948,0.11447859364510984
7.326631999999998,6.025662303387847,0.11379479730835888
7.33122,6.048483999826265,0.11305780488985473
7.335815999999999,6.068807620901402,0.11228996420812513
7.340400000000001,6.089087100527911,0.11148114677331933
7.345003999999998,6.103681462591613,0.11069825218367756
7.349583999999998,6.11222415295007,0.1099705426770392
7.354179999999998,6.1157367907650775,0.10927237063904917
7.358759999999998,6.1172842335220174,0.10855295675789631
7.363351999999997,6.1207085884397685,0.10775610061885861
7.367931999999998,6.121679009442868,0.10697332080333997
7.372527999999997,6.12121711569311,0.10618572881570125
7.37712,6.118834168333909,0.10542071738251506
7.3817119999999985,6.108522637108651,0.10477376853285342
7.386311999999998,6.0952684331121585,0.10416665731520038
7.390903999999997,6.076373253001488,0.10362754209560468
7.395479999999997,6.056334269014878,0.10311034887781381
7.400072,6.031309373933445,0.10266512810867318
7.404659999999998,6.01229200910863,0.10212690668312328
7.409255999999997,5.990331971512578,0.10162625619075888
7.413831999999997,5.968127564488236,0.10113990374654724
7.418411999999998,5.943391180283724,0.100715293360756
7.423004000000001,5.916000634184897,0.10036251287098792
7.427591999999999,5.889142968391281,0.10002271549352365
7.432187999999998,5.85987551013164,0.09973718038616736
7.436776,5.836781908291387,0.09940134294799174
7.441352,5.814465556184638,0.0990634530090123
7.445956000000001,5.798445245211424,0.0986692047709223
7.450543999999999,5.784390129296279,0.09829926760419926
7.455132000000001,5.771400773991555,0.097961996095971
7.459719999999999,5.760620983173192,0.0976341365724275
7.464315999999998,5.749640964375166,0.09737094273043717
7.468911999999998,5.74536768230174,0.09708131805346078
7.473508000000001,5.747268256647703,0.09674694045622136
7.478099999999999,5.752033460499385,0.09643070778924163
7.48268,5.7597854785709295,0.09612588397644256
7.48728,5.771790299452422,0.09580194244561152
7.491856,5.7898467920391585,0.09544500803092808
7.496456,5.806026372465082,0.09516328017243209
7.501047999999999,5.8300564934915435,0.09483521493464703
7.505643999999998,5.857972863185516,0.09451707542883866
7.510235999999997,5.8933290778889615,0.09412557408407408
7.514828,5.932283030383,0.09370602984464109
7.519423999999999,5.974345981811047,0.09329718871990117
7.524019999999998,6.0179634327060985,0.09289166066096124
7.528612000000001,6.059171091135126,0.09254504230951585
7.533204,6.104631552374101,0.09218610344660262
7.537791999999998,6.150991448060724,0.0918315834642273
7.542388000000001,6.200294016518581,0.09145044060635944
7.546975999999999,6.254582496071263,0.09101984827028037
7.551567999999998,6.305928302852707,0.09062509145915991
7.556151999999999,6.362504390157266,0.09016239475500898
7.560739999999997,6.413806055490082,0.08973318652079608
7.565336,6.464330471089397,0.08930765224618464
7.569915999999997,6.516609614135381,0.08883040451154293
7.574503999999999,6.566801377409147,0.08833699713989311
7.579091999999997,6.614539206768263,0.08785185984660152
7.583679999999999,6.657902048603284,0.08739208665633973
7.588275999999999,6.70391905233262,0.08687843078048535
7.59286,6.746949241842094,0.08635985062498762
7.597447999999998,6.783639248769404,0.08583828138504165
7.602047999999998,6.822083983143382,0.08527447455324762
7.60664,6.862161260249882,0.08467283228587019
7.611231999999999,6.8973306695270775,0.08407681295721876
7.615819999999998,6.935154240698589,0.0834314714485498
7.620419999999997,6.971912051259677,0.08275686492403121
7.625007999999999,7.004417059010818,0.08209687456245282
7.629607999999999,7.031525460076072,0.08146830010283108
7.634199999999998,7.052337820007792,0.08087346643538641
7.638799999999998,7.062889846872948,0.08034831505063006
7.643395999999997,7.0758516662041275,0.07978278558527223
7.647995999999997,7.084438498011215,0.07923705302199531
7.652588,7.093758438103174,0.07865211218626107
7.6571799999999985,7.100746628994628,0.07806002636409429
7.661771999999997,7.106835385438434,0.07747582654214177
7.666364,7.115866814653475,0.07686989390542198
7.670951999999998,7.124120994135014,0.0762617153798068
7.675547999999997,7.136583834977872,0.07561045472090294
7.680135999999999,7.143283514992406,0.07500140540007307
7.684727999999998,7.1454860227687025,0.07440880716808795
7.689307999999999,7.149898095031359,0.07383021077082386
7.693899999999997,7.144460529818516,0.07332925329574905
7.698492,7.1362024765485845,0.07284645040722791
7.703072000000001,7.129743292173949,0.0723562856447577
7.707672,7.119319815866285,0.07189857727310163
7.712259999999999,7.107752535682682,0.07145472285887489
7.716851999999998,7.094508571317928,0.07100822721944311
7.721435999999999,7.084085095010264,0.07054592202412253
7.726024000000001,7.076359922045542,0.07007326706918164
7.73062,7.074275725195001,0.06956855354752875
7.735207999999998,7.072968778077961,0.06906987708101506
7.739796,7.069618592637333,0.06858854735074003
7.744391999999999,7.066556918073625,0.06813584788896844
7.748987999999999,7.067748046319867,0.06768375589872137
7.753591999999999,7.068694805137816,0.06724595919080893
7.758179999999998,7.067476140918032,0.06683338927456399
7.762783999999998,7.068056345593545,0.06641661150603119
7.767372,7.06430570419359,0.06604735405432105
7.771972,7.064274985298374,0.06566239463717852
7.776555999999998,7.072994241451344,0.06526959276315004
7.781155999999997,7.085799974251489,0.06484741044581689
7.785739999999999,7.108743855404053,0.06439054280977143
7.790339999999999,7.132220616861825,0.06395229910740236
7.794924,7.157496247214896,0.06351351825062569
7.799515999999999,7.182405323425529,0.06309298686661206
7.804104000000001,7.214876429359779,0.06264465924759825
7.808695999999999,7.254543010875214,0.06218606639283705
7.8133,7.296130646000091,0.061724309307047795
7.817891999999999,7.34041658446791,0.061261992726617365
7.82248,7.387523010992818,0.06079618802111974
7.827067999999999,7.433607818355934,0.060342714012797914
7.831652,7.484311982671433,0.05987979527250311
7.836252,7.53987987336761,0.059399109321028785
7.840839999999998,7.5965915679397265,0.05891431274070539
7.845439999999998,7.651382208902401,0.0584402441020139
7.850032000000001,7.709115522636311,0.05795696291675194
7.854615999999998,7.767503901389576,0.057488606395405054
7.859211999999998,7.8292015070565135,0.056993017407315355
7.863799999999999,7.895640654389983,0.05649077994306739
7.868391999999998,7.9586042486470046,0.055996129784370394
7.872987999999998,8.016704116523352,0.055528850606375774
7.877575999999999,8.072472235199191,0.055056329946264165
7.882171999999999,8.127707473569819,0.05457229232973209
7.886760000000001,8.180122223883359,0.05409951688267947
7.891343999999998,8.234702397234631,0.05361143677689956
7.895951999999999,8.280821106414637,0.053150815364336114
7.900536000000001,8.319499970585166,0.05270890075926159
7.905132,8.351516239479727,0.052288327859700806
7.909719999999998,8.380301324726132,0.05185753830137053
7.914312000000001,8.39858170747768,0.0514577141549203
7.918891999999998,8.412242733276845,0.05106479953274986
7.923491999999998,8.418341729352392,0.050690573831386615
7.928075999999999,8.414957642094873,0.050341288039202764
7.932675999999999,8.399269983447207,0.05002049839761151
7.93726,8.381783455904245,0.04969867069075293
7.941856,8.355468910047577,0.04940945633697331
7.946443999999998,8.32298050777152,0.049115018550009916
7.951039999999997,8.282441336915262,0.04885706363686926
7.955627999999999,8.224490498859886,0.048653649324389925
7.960219999999998,8.156034958309654,0.04847640778304414
7.9647999999999985,8.082715691378745,0.0483135659134595
7.969391999999997,8.000446221419988,0.04818680061490538
7.973979999999999,7.916011328423496,0.048072435262156564
7.978575999999999,7.829533197103418,0.04796636688767806
7.983167999999997,7.735370851345574,0.047879659339201595
7.987747999999998,7.6380214633882035,0.04781323515911277
7.992343999999997,7.539772640983185,0.04774342742753757
7.996931999999999,7.4393583955404345,0.04768922113753182
8.001523999999998,7.330771196803337,0.04767751769217609
8.006112,7.223083432513885,0.04766562071952891
8.010688,7.115273483510289,0.04765688137601735
8.015275999999998,7.007341349792546,0.047653110864022005
8.019868,6.899287031360659,0.047654414904577724
8.024455999999999,6.796751504328803,0.047648785981294475
8.02906,6.693438727563446,0.04763202450054824
8.033647999999998,6.590248135512234,0.04760942693773823
8.038244,6.487712608480379,0.0475954303307115
8.042827999999998,6.3864430700386094,0.04756056216556194
8.047427999999998,6.2949009843581925,0.0474883561044285
8.052016,6.206423756163155,0.047393517540248765
8.056607999999999,6.1178243432539725,0.047304567344981036
8.061196,6.031023799240085,0.04721605324115231
8.065796,5.9364168560742865,0.04716135052211466
8.070379999999998,5.837967805689605,0.047119636591870045
8.074975999999998,5.746181350580896,0.04705273142238446
8.079572,5.654394895472186,0.04698658503972028
8.084164,5.557622529268655,0.04694859357558151
8.088755999999998,5.463915020550505,0.04688556230729744
8.093348,5.375848487946533,0.04680873874083516
8.097935999999999,5.290602443399652,0.0467217023201036
8.10252,5.2033131605291825,0.04664882624203045
8.107111999999999,5.116146062372859,0.046564576214591286
8.111699999999997,5.028978964216535,0.04647842300196917
8.116292,4.940912431612562,0.04638764057473801
8.120875999999997,4.85145772570436,0.04632655378970176
8.125464,4.766866746176834,0.04623467984394428
8.130044,4.679088724449781,0.04617851374803335
8.134624,4.5909441485802915,0.046146665472803904
8.139207999999998,4.502799572710804,0.04610723599680911
8.143787999999999,4.418008365203613,0.04608368247040051
8.148392,4.334238776858217,0.04605124448496123
8.152987999999999,4.2487925043316705,0.046007865034887116
8.157572,4.1692315773475945,0.04592790102520426
8.162168,4.092491138420607,0.0458379900300346
8.166759999999998,4.0087215500752125,0.04580635620196302
8.171352,3.927894634501052,0.04575286005442903
8.175931999999998,3.8537303142028625,0.04566935679137643
8.180528,3.7772783861527954,0.04562775272663786
8.185107999999998,3.7000492083692267,0.045570159502202744
8.189707999999998,3.6188557386526283,0.045545832873065954
8.1943,3.53766226893603,0.04552481335803925
8.198896,3.456224429791141,0.04552744960075905
8.203476,3.372088287303308,0.045526680400502686
8.208067999999999,3.284765102615949,0.04558519661920972
8.212655999999997,3.1965424834809415,0.045651810305451776
