Time,Force,Position
6.206303999999999,0.10440099759382476,0.0
6.21088,0.09401847981311572,0.0
6.21546,0.08404665762347183,0.0
6.220056,0.07419702014797361,0.0
6.224644000000001,0.06254851377717968,0.0
6.229247999999998,0.054619929911122855,0.0
6.233836,0.05131070299745094,0.0
6.238420000000001,0.04460547879604282,0.0
6.243012,0.03892187375642822,0.0
6.247612,0.033691593233314936,0.0
6.252216000000001,0.02915179206963953,0.0
6.256803999999999,0.02424543676352711,0.0
6.261407999999999,0.02318118867629744,0.0
6.265988,0.02223912530321344,0.0
6.270584,0.019376008320688063,0.0
6.275172000000001,0.017656695214101886,0.0
6.279772000000001,0.016102195747097526,0.0
6.284351999999998,0.015324946013595348,0.0
6.288936,0.014627252068802691,0.0
6.293527999999999,0.014627252068802691,0.0
6.298112,0.010986885352775139,0.0
6.3027000000000015,0.00938975696033463,0.0
6.307283999999999,0.009058617157978989,0.0
6.311872000000001,0.007705858193829823,0.0
6.316464,0.006353099229680659,0.0
6.3210440000000006,0.005122524979677166,0.0
6.325627999999998,0.0019708971202322973,0.0
6.330220000000001,0.005855633264551194,0.0
6.334796000000001,0.007819315799428714,0.0
6.339379999999999,0.007652989636654891,0.0
6.343972000000001,0.007652989636654892,0.0
6.348548000000001,0.00835068358144755,0.0
6.353159999999999,0.011991050297475101,0.0
6.357744,0.015631417013502652,0.0
6.362331999999999,0.018372349281882354,0.0
6.36692,0.018372349281882354,0.0
6.371507999999999,0.017430285908798356,0.0
6.376111999999999,0.0167325919640057,0.0
6.380700000000001,0.0167325919640057,0.0
6.385292,0.0167325919640057,0.0
6.389879999999998,0.0167325919640057,0.0
6.394476000000001,0.025223262507297728,0.0
6.399059999999999,0.046071885521107116,0.0
6.403659999999999,0.07670234237663597,0.0
6.408252000000001,0.1164595680545278,0.0
6.412848,0.16481068224957174,0.00847802450241506
6.417431999999998,0.2175470236004481,0.017363357088511402
6.422024,0.27246054014398796,0.02643426138562091
6.426624,0.3396098244438994,0.03529678470773821
6.431215999999999,0.4178510726242435,0.04411395070866169
6.435796,0.5080822066094759,0.05257710428113134
6.440380000000001,0.6042884815576264,0.0610330455568295
6.444967999999999,0.7030811147663135,0.0695911316706195
6.449563999999999,0.8098567129214245,0.07813989171278794
6.4541520000000006,0.9252703410423158,0.0867287127040173
6.458728000000001,1.0530845505591604,0.09524273408030516
6.46332,1.1878601058606353,0.10381360650846815
6.467908000000001,1.3308629955368252,0.11233674630114841
6.4725,1.4854024465014024,0.12061940448564419
6.477084000000001,1.6464484062109164,0.128833302628729
6.481672,1.8139567332167392,0.13689783480090806
6.486272,1.975017628002857,0.1448694052215587
6.490848,2.121388821117951,0.1528811317666668
6.495435999999998,2.261287407304997,0.1607225745862479
6.500039999999999,2.3894831060408825,0.16863503319476855
6.504636000000001,2.5080632970978223,0.1681157470802445
6.509239999999998,2.625855998789521,0.16707185731372926
6.513832000000001,2.7379533432866743,0.16579398176318494
6.518439999999998,2.839447462759978,0.16467227083992086
6.523019999999999,2.928295118885845,0.16367799025245514
6.527619999999999,3.0074831258841384,0.1629313367208108
6.532195999999999,3.0806533629940773,0.16219602665135224
6.536795999999999,3.1499712532533946,0.16131880676253108
6.541388000000001,3.2150261010710253,0.16032701264075194
6.545984000000001,3.2782276989129935,0.1590816115936879
6.550576,3.3376549931698576,0.15771088847252068
6.555167999999998,3.3931857991274716,0.15617391561765348
6.559760000000001,3.4412665204438735,0.1546767757385754
6.564352,3.4766668765959485,0.1534700185578243
6.568932,3.5072374081842366,0.1523020205455905
6.573528,3.534288245247451,0.151191591031606
6.578116000000001,3.5614612670248107,0.15009206725119625
6.582699999999999,3.592642722183827,0.14892513518923284
6.587288000000001,3.62027058100088,0.14795509346694827
6.591884,3.6537057420948855,0.14687345675548807
6.596475999999999,3.6906164562653365,0.14571272369824237
6.601051999999999,3.72074239044567,0.14478087784269503
6.605640000000001,3.7521784546647168,0.14387041211693807
6.610227999999999,3.785579713941833,0.14298557316361568
6.614812000000001,3.825032644924193,0.1419604814927393
6.619403999999999,3.863097402602322,0.14103538442241897
6.623992000000001,3.9001405411186574,0.1401442450076961
6.628584,3.940004167692083,0.13919871607041667
6.633179999999999,3.974881883170686,0.13843303510998956
6.637764000000001,4.003874253106819,0.13788090012578652
6.64236,4.027758527233984,0.13752263025992678
6.646951999999999,4.051031877790423,0.13724296485451754
6.651547999999998,4.077902966137452,0.13689338047788813
6.656123999999998,4.10812742284678,0.13648899251430005
6.660723999999998,4.136430825946667,0.13613838653516208
6.6652999999999984,4.1651449246376195,0.1358338000035954
6.669899999999998,4.191449230862549,0.1356346949936959
6.674496000000001,4.217753537087478,0.13544026581480006
6.679088,4.245978896921847,0.13519698811557915
6.683672000000001,4.2698292692321225,0.1350343498746131
6.688268000000001,4.294823445418339,0.13483740934481833
6.69286,4.327746205470611,0.1344256571199354
6.697451999999998,4.3606689655228825,0.13402062277290702
6.70204,4.392936660555799,0.13361568529354367
6.7066240000000015,4.423649856121711,0.13323177578929613
6.711212,4.4535858019541195,0.13285425705712484
6.715807999999999,4.486953159414346,0.13236137342399842
6.720396000000001,4.515046094902831,0.1319666805727724
6.724996000000001,4.547836430609219,0.13140876442438695
6.729588,4.5798495165821045,0.13085450926489942
6.7341760000000015,4.608631418906836,0.13032832018466917
6.738759999999999,4.6325054534022625,0.12985518560925516
6.743344,4.649672751173089,0.1294716641619956
6.747931999999999,4.664708527723072,0.1290205647432352
6.752527999999998,4.68162121643387,0.12846631937326428
6.757111999999999,4.691294288114854,0.1279753566493896
6.761700000000001,4.699124349451917,0.12744963167670392
6.766287999999999,4.702290912387965,0.12694968823541153
6.770876000000001,4.699772357761206,0.1265017609049037
6.775468,4.697454031114111,0.12596405693444773
6.780055999999998,4.68777390272306,0.12550026012958582
6.784652000000001,4.669710353426258,0.12513487422666889
6.789231999999998,4.646206055994942,0.12479686530139239
6.793831999999998,4.616772271572528,0.12453362727864647
6.798416,4.582064065178372,0.12435376946186187
6.803016,4.544369044564353,0.12417886677088713
6.807611999999999,4.501521786692738,0.12406884723982266
6.812204000000001,4.457364398782409,0.12394213393665975
6.816783999999998,4.405644981148462,0.12397221576615196
6.821376000000001,4.350816564580506,0.12402291668847033
6.825959999999999,4.297376321316779,0.12400668902958895
6.830552000000001,4.246101501090786,0.1239179494753695
6.835135999999999,4.195071050293084,0.12380358197046482
6.839724,4.142285872048714,0.12378496084794458
6.844307999999998,4.087335270766612,0.12382232449377463
6.848904000000001,4.037659091456251,0.1237678769824175
6.853496,3.9913362805081904,0.12366532323360502
6.858072,3.9481224684941383,0.12354581792811693
6.862656000000001,3.910060893737682,0.1233516518328465
6.867244,3.8758855676487367,0.12312910095809501
6.871824,3.8455964902273023,0.12288641019973535
6.876432000000001,3.822791399263971,0.12255711584014521
6.881015999999999,3.806448675596947,0.1221737545006788
6.8856280000000005,3.7986115575498194,0.12168142308716651
6.890219999999999,3.799524414550879,0.12105780336663617
6.894824,3.8079212580100417,0.12035983630185206
6.899408000000001,3.8239242726414506,0.11958330192056109
6.903995999999999,3.8436913512262256,0.1188053869942469
6.908587999999998,3.86992079710731,0.1179742648628373
6.913167999999999,3.9023682408564113,0.11711525313003122
6.917767999999999,3.9411558671876765,0.11623971118931978
6.922356000000001,3.985628611081747,0.11534497746558238
6.926952,4.037463156719775,0.11440814707583923
6.931539999999998,4.096493177938986,0.11337440700197358
6.936139999999998,4.160431066987501,0.11232327970532718
6.940724,4.227355770255878,0.11130711739072668
6.945315999999998,4.296367853296472,0.11033134460080196
6.949912000000001,4.367956054965863,0.10934120446051702
6.954495999999999,4.442897624997554,0.10835038777732897
6.959084000000001,4.520293128943897,0.10738502907566304
6.96368,4.601941435700188,0.1063996229906547
6.968267999999998,4.680280515542807,0.10552385973266183
6.972860000000001,4.755554737900046,0.10472172273846
6.977447999999999,4.832872198580873,0.10391297074007667
6.982040000000001,4.9101896592616985,0.10314092569816607
6.986632,4.9867298702090235,0.10239904391120128
6.991223999999999,5.058650724203962,0.1017405628036609
6.995816000000001,5.130693762913047,0.10108114258895937
7.000404,5.201548856297563,0.10040147512836128
7.004988000000001,5.274036492414602,0.09967204653910607
7.009575999999999,5.340350272112252,0.09901136303471526
7.014156,5.399590760942863,0.09842624842387021
7.018764000000001,5.4538011972300255,0.0978806881264562
7.023343999999998,5.502737211545447,0.09739242335512771
7.027932,5.54880859635515,0.096897273094146
7.032523999999999,5.588950494173756,0.09643900327640782
7.0371120000000005,5.62520614332485,0.09598222274559884
7.041708,5.660273847151378,0.09550615963043624
7.046284,5.690311498434456,0.09505803547005696
7.050884,5.709800305774049,0.09468664631579735
7.055475999999999,5.723603995550838,0.0943292202498465
7.060068000000001,5.73646410943135,0.09392719060836777
7.064655999999999,5.751567689615112,0.09342598824040534
7.069255999999999,5.7558780564271,0.0930148827554785
7.073840000000001,5.752215697924403,0.09266214742244096
7.078436,5.743645471592402,0.09231971601358353
7.083023999999998,5.734009484649978,0.0919405734907936
7.087608,5.72420717154478,0.09151932246734963
7.092199999999998,5.713871978134373,0.09108008994100668
7.096799999999998,5.703903338866402,0.09062042790019677
7.101388,5.696344492064457,0.09010703566564471
7.105979999999999,5.689030014690801,0.08957439117789366
7.110564,5.68106047229779,0.08903104496056258
7.115164,5.671292061009481,0.08849884517735955
7.119751999999998,5.655516119464559,0.08804277713420695
7.124344000000001,5.641661231529077,0.08756410456848904
7.128927999999998,5.629849581917181,0.08705583379732389
7.133512,5.617671378162849,0.08657297782800757
7.138107999999999,5.60627042414202,0.08609129138139128
7.142692,5.601165511254725,0.08556379711836325
7.147279999999999,5.599413966729729,0.08502903265706534
7.151879999999999,5.601260159995326,0.08447329975852583
7.156464,5.6050715483189935,0.08395482805536865
7.161055999999999,5.618898900280932,0.08336688404706576
7.165648000000001,5.636446174747608,0.08274577534991241
7.170235999999999,5.656325198414789,0.08213378537939646
7.174831999999999,5.678169417140041,0.08155733263078055
7.179416,5.700302146742213,0.0810217709750726
7.184011999999999,5.72476662554489,0.08050047965307343
7.188600000000001,5.745144627700394,0.08003804414832728
7.193200000000001,5.766055510161109,0.0795992805041064
7.197779999999998,5.792240814593565,0.07914322342572076
7.202379999999998,5.8244777907312635,0.07867716158788018
7.206968,5.861456308535493,0.0781770194522574
7.211559999999999,5.909594593853933,0.07760338305181837
7.216152000000001,5.962107866696468,0.07702474570515463
7.220748,6.018629572920659,0.07646765681083297
7.225344,6.072985856107119,0.07594234108768935
7.229944,6.13118424651246,0.07539466885992564
7.23452,6.193102559422538,0.07483448855446555
7.239115999999999,6.25718629537035,0.07425766004148583
7.243696,6.320903477175724,0.07371378216212307
7.248283999999998,6.381922355638155,0.0731899075415748
7.252872,6.440242930757641,0.07268870888560441
7.257463999999999,6.503060678115369,0.07217967340829075
7.262056000000001,6.566777859920743,0.07167337361174472
7.266643999999999,6.627019488649672,0.07117436058465063
7.271235999999998,6.685706617911596,0.07067306267947404
7.275824,6.743738682154164,0.07017036715300785
7.280411999999998,6.800749127234938,0.06967872341920248
7.285024,6.856737953153918,0.06920173375224527
7.289611999999998,6.907330172387011,0.06874731484471776
7.294219999999999,6.9518707199148615,0.06830765078366956
7.298808000000001,6.992569160223828,0.06789713630727161
7.303415999999999,7.026194309665758,0.06750920594929062
7.308004,7.053889972116591,0.06712471970052247
7.312591999999999,7.073857278681029,0.06674714738775141
7.317187999999998,7.099299235196872,0.06630941209684343
7.32178,7.116401912255593,0.06590731638720863
7.326384000000001,7.127575102323216,0.06550609234462516
7.330967999999999,7.133229500990805,0.0651270005527815
7.335563999999998,7.131033359057857,0.06475380862163108
7.340152,7.125483848762607,0.06437582811714114
7.344752,7.1165809701050575,0.06399361078190353
7.349339999999998,7.100849170008763,0.06360912853969454
7.353928,7.08086456710252,0.06322079278433698
7.358519999999999,7.061368703052859,0.06280492389082967
7.363112000000001,7.041217773983843,0.06237703984822011
7.367704,7.015670238228939,0.061957778279312384
7.372295999999999,6.989712006882971,0.061512747274241775
7.376884,6.961666395764786,0.06103971218960901
7.38148,6.93590839239848,0.060535993047145756
7.386067999999998,6.908229335422733,0.06003822792980983
7.390656,6.880017398141774,0.0595201521092457
7.395240000000001,6.848862788089582,0.05901497817136819
7.399840000000001,6.817463808609098,0.05851849078679923
7.404423999999999,6.788885317185703,0.058008045494388524
7.409012000000001,6.7507015577151,0.057539092519681104
7.413603999999999,6.718280959072822,0.057039662902875966
7.418192000000001,6.686515425449902,0.0565478514278256
7.422788000000001,6.651562849627455,0.05607997457885096
7.427375999999999,6.623150684366832,0.05558685087016068
7.431964000000001,6.594616334392065,0.05509514905787354
7.436568000000001,6.563794376665419,0.054626578509075006
7.441155999999999,6.5333831145298396,0.05417850117050772
7.445740000000001,6.502727482965968,0.0537387871132366
7.450323999999998,6.474647970030896,0.05330058735460872
7.454912,6.445302468505737,0.052879752404035765
7.459516000000001,6.4182887161810855,0.05247272414348145
7.464092000000001,6.389764605838057,0.05209592422092205
7.468699999999998,6.360751756638447,0.051741991597951995
7.473284,6.331250168582252,0.051412786286281494
7.477879999999999,6.301504211097766,0.05109333276968886
7.482472000000001,6.272046764490202,0.050804414616251216
7.487068000000001,6.246187055673228,0.050511087837772646
7.491659999999999,6.221104596589756,0.05022179075715519
7.496251999999998,6.1907918569831715,0.04997227968013414
7.500844000000001,6.167796777671916,0.0497104864333758
7.50544,6.142391905894636,0.0494823081046995
7.510044000000001,6.112534003327744,0.04930118379965228
7.514635999999999,6.086640392693881,0.0490958230238212
7.519235999999999,6.060502412631726,0.04890279959148869
7.523831999999999,6.0347751281606365,0.04873541244328057
7.528424000000001,6.012645581480138,0.04856595392359341
7.533016,5.990271665371348,0.04840904707243236
7.537603999999998,5.9694522487295645,0.048264597999464066
7.542187999999999,5.948144093231195,0.048147717531271096
7.546776000000001,5.926591568304537,0.048043760019634354
7.551368,5.906837912273173,0.04793927652808576
7.555963999999999,5.890026929013045,0.04781975652830608
7.560552000000001,5.872971576324625,0.04771333772375613
7.565148000000001,5.85297355086497,0.047620200855629846
7.569735999999999,5.836695447910053,0.04751923418123455
7.574328000000001,5.820539529669281,0.04741062615514642
7.578911999999999,5.8004193194954805,0.04732238121590082
7.583500000000001,5.777356436550446,0.047247116982384964
7.588096,5.759157279986087,0.047149698076523326
7.592683999999998,5.735972212326907,0.047080166673849226
7.597276000000001,5.71008884132478,0.04700959947758107
7.601872,5.691234619741066,0.046895371643370265
7.6064599999999984,5.670870040138974,0.046817324998872895
7.611052000000001,5.641433072794885,0.046797778534325034
7.615631999999998,5.612240474879089,0.04676291597098134
7.6202320000000014,5.578428520010909,0.04673417832330023
7.62482,5.542695511533285,0.04671300070654316
7.62942,5.504142014998574,0.046699501135760005
7.634004000000001,5.456349804559092,0.04670163160958931
7.6386,5.407780344386107,0.04669486956073461
7.643191999999999,5.351893223917794,0.046694164615558316
7.6477879999999985,5.290242942621159,0.046716152950016715
7.652363999999999,5.224872738819785,0.04674711835606109
7.656959999999998,5.155782612513675,0.04678761896141578
7.661556000000001,5.081828759826888,0.0468522086960394
7.666152,5.00313336547357,0.046934369261263056
7.670739999999999,4.92648120944384,0.046999886264398376
7.675332000000001,4.848563064824024,0.04709770340840076
7.679919999999999,4.765781193823533,0.047221909271819976
7.684519999999999,4.680301019480097,0.047351535913599495
7.689104,4.594698660422516,0.047494507661754885
7.693695999999999,4.500512652479522,0.04767371729983478
7.698291999999999,4.402973276174227,0.04784061035392016
7.70288,4.31168579955384,0.047946769317371594
7.707471999999999,4.2185994540381575,0.04804995704381751
7.712060000000001,4.128333596579562,0.04814208807488243
7.716652,4.03831210854926,0.048214702733647294
7.721247999999999,3.9467361210519534,0.048267118192317625
7.725836000000001,3.8582249910400264,0.04829030488085363
7.730432,3.7629290810379827,0.04836585337871914
7.735019999999999,3.670331474378882,0.048443399649113296
7.739623999999999,3.5806765404910155,0.04849816221746595
7.744208,3.4930648449267374,0.04852921987960965
7.748808,3.4091730718671958,0.048551407082956924
7.753404,3.3227051801788563,0.04856430805100086
7.757984,3.2354600387570147,0.048567576201948265
7.762575999999999,3.141674486773347,0.0486006108109816
7.767156,3.0504209119698484,0.04854470858168333
7.771751999999999,2.9574906529852005,0.048475567610347214
7.776336000000001,2.8667258170382848,0.04835061018501928
7.780936,2.7724854280149236,0.04820738758006862
7.785532,2.679266658153356,0.04804511634062262
7.790123999999999,2.588868376348878,0.04785264092674139
7.794712,2.4938507375920143,0.04764740228240111
7.799308,2.396789860511564,0.04747107536508259
7.803895999999998,2.294865257050437,0.047357873293401215
7.808488,2.1917968497133717,0.0472852077421521
7.813075999999999,2.0904051265574557,0.0472217237640527
7.817668000000001,1.9905679028685443,0.04720718331981698
7.822255999999999,1.8975154591697505,0.04710672542920568
7.826855999999999,1.8025419618615153,0.04704399472745954
7.831444000000001,1.7036041726202515,0.04462304563068785
7.836036,1.6035225795030486,0.04221716841533561
7.840623999999998,1.5026637366523437,0.039811150698887215
7.845199999999998,1.4034815779827883,0.03740478152311197
7.849784,1.3087965915514728,0.03499802354857273
7.854368000000001,1.2208963851102748,0.032571717523634344
7.858951999999999,1.1307085709171985,0.0302029737097249
7.863555999999999,1.045017928962361,0.027836106483083604
7.86814,0.9589607328650865,0.025512908572118947
7.872744000000001,0.8800990123489951,0.023195699825948678
7.8773279999999986,0.8038134104617015,0.020883642697733303
7.881916,0.7292044927555581,0.018599449006283755
7.886520000000001,0.6587261931452167,0.016351653424623788
7.891112,0.5900467624301712,0.014086251920657974
7.895707999999999,0.5261088733816564,0.011769840630353025
7.900283999999999,0.4658041364638143,0.009425053419928008
7.904883999999999,0.4090971373365635,0.007083708876046476
7.909459999999999,0.35611006071404977,0.00470691643825058
7.914059999999999,0.3056991027203339,0.002372778976714053
7.918651999999998,0.26080693612665085,0.0
7.923248000000001,0.22245518009479412,0.0
7.927835999999999,0.1887227810153223,0.0
7.932427999999998,0.1584659350122962,0.0
7.9370319999999985,0.13282844596165502,0.0
7.941624000000001,0.10898982580630956,0.0
7.946216,0.0865835204038228,0.0
7.9508079999999985,0.06879657195372098,0.0
7.955396,0.052808492398914844,0.0
7.959979999999998,0.040540335348845796,0.0
7.964559999999999,0.02827217829877674,0.0
7.969144,0.018824509305796912,0.0
7.973735999999999,0.010276274760464936,0.0
7.97832,0.0037712785387200047,0.0
7.982911999999999,0.0009862048217121504,0.0
7.987492,0.0,0.0
7.992080000000001,0.0,0.0
