Time,Force,Position
6.632012,0.1980809553157166,0.0
6.636612,0.17248033685446382,0.0
6.641188,0.14867858728850677,0.0
6.645788,0.1278195104937846,0.0
6.65038,0.10863711788021244,0.0
6.654976,0.08818873667655541,0.0
6.659568,0.07146027797763548,0.0
6.664164,0.05947336094524613,0.0
6.668759999999999,0.04850806307465031,0.0
6.673352,0.035499526880467445,0.0
6.677944,0.025067109315082475,0.0
6.682535999999999,0.016555745359138865,0.0
6.687123999999999,0.010087619726782305,0.0
6.691711999999999,0.004641113256219267,0.0
6.696299999999999,0.0003384106615954235,0.0
6.700892,0.00033841066159542345,0.0
6.705484,0.001454071056693027,0.0
6.710072,0.002325362023499287,0.0
6.714668,0.003196652990305547,0.0
6.719256,0.0071328014424923755,0.0
6.723848,0.011313319322970548,0.0
6.728439999999999,0.011773914698711642,0.0
6.733027999999999,0.01247887950274408,0.0
6.73762,0.013061659592630849,0.0
6.742208,0.01658711245375251,0.0
6.746812,0.021256369190813366,0.0
6.751408,0.028990483413254792,0.0
6.755996,0.03905634683620275,0.0
6.760596,0.04777817840354833,0.0
6.765188,0.05663243431677836,0.0
6.769791999999999,0.07057112385382543,0.0
6.774379999999999,0.09674558114724417,0.0
6.778972,0.13311256787344758,0.0
6.78356,0.17746251954607475,0.008703503632769522
6.78816,0.2309392400410649,0.017152923830357325
6.792748,0.29140544980152683,0.025596016131890713
6.797348,0.361775678117854,0.03380940694313895
6.801931999999999,0.44025105609475057,0.042079829852228905
6.806528,0.5292855176468688,0.050219385106921574
6.811112,0.6224608369265281,0.05840713483517643
6.815704,0.7224753172766718,0.06666334457832043
6.820292,0.8350921195256245,0.07488517070429986
6.824888,0.9582680053497986,0.08297088696314722
6.829476,1.0923695288916313,0.09094232895876325
6.834068,1.2312669751803618,0.0989783744326653
6.838656,1.3759819633777832,0.1070879851451505
6.843244,1.5239383748550979,0.11526203319499209
6.847832,1.6775018606297016,0.12336054682056635
6.852423999999999,1.841736375061934,0.13129691781010597
6.85702,2.0127895713011736,0.13904260950649303
6.861608,2.183455734134498,0.14655021549620675
6.866199999999999,2.336856076668001,0.15416595182926876
6.87078,2.479120313872443,0.16172722824779692
6.875368,2.612746521111106,0.16058048196623909
6.879963999999999,2.739944262870348,0.15961079075174686
6.884551999999999,2.863411842493115,0.15854823205400118
6.889139999999999,2.975543088807158,0.15771034980060392
6.893735999999999,3.0782590554219182,0.1568349343540866
6.898323999999999,3.167962004546805,0.15613533911263955
6.902915999999999,3.252013737925774,0.155367400649348
6.907496,3.330536440272972,0.15451119626015117
6.912092,3.4027528618548954,0.1536311430322308
6.916672,3.461878222681428,0.15299473029263727
6.921272,3.5090563266285084,0.15252737158013085
6.92586,3.549150900076813,0.15200002128458998
6.93046,3.585637496102787,0.1513294410186276
6.935048,3.617005756688055,0.15061835963001763
6.939639999999999,3.642522573547743,0.14998225427884643
6.944232,3.6621879466818497,0.1494277968489826
6.948827999999999,3.676578897844216,0.14903179122967394
6.953412,3.686683144379744,0.14890642529632891
6.958008,3.7051708118210227,0.1486096934563333
6.962596,3.7282439343977964,0.14835122307252338
6.967179999999999,3.755858370661438,0.14805547745668776
6.971767999999999,3.7810630144590553,0.1478807761939266
6.976367999999999,3.805001669666588,0.14778048443015301
6.980955999999999,3.8325822041133395,0.1476657359030288
6.985536,3.865725671408753,0.14747983528733524
6.990128,3.907252559609916,0.14714839971707713
6.994716,3.9485350783827875,0.14684701075445356
6.999307999999999,3.9914942813368097,0.14652567911455439
7.0038920000000005,4.033554049843184,0.14623727436568662
7.008479999999999,4.082398598339676,0.1457510599282927
7.013083999999999,4.137539187969702,0.14512850923940906
7.017671999999999,4.192679777599729,0.14450660447246108
7.02228,4.242301575829723,0.1440222930011344
7.026868,4.292412112916299,0.1434906633788071
7.031456,4.3410903352500165,0.14296470910167822
7.036056,4.386048635078998,0.14254153543282722
7.040644,4.431006934907979,0.14212738312635992
7.045247999999999,4.475310169717602,0.1417028282419748
7.049828,4.517814535631931,0.14132945191488186
7.054428,4.5575764567546875,0.14095533855837092
7.059004,4.594229378943437,0.14061712574815471
7.063608,4.633414278312354,0.14017429188824618
7.068192,4.671289047642558,0.13972921033692148
7.072792,4.7070764372005485,0.13928745581036853
7.077375999999999,4.740776446986323,0.13885483276557078
7.081975999999999,4.767769720047497,0.1385280692985691
7.086568,4.792675613336456,0.1381967183109085
7.09116,4.81381744267205,0.1378891506316591
7.095748,4.833526957254786,0.13758562157381563
7.100344,4.846818245989841,0.1374150041681239
7.104932,4.851603929105,0.13736956349335197
7.109524,4.858022154952681,0.13724297900681465
7.114112,4.871591714932916,0.13692754798421436
7.118708,4.884506209893794,0.13660980811758439
7.123296,4.8981538131395475,0.13623039516414795
7.127891999999999,4.913189589689531,0.13579329945511776
7.132484,4.926793051486655,0.13535887157322493
7.137072,4.942806305749803,0.13484284136689306
7.141663999999999,4.960452102745473,0.13425654952479874
7.146251999999999,4.975643965826491,0.133694870241844
7.150843999999999,4.99054731803059,0.1330989867776577
7.155431999999999,5.002996736320037,0.13253373481204375
7.160019999999999,5.012625666552396,0.13202293682249905
7.164615999999999,5.022743335641335,0.13147453777353635
7.169203999999999,5.031306505263271,0.13093876188779532
7.173791999999999,5.042812347656443,0.13034148508554289
7.178395999999999,5.056239243659055,0.12970624312768533
7.182983999999999,5.073141692738113,0.1290292195455386
7.187579999999999,5.09172082599832,0.1283388626276109
7.192167999999999,5.1164296742292885,0.12751000455363112
7.196771999999999,5.1465351291461445,0.1265953438879294
7.201352,5.175252410758769,0.1257449554861707
7.205951999999998,5.198084346828925,0.12502709878732715
7.210531999999999,5.220916282899081,0.12431407854952173
7.215127999999998,5.242237860950861,0.1236668550288011
7.219711999999999,5.264214504021997,0.1230320291552562
7.224307999999999,5.2876234618459925,0.12240414995145833
7.228903999999998,5.311687484689344,0.12179311236718178
7.233496000000001,5.33166503088552,0.12127548824460437
7.238087999999999,5.354995945443998,0.12072806869261218
7.242683999999999,5.380414239774691,0.12019696924423251
7.247268,5.4062432296964475,0.11969391214608659
7.251863999999999,5.438612630180031,0.11909302936605613
7.25644,5.470371107092886,0.11854420274909727
7.261031999999998,5.502540279596808,0.11802358411239244
7.265624000000001,5.532177474920557,0.11758510311099
7.270200000000001,5.565290223320755,0.11711954833284692
7.274783999999999,5.595993179254927,0.1167271166541924
7.279372,5.626329581046663,0.11636608228390732
7.283959999999999,5.653112386496436,0.11610774160313848
7.288552000000001,5.681205321984922,0.11586857860218788
7.293135999999999,5.710974941654555,0.11561999233916642
7.297724,5.745363918276576,0.11531333858743859
7.302315999999999,5.780652329346244,0.11500070458899185
7.306904000000001,5.818883413187148,0.11464318274882103
7.3115,5.8590355506374925,0.11426474270371983
7.316091999999999,5.902374730287363,0.11383293187194365
7.320683999999998,5.9445701060612945,0.1134343674829227
7.325263999999999,5.987298362140437,0.11304773773987956
7.329859999999998,6.0321920412573125,0.11262660953986088
7.334448,6.072710732850093,0.11224595934110833
7.339039999999999,6.112329989995227,0.1118748618922522
7.343624,6.148229324635624,0.11155817492037788
7.348215999999999,6.18359577897081,0.1112280103908538
7.352807999999998,6.2221492755055205,0.11084425711547854
7.3574,6.263356933934549,0.11038892564472183
7.362004000000001,6.30223284316307,0.10994828630339189
7.3666,6.342985664552404,0.10944058350227347
7.371191999999999,6.382550540617171,0.10891431808447015
7.375784000000001,6.421826905805018,0.10835950946322963
7.380371999999999,6.4584830109154385,0.10778441122680908
7.384960000000001,6.49149723678664,0.10720152970945822
7.389543999999999,6.521280279009686,0.1066362944128582
7.394135999999998,6.550652625641669,0.10605503556827629
7.398732000000001,6.57781540778729,0.1054737698857622
7.403308000000001,6.6012141259795465,0.10489343082596131
7.407904,6.615862869123615,0.10437815019368825
7.41248,6.6308340249614925,0.1038011903027746
7.417067999999999,6.649070266264414,0.103124671324725
7.421676,6.6611326511479465,0.1024955270868947
7.426256,6.6758491979257935,0.10180031075025674
7.4308679999999985,6.691543222416807,0.10104835033431178
7.435452,6.701552129345012,0.10030650669991699
7.440039999999998,6.710250906234506,0.09954937491089673
7.444636000000001,6.710199708075812,0.0988482336332551
7.449219999999999,6.703974653497729,0.09818728414830992
7.453823999999999,6.692597361662051,0.0975521807560017
7.458412000000001,6.67426896367348,0.09695422282976923
7.463019999999998,6.654996989788635,0.09631586328252435
7.467599999999999,6.635558689741012,0.09563835098109494
7.4721959999999985,6.6143215207980965,0.09497132649406068
7.476775999999999,6.594105971016975,0.09428695156266395
7.481375999999999,6.572458106482994,0.09359077515146588
7.48596,6.547334688872566,0.09290955817445737
7.490551999999999,6.51861353347155,0.09224877278846724
7.495132,6.484007032528059,0.09164762719707435
7.499727999999999,6.451077215765723,0.091034739076293
7.504327999999999,6.412139868746769,0.0904905426388483
7.508916000000001,6.367072806757054,0.0900225313925915
7.513503999999999,6.3247040481102825,0.0895321711386176
7.518095999999998,6.284011973644662,0.08903289588148547
7.522684,6.242176095303102,0.0885492577300038
7.527275999999999,6.208312942276228,0.08801691421818332
7.531864000000001,6.177803157611652,0.08747423988311459
7.536455999999999,6.153467229366466,0.08689556325088513
7.541051999999999,6.135427342254815,0.08627514108683472
7.545640000000001,6.118697585181876,0.08566838593491675
7.550231999999999,6.106509141795806,0.08507617258139258
7.554807999999999,6.094897720163575,0.08454612643642805
7.559395999999998,6.081409386370531,0.08407892377913424
7.563992000000001,6.067432313720902,0.08363892671246263
7.568579999999999,6.0552982514152,0.0832356020058129
7.573168000000001,6.043452699986416,0.08286249781050699
7.577764,6.03945768915817,0.0824599822812377
7.582355999999999,6.040614915587521,0.08204185220427668
7.586947999999998,6.05358697455044,0.08155285991907678
7.591544000000001,6.075553377989837,0.0810214225674811
7.596144000000001,6.10320489899204,0.08049164170767302
7.600720000000001,6.137152461127779,0.07993015184020065
7.605307999999999,6.171755088282875,0.07938284602151427
7.609892,6.204847357419594,0.07888336575020255
7.614479999999999,6.242436798794552,0.07836943816482761
7.619068,6.280925674617159,0.07786335271157489
7.623659999999999,6.319170181011475,0.07737841376216185
7.628255999999999,6.359990806034587,0.07689665285880831
7.632848000000001,6.400444876915263,0.07644310588640921
7.637431999999999,6.449116042538915,0.07595550053978627
7.642024000000001,6.503794738419181,0.07542009673635877
7.646607999999999,6.562559910946622,0.07484963339322381
7.651200000000001,6.627743309321744,0.07425250782581452
7.655779999999998,6.698323314382753,0.07363930416653565
7.660368,6.769392058300346,0.07300719444559096
7.664959999999999,6.848022831941558,0.07234063663745946
7.669544,6.921134814182738,0.07171405496127942
7.674127999999998,6.997189469195153,0.07107939348141619
7.6787079999999985,7.071567440026417,0.07046293113498373
7.683292,7.1404266194576484,0.06988389428783627
7.687896,7.210263276602045,0.0692630399997033
7.6924839999999985,7.282265356784174,0.0686328955239724
7.697079999999998,7.354878360537032,0.06798055113771044
7.701676000000001,7.4261812342511755,0.0673130931689769
7.7062599999999986,7.492498196870499,0.0666896149169593
7.710868,7.552807629233206,0.06611581223905325
7.715459999999998,7.61066312768126,0.06554132561389076
7.720063999999999,7.664021453891076,0.06498402346136309
7.724639999999999,7.718767953405122,0.06440915569522053
7.729239999999999,7.765541727604483,0.06385485095676101
7.733828000000001,7.80769614485146,0.06332554716155794
7.738424,7.8461306395936985,0.06281518592505898
7.7430119999999985,7.8842766234590185,0.06228771510817131
7.747607999999998,7.9200908581238325,0.06175447791488054
7.752191999999999,7.955127843055143,0.061222402329748606
7.756783999999998,7.9770840068628015,0.06073651728624116
7.761383999999998,7.999162355384605,0.06024670674131521
7.765976,8.014700293344584,0.05978165364782438
7.770580000000001,8.022676201580941,0.05934542711411603
7.775176,8.02897542563615,0.05890725397722182
7.779767999999999,8.032987041939478,0.05849551269916106
7.784360000000001,8.028415009357396,0.05811749369922289
7.788943999999999,8.021310999595142,0.05777445206710126
7.793528,8.013840435690451,0.057446922841826585
7.798108000000001,8.007635860375846,0.05710172133924388
7.8027,8.005517761708415,0.05673072642472688
7.807291999999999,8.002255859165045,0.05637058655873929
7.811867999999999,8.000015575783467,0.05600388336125109
7.816460000000001,7.9956098693641575,0.05565713196786559
7.821047999999999,7.996722954344881,0.055300850997452244
7.825636000000001,7.99681442016381,0.05495154391276713
7.830236000000001,7.998949124306325,0.05459131315102544
7.834819999999999,7.991234190973343,0.05427509748791909
7.839415999999998,7.982375453764422,0.05397043696617839
7.844008,7.971473478231912,0.053677461025925244
7.848604,7.969032966870674,0.05336147181913347
7.853195999999999,7.964549217185845,0.0530566946020716
7.857788000000001,7.961742151682168,0.05275553374653149
7.862388000000001,7.960733955073787,0.05245139947801644
7.866964000000001,7.960625192913051,0.052146760801706854
7.871564000000001,7.957573757981083,0.05185330982118505
7.876147999999999,7.955299572782617,0.05156252425634462
7.880747999999999,7.955068625907737,0.051260286754689605
7.885327999999999,7.957780351804093,0.05094680897865203
7.889923999999999,7.955628351319772,0.0506497749368843
7.894503999999999,7.947713190007128,0.05037029414761605
7.899095999999998,7.941841267018069,0.050078787887876244
7.903695999999998,7.932005052095983,0.049803185177876214
7.908288000000001,7.916405676345572,0.04954391857524857
7.912875999999999,7.888258359776719,0.049323879766799195
7.91746,7.855369501541335,0.04911382775245915
7.922047999999998,7.815329309173399,0.048942065552429435
7.926647999999998,7.779009039310198,0.0487622727921905
7.931232,7.7359039894568795,0.04860400080900253
7.935808,7.6887124629563885,0.0484671369454238
7.940395999999998,7.634736156465777,0.04835190094798421
7.944984,7.579738230813376,0.048240612776644425
7.949575999999999,7.517178275437354,0.04814589506116414
7.95416,7.452697266451889,0.04805503385113165
7.958736,7.381187108048015,0.04799792036223921
