Time,Force,Position
9.30426,0.05038698639497344,0.0
9.308844,0.0525946924479792,0.0
9.313432000000002,0.05570183294863281,0.0
9.318016,0.05995277732522561,0.0
9.322608,0.06649132945369679,0.0
9.3272,0.06918777436328523,0.0
9.331788,0.07560414177761074,0.0
9.336396,0.0800994555824949,0.0
9.340984,0.08357315022558552,0.0
9.345592,0.0867160509764836,0.0
9.350184000000002,0.08703846367029246,0.0
9.354772,0.08417383416457508,0.0
9.359368,0.07795769472991276,0.0
9.363952,0.07264098974289829,0.0
9.368548,0.06642485030823596,0.0
9.373136000000002,0.061763210340577995,0.0
9.377732000000002,0.05697938565877436,0.0
9.382312,0.05321718013876425,0.0
9.386912000000002,0.04949725763402717,0.0
9.3915,0.045899519843435765,0.0
9.3961,0.047942758167022814,0.0
9.400684000000002,0.04998599649060985,0.0
9.40528,0.049086562042962,0.0
9.409876,0.04692113900522928,0.0
9.414468,0.041446489053824656,0.0
9.419068,0.039813946321302786,0.0
9.423660000000002,0.03339757890697727,0.0
9.42824,0.028902265102093122,0.0
9.432824,0.0254285704590025,0.0
9.437412000000002,0.022077060530057556,0.0
9.442008,0.020646604210553976,0.0
9.446596,0.019338332605196074,0.0
9.451192,0.019338332605196074,0.0
9.455776,0.019338332605196074,0.0
9.46036,0.019338332605196074,0.0
9.464956,0.019338332605196074,0.0
9.469544,0.019338332605196074,0.0
9.474132,0.019338332605196074,0.0
9.478728,0.019051680161631696,0.0
9.483316000000002,0.016721789394480265,0.0
9.487908,0.010671976122591763,0.0
9.4925,0.00642103174599896,0.0
9.497088000000002,0.004213325692993205,0.0
9.50168,0.0021278043541331213,0.0
9.506276,0.0010639021770665607,0.0
9.510868000000002,0.0,0.0
9.515448,0.0,0.0
9.520044000000002,0.0,0.0
9.524624,0.0,0.0
9.529224,0.0,0.0
9.533820000000002,0.0014170337660917773,0.0
9.538412,0.014747422594746378,0.0
9.543008,0.04477684960112256,0.0
9.5476,0.08892919615642245,0.0103574448290677
9.552196000000002,0.15116875419367445,0.019612707556519827
9.556792000000002,0.22507729786519792,0.028833248123992093
9.56138,0.30910032770398854,0.03810445374575504
9.565972000000002,0.40119460538645924,0.04761424001394071
9.570548000000002,0.5053685642942666,0.05712321145786636
9.575136,0.6257086810745844,0.0663205550757429
9.579724000000002,0.7622149557274132,0.07528008175496276
9.584316,0.9112896504621615,0.08420596058196939
9.588908,1.075875438050064,0.09296180440759959
9.593496000000002,1.2567495682246226,0.10156176197073168
9.598092,1.4510915529287485,0.11013046464328569
9.60268,1.6576354035723568,0.11874001253588558
9.607272000000002,1.881244846536125,0.12722189568760045
9.61186,2.1221642512483423,0.13557078537677805
9.616448000000002,2.3757301193079963,0.1438622968119927
9.621044,2.6398109294942445,0.15205391871215507
9.625632,2.9090592579248566,0.1601432859675145
9.63022,3.169825642920724,0.16811560163951092
9.634816,3.41139491437559,0.1760698243559008
9.639416,3.634177767880518,0.17371661025453947
9.64402,3.8362531498260677,0.17245779780364318
9.648596,4.029558077459953,0.17110249892987436
9.653200000000002,4.211438388887859,0.16969198320324708
9.657788,4.3840595071475175,0.1680278647689113
9.662388,4.54570060660915,0.16627116576580409
9.666976000000002,4.690354157016142,0.1647795031694542
9.671576000000002,4.813645170844398,0.16355929452017964
9.676168,4.921747504513309,0.16236203825135737
9.680752000000002,5.009797431642199,0.16137262905709246
9.685332,5.078161506373505,0.16053669590527767
9.689924,5.132480704821404,0.15966029879436802
9.694512,5.176186438613714,0.1586007344081896
9.6991,5.199551254989081,0.15765240220355375
9.703676000000002,5.201064795929132,0.15687281272289416
9.708264,5.189110482339617,0.15609887912363474
9.71284,5.165331096584794,0.15541790283538728
9.717436,5.133534844066656,0.1548435458982858
9.72202,5.095853246006048,0.15442163737688835
9.7266,5.060914092737012,0.15399481528334882
9.731192,5.030105557563776,0.1535029677163862
9.735780000000002,5.000118413572672,0.15305815422789232
9.740364,4.967354922973106,0.1527329370054938
9.744964,4.939743669631136,0.15231181480389772
9.749552,4.919205707156204,0.151749938807553
9.754152,4.894869778911016,0.15133604062394101
9.758736,4.87237686100975,0.15093929457572464
9.763332000000002,4.855613202119921,0.15052398120014757
9.767936,4.842124868326873,0.15012330157782272
9.772536000000002,4.834610162973553,0.14968162408530222
9.777128,4.831680912755727,0.1492610862565851
9.781716,4.83051662961631,0.14893081692465923
9.78632,4.8271530216222684,0.14879753741784135
9.790908000000002,4.833116410430255,0.1485771894109694
9.795508000000002,4.84889553489685,0.1482288176950172
9.800096,4.870159548946588,0.14789439693711026
9.804696,4.897519376150196,0.14752046716488892
9.80928,4.92929833232653,0.14712855416217854
9.813872,4.9674174710850245,0.14667248973548355
9.818464000000002,5.0073796201874465,0.14624183165345758
9.823060000000002,5.054459201605534,0.14575392038042875
9.827648,5.1110660078053085,0.14512546781624394
9.832244,5.17196975826366,0.14449762648260686
9.836836000000002,5.232673280742349,0.1439642695808374
9.841428,5.292932205813083,0.14355426223081164
9.846016000000002,5.361452367075423,0.14304988202530833
9.850604,5.431571169253397,0.14259132783926587
9.855192,5.5047989703653775,0.142112769356816
9.859776,5.582934639306663,0.14159243405693028
9.864372,5.665078741629603,0.14104675945092485
9.868952,5.750043332009633,0.14045462813959758
9.873548,5.835785172123167,0.13985596412660983
9.878124,5.925124750027293,0.13919498652638396
9.882712,6.009478416836595,0.13866097476547953
9.887308,6.090400672018081,0.13823863370520115
9.891892000000002,6.167192309103763,0.13786564714244862
9.896488000000002,6.243451065884234,0.13749672642501096
9.90108,6.318932572931202,0.13713772254371237
9.90568,6.393103949939459,0.13678122782751878
9.91028,6.468907869680236,0.136370597745903
9.914868000000002,6.539803921591708,0.13601784951015417
9.919472,6.600928379293199,0.13580307588146628
9.924052,6.655957023840818,0.13561395161184833
9.928652,6.707465973863364,0.13542332113241376
9.93324,6.749159188227301,0.13531363007918337
9.93784,6.786922012475099,0.13518712824030324
9.942420000000002,6.819977196873256,0.13503998322128333
9.947016,6.850001425602922,0.13485995944399784
9.9516,6.875318014482946,0.1346650590764731
9.956196000000002,6.893228660170386,0.13448629307477547
9.960788,6.904021873542161,0.13434896502902732
9.96538,6.910884696797796,0.1341870520621882
9.96998,6.916515433280235,0.13396835823952258
9.974572000000002,6.920014648541832,0.1337022918665701
9.97916,6.92150452729673,0.1333819715817889
9.983756,6.922295199583646,0.13301517649666533
9.988332,6.916867874002541,0.1326771383352319
9.992912,6.909309027200594,0.132292419212081
9.997496000000002,6.897086681997633,0.13192753731711743
10.002092,6.881877522574811,0.13156851257062832
10.00668,6.866091341398148,0.1311554318391246
10.011268,6.852304257096445,0.13066285774325473
10.015856,6.841826399708414,0.13010035894651853
10.020448000000002,6.831304400871755,0.1294952270726646
10.025036,6.826912117005857,0.12877965417480647
10.029644,6.814713433988048,0.12818159010932373
10.034232,6.805335239027328,0.12754235309002346
10.038824000000002,6.794158175171312,0.12692269373857415
10.04342,6.780693503563419,0.1263525860298461
10.048008,6.770826569746116,0.12573967847103532
10.052600000000002,6.76492392786184,0.1250603488244922
10.057192,6.7609423395870065,0.12435046412270595
10.061788,6.749276536874407,0.12374870831783377
10.066376000000002,6.738510168609459,0.12313459180687518
10.070964,6.724923312287418,0.12255529939506613
10.075552000000002,6.707372164032349,0.1220362249988971
10.080152000000002,6.6867561582919,0.12156679995596377
10.084748,6.66565141369487,0.12112599410460947
10.08934,6.644546669097838,0.1206818418860593
10.093932000000002,6.618211643977692,0.1203346291946627
10.098524,6.587301403353791,0.12008953796899459
10.103124,6.553081935816217,0.11991335022082326
10.107716,6.513343676878609,0.11980471067155571
10.112316,6.472872309656129,0.11974019629275731
10.116916,6.4271706619105355,0.11977335550859919
10.121508000000002,6.389808293622062,0.11969780959263282
10.1261,6.352612251496363,0.1196567626575784
10.130688,6.31966901218061,0.1195764148426809
10.135272,6.289179706779509,0.11948031014983211
10.139860000000002,6.257057858645887,0.11943939604437337
10.144452,6.223836348084954,0.11946787229113479
10.149044,6.1932350976014465,0.11951626950253004
10.153636000000002,6.173959940794925,0.1194595041499719
10.158232000000002,6.15448455600874,0.11946333269981627
10.16282,6.142370972966511,0.11942516532437099
10.167404,6.140806233867766,0.1192860161764534
10.172,6.1515892076078,0.1190290759305335
10.176588,6.164459561120047,0.11878346312059224
10.181196,6.183015032195104,0.11851211700658562
10.18578,6.209909782727281,0.1181402537301994
10.190364,6.242078955231198,0.11771771458830003
10.194948,6.282220853049802,0.11722015907520911
10.199544,6.330623987060011,0.11667688698774831
10.20414,6.382380489432518,0.11611571462347946
10.20872,6.440555217652706,0.11548134390824251
10.213316,6.501428249215841,0.1148359953290001
10.217904,6.563445084654916,0.11417307089854943
10.222504,6.623418681770405,0.11355355054660972
10.227092,6.681715594704741,0.1129467109828462
10.231688000000002,6.741278496229165,0.11231229982310238
10.23628,6.803251190219613,0.11162671739740418
10.240876,6.864691003904849,0.11093690225923307
10.24546,6.920201330598988,0.11029555840984048
10.250056,6.975423146416206,0.10962352796523801
10.254644,7.023938225508824,0.10899441883499145
10.259236,7.064480579286759,0.10844156611668478
10.263824,7.099093446073595,0.1079366015174546
10.268412,7.133662171411802,0.10739513540750532
10.273,7.162956474778269,0.10689610054468456
10.277588000000002,7.185954737011199,0.10645368814253411
10.282184,7.2077650539195615,0.10599464089012194
10.286764000000002,7.2254447527321215,0.10555768748436219
10.29136,7.239360387591318,0.10512074877159361
10.295936,7.24746872017356,0.10470752298518718
10.300528,7.2540225532888,0.10429826085277451
10.305112,7.250560422765765,0.10397423794474599
10.3097,7.242068239699281,0.10367162179926544
10.3143,7.2334097304700204,0.1033352592507275
10.318888,7.225117775383198,0.10297763975860835
10.323472,7.212328648058135,0.10265349904271957
10.328068000000002,7.196186152370773,0.10234266424247765
10.332656,7.1751357888541065,0.10204422522255174
10.33726,7.1544519794798775,0.10172368240888131
10.341836,7.1354007128381705,0.10135411188786586
10.346436,7.1186370539483415,0.10094170279063072
10.351024,7.099541645858006,0.1005256032469993
10.355620000000002,7.077870119138873,0.10012114735327284
10.360204,7.053255919648505,0.09974824773243306
10.364804,7.0303964476048035,0.09931866685371633
10.369396000000002,7.008025714417685,0.09885834083307221
10.373988,6.982834493173479,0.0984219044517258
10.37858,6.953923349424536,0.09801572192243425
10.383172000000002,6.922968967352005,0.09763396692976925
10.38776,6.900353864736596,0.09717951590957848
10.392356,6.87593989322589,0.09673637218396555
10.39694,6.860109570600603,0.09620763100424438
10.401528,6.85135253884235,0.0956362510326942
10.406116,6.841085149065721,0.09510453707924096
10.410712,6.835192746813186,0.09455175465102576
10.415300000000002,6.8398050470555045,0.09390419691412905
10.419892,6.846871281212477,0.09325327365720106
10.424488,6.8606442520940485,0.09258527660252161
10.429076000000002,6.8796916449473615,0.09189729462231648
10.433668,6.900704232858743,0.09123867774251787
10.438256,6.924703634989988,0.09059639702305604
10.442848,6.95745301216942,0.08991745933897269
10.447444,6.992656323263505,0.08923824670309959
10.452032,7.032234621881683,0.08854404375804016
10.456644,7.0776202227768135,0.08785216369081493
10.461228000000002,7.129834745110691,0.08714739393324114
10.465828000000002,7.1863020702545155,0.08643337503827471
10.47042,7.25315191317905,0.08565097916148445
10.475008,7.322700059446527,0.08485714106667017
10.479604000000002,7.38648504488568,0.08412248883041419
10.484184,7.454889387277217,0.08336873957159172
10.488776,7.522804990812173,0.08265344799636297
10.493364,7.590720594347128,0.08195345821305249
10.497964,7.661212316510881,0.08125018175650339
10.502552,7.731581853960488,0.08056738185337481
10.507152,7.793778438115748,0.07997635792273725
10.511748,7.860716563937537,0.07936594612114377
10.516348,7.927121809454116,0.07875294105456312
10.520928,7.988663328590018,0.0781844664635566
10.525524,8.049549782706565,0.07761575288226032
10.530112,8.112601659860843,0.07703397929286693
10.534708000000002,8.17602009115756,0.07644909140970949
10.539296,8.24238119522551,0.07585214048244845
10.543892,8.311807156778842,0.07524234831174127
10.54848,8.374692707770347,0.07467221140751516
10.553064,8.436023759294848,0.0741075698693883
10.557656,8.502585091342462,0.07350903949629134
10.562248,8.566203750618842,0.07294394124385793
10.566832000000002,8.63378670182825,0.072361864142724
10.57142,8.703290706647099,0.07177295846910593
10.57602,8.77165090759001,0.07120626582706305
10.5806,8.841643651265441,0.07061681358993177
10.585192,8.90636197296913,0.07004191051758883
10.589788000000002,8.973856641281282,0.06943143470947649
10.594376,9.038242310659424,0.06881729805382754
10.598984000000002,9.10618157637953,0.06816601281799439
10.603564000000002,9.166925366518452,0.06753874207361629
10.608156,9.223171984419135,0.06692615395080141
10.612748,9.280928960338196,0.06629145978240396
10.617340000000002,9.337131436790251,0.06565617954065565
10.621940000000002,9.387937306556417,0.06503832937807819
10.626536000000002,9.432324950474907,0.06444311078206262
10.631128,9.473114856602804,0.06386013082120585
10.635716000000002,9.50466604882593,0.06330641737030558
10.640312000000002,9.53784978378158,0.0627246547153225
10.644892000000002,9.569479019270224,0.06214180532808058
10.649496,9.590603552264012,0.061601820599271
10.654084,9.604410424962474,0.06107870235933302
10.658684,9.611021822079751,0.06056836089633376
10.663276,9.61620090444417,0.06004774110795733
10.667872,9.616472118979287,0.059516694052046334
10.672468000000002,9.607015880753048,0.05902393203059542
10.67706,9.6003801305839,0.058523152770658234
10.681664,9.586959600424636,0.05804846393392293
10.68626,9.570596397494134,0.057584354409923925
10.690852,9.550513272058895,0.057128075586263545
10.695444000000002,9.534394438556685,0.0566544576285065
10.700036,9.522117712273358,0.056168535140359674
10.704616,9.504977259609355,0.05569849017615322
10.709196000000002,9.484116884440615,0.055233745609714856
10.713788,9.46145764037658,0.05476819381873182
10.71838,9.437898961864894,0.05430062329927549
10.722956,9.407799872791383,0.05384272901402888
10.72754,9.376801349270227,0.05338086481564433
10.732128,9.34134979495946,0.052950587697437
10.736716,9.300912329553869,0.05253860792386667
10.741316,9.258675995252982,0.05212279630796355
10.745896000000002,9.213619172895006,0.05170749246471433
10.750488,9.16627474278515,0.051307192806921954
10.75508,9.116276150780982,0.050937711621657
10.75968,9.062723962434847,0.050597779654593854
10.764284,9.011092827698157,0.05024796107040389
10.76888,8.949734240200115,0.04992583692222722
10.773476000000002,8.884044806626603,0.04962972718097774
10.778056,8.81402452697763,0.049359983208140265
10.782644,8.739673401253187,0.04911664115874391
10.787224000000002,8.654206649463164,0.048921510203534836
10.791824000000002,8.556847021874054,0.04877019516224084
10.79642,8.457321971247213,0.04863027317247942
10.801016,8.359229235373231,0.04850052858188491
10.805612,8.255006784528485,0.04839880049567223
10.810204,8.145309683732338,0.04833749407132699
10.814812,8.03782214742255,0.04829519564749353
10.819408,7.927802633932593,0.04828381594884845
10.823996,7.815862066833195,0.048277442148898966
10.828588,7.700734457534271,0.048292177480770415
10.833168,7.589859651045293,0.048314501279985184
10.83776,7.479273355433235,0.04836486833350871
10.84234,7.37114099373583,0.048425240082680336
10.846932,7.264274620628511,0.048466153273211354
10.851524,7.160228735578278,0.04850075199547888
10.8561,7.055694111671465,0.048557559764524486
10.860696,6.955534475288744,0.048621922660385064
10.865272,6.860116380572554,0.04867472109342303
10.869856000000002,6.767518773913454,0.048722881849849395
10.87444,6.673532993950123,0.048800395526997026
10.87902,6.585066005386824,0.04887483353259851
10.88362,6.502362177651849,0.048931582584555655
10.888212,6.4221122838315265,0.049001774367065556
10.8928,6.337775913364032,0.04909994160983921
10.897396,6.260757203191864,0.04919247101827323
10.901988,6.1905232730098145,0.04925963571408401
10.906592,6.12347638502729,0.049298149071483506
10.911180000000002,6.064113711482533,0.04930843297517995
10.915780000000002,6.008593145156658,0.04930325302047672
10.920364,5.954749263011932,0.04930675810630894
10.924964,5.897429827790761,0.04930196511974851
10.929552,5.844074684502617,0.049275754038168244
10.934152,5.785977999547945,0.0492661292896644
10.938744,5.722773218784304,0.04929375272008989
10.943336000000002,5.659568438020663,0.049320091868052716
10.947924,5.598529080294754,0.04932298897254382
10.95252,5.540432395340081,0.049310330241843524
10.957116,5.478493603166524,0.049313677454241145
10.961708000000002,5.4194974837642045,0.04929945191703992
10.966288000000002,5.365853829599142,0.04923020187822578
10.970872,5.312698914290662,0.049127027626554416
10.975460000000002,5.261098498449186,0.04903868562722595
10.980052,5.208598648160063,0.048951047618070634
10.984652,5.154299928975645,0.04886519392694109
10.989248,5.095626222267133,0.04876999334141908
10.993840000000002,5.031311539444442,0.04869194359460604
10.998416,4.960089891917487,0.04865695929840778
11.003012000000002,4.8833494529905,0.04862776856694421
11.0076,4.805465210187574,0.04861365604635794
11.01218,4.728846955974734,0.04857344655420495
11.01678,4.649941094010014,0.048570395872125055
11.02136,4.567193124826412,0.04858741326458314
11.025948,4.484811709785247,0.048577709945453115
11.030540000000002,4.4035740986200205,0.04855159788235223
11.035140000000002,4.319393814683559,0.04854699021348275
11.039744,4.231371423528215,0.048560664297405264
11.044344,4.132966514592162,0.04862851253034703
11.048936,4.034805975084401,0.0486765204316435
11.053528,3.9308822747483156,0.04876098094777778
11.05812,3.822994282479202,0.0488758390428705
11.062708,3.7099981944011207,0.049056787792038904
11.067308,3.591972053779589,0.0492037171407733
11.071896,3.4705925447957573,0.049331973246402476
11.076496,3.3540767621926015,0.04942589828109939
11.081092000000002,3.239237663770596,0.04953257826461944
11.085688,3.126563988386323,0.049593363037310684
11.090272,3.017732420220933,0.04963624507108436
11.094868000000002,2.905835994570162,0.049740787250552906
11.099476,2.791363450290593,0.049828929614088205
11.104072000000002,2.6740704179539354,0.04993641134779676
11.10866,2.559720058388513,0.050027276898489105
11.113256,2.442793580194292,0.05012135006178819
11.117844000000002,2.3284432206288694,0.05023345994294154
11.122436,2.217157718548828,0.05024978189339349
11.127024000000002,2.105872216468785,0.05029488378170623
11.131604,1.991644041617508,0.050441887781761736
11.1362,1.8862438850799361,0.05041827554485842
11.140796000000002,1.7816209782758656,0.050414155501527634
11.145392,1.6750770178623542,0.04789729643900785
11.14998,1.568410872734697,0.04537571949076623
11.154572000000002,1.465709019540068,0.04281410510373037
11.159148000000002,1.3662383499935935,0.04027787887447946
11.163736,1.2729415368665082,0.03775156193285389
11.16834,1.1797669084535687,0.035241187326771
11.172928,1.087369529774131,0.03272707373619713
11.177524000000002,0.9975482697234914,0.03024889549741865
11.182104,0.9059281407775563,0.02776784945650206
11.186700000000002,0.8191717382122974,0.025234576649483653
11.191304,0.7328260312381036,0.0227173052671767
11.195892,0.6525677562193981,0.020190759742288258
11.200488,0.5759072189912839,0.017658230754661254
11.205068,0.5073415917920002,0.015109943136365859
11.209668,0.44237370238330814,0.012553391161262726
11.214244,0.3797375621751225,0.010091218647653413
11.218848,0.3226202133669697,0.007586304302849104
