Time,Force,Position
9.631156,0.0033564393497629717,0.0
9.635756,0.0034968948408524857,0.0
9.640344,0.0035151656177963278,0.0
9.644944,0.0035151656177963278,0.0
9.649536,0.0022309062507676197,0.0
9.654124,0.0008244621695932396,0.0
9.658728,0.00031745253606671166,0.0
9.66332,0.00031745253606671166,0.0
9.667924,0.00031745253606671166,0.0
9.6725,0.002623331064888943,0.0
9.6771,0.006605893774861204,0.0
9.681688,0.01083282591312481,0.0
9.686284,0.013138704441947039,0.0
9.690872,0.016466202132562793,0.0
9.695472,0.024657426203854818,0.0
9.700056,0.03783456136996878,0.0
9.704652,0.0471695893172,0.0
9.709244000000002,0.05955120397286794,0.0
9.713836,0.07015222051018402,0.0
9.718424,0.08063105233335444,0.0
9.723020000000002,0.09084724395128967,0.0
9.727608,0.10016400112157706,0.0
9.732204,0.11050237745365796,0.0
9.736796000000002,0.11971522068674349,0.0
9.741392,0.12892806391982903,0.0
9.74598,0.14186082965765168,0.0
9.750568,0.15581521455726782,0.0
9.755152,0.17054684919038615,0.0
9.75974,0.18617791827115232,0.0
9.764323999999998,0.1987258590895941,0.0
9.768912,0.20779824683159012,0.0
9.773488,0.2156046459835013,0.0
9.778084,0.22533209874485385,0.0
9.782672000000002,0.2342823017727042,0.0
9.787256,0.2354261056486434,0.0
9.791864,0.2285191409443801,0.0
9.796448000000002,0.22467703372549735,0.0
9.801052,0.21674844985944053,0.0
9.805628,0.20971930044103154,0.0
9.810224000000002,0.19924046861786113,0.0
9.814812,0.1888838215088364,0.0
9.819408,0.1794266088474595,0.0
9.823992,0.16906996173843472,0.0
9.828592,0.1598571185053492,0.0
9.833176000000002,0.15064427527226362,0.0
9.837768,0.137711509534441,0.0
9.842364,0.12375712463482486,0.0
9.846956,0.10902549000170653,0.0
9.851548,0.09339442092094034,0.0
9.856144,0.07854060157367634,0.0
9.860732,0.06548565112170805,0.0
9.865316,0.05345231983153327,0.0
9.869904000000002,0.0414189885413585,0.0
9.874492,0.029141287822892385,0.0
9.879084,0.019806259875661165,0.0
9.883672,0.014287468475628387,0.0
9.888255999999998,0.008794547747279915,0.0
9.892844,0.004323246180724967,0.0
9.897431999999998,0.0007513790618178709,0.0
9.902016,0.0007513790618178709,0.0
9.906604000000002,0.0007513790618178709,0.0
9.911212,0.0007513790618178709,0.0
9.915796,0.0026465619995749354,0.0
9.920384,0.005441179384979851,0.0
9.924976,0.011178469541619664,0.0
9.929564,0.017937378860053,0.0
9.934168,0.023185930160110127,0.0
9.938759999999998,0.030688187395156274,0.0
9.943364,0.042453487071889125,0.0
9.947952,0.06277877344888473,0.0
9.952548,0.09591684933609103,0.0
9.957135999999998,0.14391095305709503,0.008250100193160846
9.96174,0.201242293211864,0.016788477691082004
9.966328,0.2682774239428349,0.025406013603309952
9.970928,0.3489806371830362,0.03369651847441154
9.97552,0.4358157738805324,0.042288684128355306
9.980112000000002,0.5355600141307006,0.05081841840096464
9.9847,0.6501602822146665,0.059156088611242906
9.989296,0.7778177092371344,0.06742737424056108
9.99388,0.9204533488075458,0.0755515612177832
9.998476,1.0734478439735158,0.08373954889541123
10.00306,1.239743867506279,0.09185465103131057
10.007656,1.4170796823256413,0.09995425906284065
10.012239999999998,1.607472656083506,0.10799955021357918
10.016832,1.8087573657421407,0.1160112582461528
10.02142,2.020933811301545,0.1240521407141211
10.026004,2.247267078226762,0.13204701799557803
10.030588000000002,2.4805955927534984,0.14000080109070667
10.03518,2.7183329966212195,0.14784540354319367
10.039768,2.95020871713162,0.1556317439269916
10.04436,3.170293267293603,0.16338808423022583
10.048948,3.377320658517084,0.16285653512221132
10.053552,3.5787307358115372,0.1619521413753308
10.058140000000002,3.7699482836732057,0.16101091317368016
10.062748,3.9488078790643595,0.1604023326365167
10.067336,4.124015355584554,0.1594510282892248
10.071924,4.29054066069034,0.158501595437248
10.07652,4.443109372409977,0.15772678376926713
10.0811,4.582498740476966,0.15702855668695165
10.0857,4.7087087648913055,0.1564428085314175
10.09028,4.824071194853506,0.15583381603300128
10.09488,4.928341660935273,0.15528634897576898
10.099456,5.018533348916746,0.15479185515280938
10.104056,5.094768443512068,0.15435167821064133
10.108636,5.15729131414953,0.1539349597585628
10.113232,5.207900829724431,0.1534890668710896
10.117808,5.249705989170776,0.15300084563877825
10.122404,5.283039444814115,0.15254687253062835
10.127,5.3114208911795195,0.15212626655805445
10.131588,5.33800346864963,0.15174771076001503
10.136176,5.3644638614055955,0.15138304742025754
10.14076,5.389125385266265,0.15105617329858795
10.14534,5.408145933012756,0.15085593146450452
10.149932,5.430475707672919,0.15055529636423376
10.154524,5.453538590617954,0.15019825553452
10.1591,5.473370289914834,0.14988227773209253
10.1637,5.488171936668265,0.1496392101577426
10.168276,5.505261191173575,0.14932876835608094
10.172864,5.523616434268968,0.14897400913435552
10.177468,5.5405393626115025,0.14862571631281724
10.182056,5.5581953992389135,0.14821813834066416
10.186648000000002,5.572087371912956,0.14783328508820648
10.191236,5.589410756214819,0.1473435932390215
10.195824000000002,5.606079075497323,0.14685006921887875
10.200424000000002,5.623646829227478,0.14634261180612113
10.205024000000002,5.6455454290330955,0.14572239587061545
10.209616,5.661925237438682,0.14520976723750945
10.214196,5.679448849720206,0.14466654691099592
10.218796,5.688755367258755,0.1442705074553201
10.223384,5.6965073853303,0.1438866537095745
10.22798,5.701927654201338,0.14352011930405612
10.232564,5.7050161738718685,0.14316952733517882
10.237164,5.7093706821324846,0.1427728116443486
10.241756,5.711393441192594,0.14239652080381318
10.246348,5.711739516071553,0.1420428710634511
10.25094,5.713351579540598,0.14164676688996022
10.255532,5.718561380800233,0.1411913613121088
10.260124,5.716086967622102,0.14089231642923475
10.264708,5.71373473915812,0.1405848362399675
10.269288,5.712281945141783,0.14026333560776444
10.273872,5.712750204734887,0.13990486243859176
10.278464,5.716161137099228,0.13948465802386192
10.283048,5.7166293966923325,0.13912719114074465
10.287632,5.717874906018941,0.1387644189483683
10.292208,5.72128583838328,0.13834917172439193
10.296792,5.717545436615066,0.13809585020199855
10.301384,5.7156039037421476,0.13781416844018782
10.30596,5.71390674029752,0.13751606432276425
10.310568,5.7206710410241595,0.1370677900698592
10.315152,5.727190972322509,0.13663637303384882
10.31974,5.736042652821364,0.1361909132472227
10.324332000000002,5.74992438586367,0.13569148476075343
10.328932000000002,5.766382237534772,0.1351624513669651
10.333536,5.7842724039587345,0.1346378291745094
10.338124,5.803839254563846,0.13409999323944466
10.34272,5.825082789350106,0.13355204666648277
10.347308000000002,5.844405270526927,0.13304261063305856
10.351904,5.87206703116087,0.1323987705649715
10.356496,5.897685553471224,0.13180054955468326
10.361088,5.923059706353288,0.13122483394469828
10.365672,5.944591752016469,0.13071922120838506
10.370264,5.963836189927772,0.13027542115678303
10.374844,5.985901115896165,0.1297884975548913
10.379436000000002,6.011930333797586,0.1292335028510351
10.384024,6.030275337261241,0.12881029366381672
10.38862,6.052462447943778,0.12831847105329644
10.393208,6.075793362502256,0.12779999058635705
10.397792,6.0951599851277045,0.12735743654366358
10.40238,6.108885631638974,0.12700768279001276
10.406972,6.12555395092148,0.12660631093935393
10.411556,6.141567205184629,0.126201276328892
10.416132,6.1530832872095385,0.1258563071818792
10.420724,6.161656696463213,0.12556444733413125
10.4253,6.1710073554503895,0.1252725795618411
10.429888000000002,6.1761493530762435,0.12506911075072494
10.434492,6.180147546826162,0.12489593978623977
10.43908,6.18570024004308,0.12471741273852234
10.443688000000002,6.1872886413269725,0.12460996584409205
10.448272,6.191330976525518,0.12448575449326801
10.45286,6.193862953705686,0.12441395666862086
10.457452,6.202446602591096,0.12428155147856226
10.462040000000002,6.214505804552955,0.12411378165353579
10.466644,6.225831898229936,0.12399657958806232
10.471224,6.233726580279102,0.12396195948787798
10.475824,6.250615606804748,0.12382017698403687
10.480408,6.269303502225688,0.1236596397706935
10.485008,6.289301527685343,0.12351263698322798
10.489596,6.312897290935588,0.12332385959042917
10.494192000000002,6.340090791976426,0.12309402160745457
10.498788,6.365241054693676,0.12290297068881752
10.50338,6.392190186306222,0.12269415096056552
10.507972,6.425924097908885,0.12238679261480571
10.512568000000002,6.463866670872869,0.12200349494963747
10.517156,6.4965348218651116,0.12167315413846597
10.521748,6.5307133308757335,0.12129014919886255
10.526336,6.561660656238199,0.12092547413399722
10.530924,6.59052060182845,0.12055413384852781
10.535516,6.61807041737999,0.12017051185720168
10.5401,6.643288483731021,0.1197948295460006
10.544684,6.669361843081072,0.1193641430921602
10.54926,6.688728465706523,0.11898451138931534
10.553856,6.704863904683818,0.1186229495613044
10.558432,6.720055767764839,0.11822869987925694
10.563024,6.732138631911848,0.11784125836663459
10.567612,6.736248770744174,0.11753491757986079
10.5722,6.733940683728818,0.1173042900942764
10.576784,6.725458740294072,0.11713424136672584
10.581376,6.7156666668206135,0.11695273541649663
10.585972000000002,6.70239904027071,0.11680193629272309
10.590576,6.690519587025035,0.11661038945505234
10.595164,6.6779850687600035,0.11641270625946731
10.599764,6.658010705485497,0.1163042012336518
10.60436,6.637259092477487,0.11619479905190623
10.608952,6.620349586688361,0.11603347204162713
10.61354,6.605483319222823,0.11583819350321141
10.618136,6.590494867043138,0.11564952648553008
10.622716,6.574362610987515,0.1154840211352074
10.627316,6.560928658274835,0.11529058215769844
10.631908,6.54851632472395,0.11507998015042425
10.636500000000002,6.537247795049002,0.11484484445349097
10.641092,6.53059862232644,0.11455751283510236
10.645688,6.527014307089258,0.11422189899484883
10.650284,6.5203651343666955,0.11393370071113149
10.65488,6.516536449701222,0.11361084843696416
10.65946,6.51937036031172,0.1132044269511048
10.664044,6.529233420340629,0.11269255463651223
10.668636,6.5476801292549505,0.1120750014473157
10.673224,6.5628176112556,0.11151864680746576
10.677812,6.581308461618549,0.11094336111663537
10.682408,6.601353811448503,0.11037195882322261
10.687,6.619766618545937,0.10985518969374385
10.691580000000002,6.643453847615112,0.10929640900315882
10.696172,6.665508533951765,0.10879472692244146
10.70076,6.689117719755423,0.10829646265729143
10.705336,6.716080273921381,0.107788523966845
10.709948,6.745496762001991,0.10727095434834559
10.714536,6.781087106501991,0.10670968235267074
10.719136,6.816310896859553,0.10617367546011276
10.723728,6.854110805845913,0.10562728139535495
10.728316,6.893998094604488,0.1051016304150024
10.732907999999998,6.935317698115922,0.10459127701437969
10.737496,6.973983139733042,0.10414807026107169
10.742092,7.0230310991308675,0.10360573758036344
10.74668,7.077597849928729,0.10302531287641131
10.75128,7.130898612136505,0.10248155464407467
10.755868,7.18334408134526,0.10199486710626712
10.760468,7.231048008887486,0.10156321202367016
10.765048,7.285658901133975,0.10105495847189606
10.769648,7.342557401132342,0.1005163854253051
10.774232,7.398556466683061,0.09999222358639463
10.778824,7.45631025968045,0.09941897650631314
10.783411999999998,7.515574410696211,0.09881966812937089
10.788008,7.577370538892145,0.09817698752465605
10.792608,7.636834917887572,0.09754000620222178
10.7972,7.6920464940730495,0.09692924085841056
10.801776,7.749667862724553,0.09628294198702964
10.806372,7.804180232442046,0.0956447376641751
10.810956,7.856483037673179,0.09499951249298352
10.815556,7.906576278417951,0.094353594190718
10.82014,7.949063347990474,0.09373296377339357
10.824728,7.988685788057281,0.093104481622055
10.82932,8.02850845610375,0.09242748110676531
10.833908,8.05549467245486,0.09184057663886021
10.8385,8.07426379406299,0.09130989752633432
10.843088000000002,8.0911899053272,0.09075500028002909
10.84768,8.106883929818213,0.09014771711846604
10.852272,8.123188877879953,0.0895126996798971
10.856864000000002,8.134341588684098,0.08889789984701635
10.861472,8.139564812497145,0.08830037987700612
10.866064,8.139102918747387,0.08770444415726136
10.870652,8.139007579140065,0.08709349596872512
10.875248,8.131594579237415,0.08652414879168385
10.879844,8.115964484591789,0.08599782289671487
10.884448,8.099801509640951,0.08545745016122747
10.88904,8.081184600775462,0.08491609487832041
10.893632,8.057415454652375,0.08438709016570359
10.898212,8.02939350571934,0.08386413658960426
10.902808,8.006479652595276,0.08329164357896138
10.907396,7.98548685308065,0.08270586035554403
10.912,7.975120940775026,0.0820447542910589
10.91658,7.963733409307608,0.08139262871597816
10.921176,7.953245312287837,0.08073653402382737
10.925768,7.948520376096391,0.08003822049750514
10.93036,7.946083047656824,0.07930779464005912
10.934964,7.943034795646528,0.07860520733861111
10.93956,7.936066393151832,0.0779683493219178
10.944156,7.926932567619405,0.07735434329237355
10.948747999999998,7.923317533487009,0.07671698295726927
10.95334,7.923955302164561,0.07607521495505393
10.957923999999998,7.930644742547357,0.075421970507226
10.962504,7.937744878521218,0.07479207164548979
10.9671,7.95011943646682,0.07414974398709061
10.971692,7.970833273869545,0.07346927098195033
10.976284,7.993878860472775,0.07280043372690519
10.980876,8.0220766843336,0.07212841057010909
10.985456,8.055182376023732,0.07146495342821509
10.99004,8.091274881933725,0.07081791485056929
10.994632,8.124713225949403,0.0702218746871591
10.99922,8.15484234305141,0.06966457854657075
11.003828,8.173855834087835,0.06919270083965173
11.008408,8.195323259038911,0.06872705408311018
11.012996,8.219366802618783,0.06826434432916655
11.017592,8.243943226503868,0.06781813096881176
11.022188,8.27187301875125,0.06737776893119372
11.026784,8.301723864608077,0.06692953624305155
11.031376000000002,8.33733787129323,0.06645399807893419
11.03598,8.377571234930763,0.06596618182029437
11.040556,8.414861925797062,0.06550177469483187
11.045156,8.451008812787425,0.0650538808048135
11.049736,8.488954568673082,0.06460855649620059
11.054336,8.5224031523205,0.06417387016447816
11.058924,8.554830116806123,0.06374948124008864
11.06352,8.584314408520513,0.06334432397570779
11.068104000000002,8.611999831339604,0.06294515611176212
11.0727,8.636087516368107,0.06255479743030644
11.077288,8.659520136377251,0.062159639883609015
11.081884,8.688960286643013,0.061735495859132454
11.086472,8.720565859946507,0.06129725638078765
11.091068,8.752415802678291,0.060849536776096794
11.095656000000002,8.790395460380836,0.060363442956531246
11.100244,8.823511391702707,0.05989964403078709
11.104832000000002,8.852540846377401,0.05946369742147925
11.109436,8.882836289642185,0.05901526178849948
11.11402,8.909411810402228,0.0585793395936499
11.118612,8.935454450857058,0.05813261205713853
11.123208000000002,8.958021538235446,0.05768792914076133
11.127796,8.976868703109096,0.057254559238423416
11.132388,8.98970833772613,0.056850060863519805
11.136976,9.000216223142656,0.056434466295132754
11.141564,9.003284263549713,0.056036269595244104
11.146176,9.006107934528474,0.05564574467772318
11.150764,9.002757749087847,0.05525445257791655
11.155360000000002,8.998630313913717,0.05485898880036072
11.159952,8.991804575396644,0.05446472984995247
11.164556,8.981258914374836,0.0540758167858806
11.169148,8.9641728427912,0.05369997421347199
11.17374,8.934416645674974,0.0533704660555287
11.178332,8.897220603549277,0.053053644430695795
11.182924,8.861046180585372,0.05272965201100567
11.18752,8.822706334583735,0.052419790024715765
11.192096,8.786409726905685,0.05209737486575526
11.196696,8.753833041732372,0.05176821838671792
11.201276,8.714349391854794,0.05146425335333497
11.205876,8.672822503653633,0.051168523345772425
11.210464000000002,8.628519268844009,0.050910816898427566
11.21506,8.583971664606095,0.050660670378268394
11.219648,8.53738082204459,0.050418581699591444
11.224240000000002,8.493854836968469,0.050158546570117764
11.228832,8.45049517805512,0.04992583096419447
11.233428,8.40689114971348,0.04970030333065997
11.238016000000002,8.363164936657697,0.04947772514065438
11.242612,8.323569341697713,0.04926657879271667
11.2472,8.281563954271705,0.04907906019252265
11.251784,8.239069827989116,0.04890974832601439
11.256372,8.196864212583446,0.04876406949568795
11.260964,8.156868161664137,0.04863706268345284
11.265556,8.124800694610885,0.04847628756765064
11.270143999999998,8.09416554231049,0.04832903298475584
11.27474,8.060998412829926,0.04821228247928253
11.279328,8.028241978940427,0.048115872431673576
11.283919999999998,7.993564491441487,0.048023367646529584
11.288516,7.950303355057133,0.04795145207587982
11.293095999999998,7.91153939091102,0.047878492947505874
11.297704,7.875351545393704,0.0478098455808755
11.302292,7.838386450142886,0.04773570922707468
11.306876,7.797212693530748,0.047687701049622486
11.311471999999998,7.758492870833263,0.04764978196129605
11.316068,7.7231264164980775,0.04762171180551479
11.320664,7.686738343001098,0.04759915867294281
11.325256,7.655746876190006,0.04757627642992886
11.32986,7.629374766331298,0.04754760117354829
11.334448000000002,7.601081602863149,0.04752390769440046
11.339044,7.574587308290297,0.04750022143670801
11.343632,7.549114632879237,0.04747078135823167
11.348236,7.529405118296502,0.04742533824995962
11.352824000000002,7.510839407589706,0.04736875754515365
11.357424000000002,7.4876984813791525,0.04735570049167889
11.362016,7.464557555168601,0.047342535105199285
11.366608,7.442560432833988,0.04731821568171951
11.371184,7.417209942137075,0.04728220908490918
11.37578,7.391492897297724,0.04726270553063734
11.380368,7.3697401443914,0.04722605121651796
11.384964,7.346066337875638,0.047194645652965175
11.38954,7.317528804979197,0.047179993953486425
11.394136,7.290012891244551,0.047159316465474915
11.398724,7.26543965028114,0.047127458689140776
11.403316,7.234325998755902,0.04710692775884923
11.4079,7.193851448611748,0.047103606189419236
11.412476000000002,7.151045149267088,0.04708156635685929
11.417076000000002,7.101043374341246,0.04705782275104619
11.421664,7.044501188853577,0.04704440884929231
11.426248,6.986037949756466,0.047037205699979816
11.430836,6.924876407316411,0.04702956382542926
11.43542,6.86167162655277,0.047034070878512746
11.440008,6.792415174083886,0.047022598463238544
11.444604000000002,6.717517745500824,0.047022659433280836
11.449188,6.6405329371455455,0.0469906096733338
11.453784,6.561749259894971,0.04695772835484173
11.458364,6.475525737634923,0.04693611446470814
11.46296,6.386359542603641,0.04692691296864037
11.46754,6.292696175334118,0.04691852122299987
11.472128,6.189427540017389,0.04694463120365774
11.47672,6.077819625243539,0.04698701425380575
11.481316,5.964779395716829,0.04700888648941486
11.4859,5.8441771364665005,0.04705448259897624
11.490484,5.719077704977931,0.04710013743543389
11.495088,5.596265881241241,0.04711491687343829
11.49968,5.475375111113992,0.04712723784862873
11.50426,5.352441102663156,0.04715219702226219
11.508844,5.225664986993436,0.047194240443038306
11.513436,5.094269514371332,0.047247835155279964
11.518032000000002,4.9614417269963695,0.047272274072158726
11.52262,4.822073529059581,0.04732065434832117
11.527212,4.676531474703402,0.04736287390682853
11.531808000000002,4.526780758985904,0.04745427178749016
11.536396,4.377396597410844,0.047512349777324346
11.540992,4.2249475783504025,0.04760128869960924
11.54558,4.068900821499369,0.04769247187430007
11.550172,3.913753499095984,0.047796580283784855
11.554760000000002,3.755907873349656,0.047916151989140565
11.559348,3.5972849978698247,0.04803402446580393
11.56394,3.4453247176659656,0.048132239705354705
11.568528,3.299249783004577,0.048173699337801565
11.57312,3.1520310444672486,0.04825025237379411
11.577712000000002,3.011963640062475,0.048189352534283775
11.582308,2.872018420371848,0.04809727704374376
11.586904,2.7300299623576327,0.04801622973249226
11.5915,2.5873864393240615,0.04788513016357423
