Time,Force,Position
10.145091999999998,0.0957840037030463,0.0
10.149672,0.09661303708221429,0.0
10.154264,0.09660539488517662,0.0
10.158852,0.09197839573575405,0.0
10.16344,0.08350928936744868,0.0
10.168052,0.07324131410384764,0.0
10.17264,0.06501657716383363,0.0
10.177248,0.05679184022381962,0.0
10.181836,0.04881147271209695,0.0
10.186424,0.04173053964802215,0.0
10.191012,0.0365706601933887,0.0
10.1956,0.0312885960246096,0.0
10.200204,0.026905966303478343,0.0
10.204788,0.023544955744140603,0.0
10.209392,0.02030612989894854,0.0
10.213971999999998,0.01412463128252158,0.0
10.218571999999998,0.009986370989681664,0.0
10.223152,0.005970295410987419,0.0
10.22774,0.002975838994086698,0.0
10.23232,0.0017802514724816797,0.0
10.236916,0.0008290333791680039,0.0
10.241516,0.0,0.0
10.246108,0.0,0.0
10.250696,0.0,0.0
10.255292,0.0,0.0
10.25988,0.0,0.0
10.264468,0.0,0.0
10.269056,0.0,0.0
10.273651999999998,0.0,0.0
10.278244,0.0,0.0
10.282836,0.0,0.0
10.28742,0.0,0.0
10.292000000000002,0.0,0.0
10.296596,0.0,0.0
10.301184,0.0,0.0
10.305772,0.0,0.0
10.310368,0.0,0.0
10.314956,0.0,0.0
10.319544,0.0,0.0
10.324132,0.0,0.0
10.32872,0.0,0.0
10.333324,0.0,0.0
10.337912,0.0,0.0
10.342508,0.0,0.0
10.347088,0.0,0.0
10.351684,0.0,0.0
10.356272,0.0,0.0
10.360872,0.0,0.0
10.365464,0.0,0.0
10.370055999999998,0.0,0.0
10.374636,0.0,0.0
10.379231999999998,0.0,0.0
10.38382,0.0,0.0
10.388412,0.0,0.0
10.392996,0.0,0.0
10.397583999999998,0.0,0.0
10.402172,0.0,0.0
10.406764,0.0,0.0
10.411356,0.0,0.0
10.415948,0.0,0.0
10.42054,0.0,0.0
10.425128,0.0,0.0
10.42972,0.0,0.0
10.434311999999998,0.0,0.0
10.4389,0.0,0.0
10.443508,0.0,0.0
10.448096,0.0,0.0
10.452696,0.0,0.0
10.457287999999998,0.0,0.0
10.461892,0.0,0.0
10.466484,0.004980130738447816,0.0
10.471084,0.024816289310693355,0.0
10.475688000000002,0.056199248803064705,0.0
10.480276,0.1030933011485903,0.009479491660857882
10.484868,0.1647211966137679,0.01842088035485096
10.489448,0.234664709350917,0.02763176250109987
10.494048,0.3162330662737094,0.03664160732033516
10.498636,0.4091818979538538,0.04556258711188621
10.503236,0.5155985841635653,0.05438586025131258
10.50782,0.6347058751693418,0.06315723536264262
10.512424,0.7686691940089162,0.07173751028117352
10.517012,0.9192874095775838,0.08009284136148512
10.521608,1.08194116492296,0.08844493184888977
10.526196,1.2548315911497492,0.09685613866371202
10.530788,1.4415564260485423,0.1052030012196388
10.535392000000002,1.6427707346386962,0.11349601656073746
10.539988,1.8563090938824789,0.12183111865549441
10.54458,2.0851141765511247,0.130108594049535
10.549172,2.3282424067483563,0.13829801158512364
10.553764,2.5801308516255164,0.1464854667425322
10.558348,2.835056032527542,0.15455879821402863
10.562936,3.0747586314533324,0.16266433586446621
10.567528,3.3030366141731435,0.1707591280187411
10.572124,3.5178467423633863,0.1693139646754318
10.576716,3.718822461881626,0.16838760310451895
10.581308,3.9150803019184854,0.16711584759130302
10.585895999999998,4.103066666132001,0.16599173750955662
10.590492,4.282248674216963,0.16491224384818048
10.59508,4.449228816362443,0.16388228919042447
10.599668,4.602496734550064,0.16293214930165706
10.604264,4.74000919045624,0.16219107400849883
10.608852,4.859067880738025,0.16171123085164749
10.613444,4.965191596795456,0.1612529545889852
10.61804,5.062222445847412,0.1606967698999926
10.622628,5.145663255655656,0.1601845006955901
10.627223999999998,5.212160657857886,0.15976026691525086
10.631816,5.263225010472479,0.15932657503100467
10.636416,5.297590324909351,0.15895659826560715
10.641008,5.320286653711951,0.15856456577386818
10.645608,5.331768833919972,0.1582089007016924
10.650188,5.329959725392937,0.15807027297032208
10.654788,5.328106475417275,0.15787577342255535
10.659375999999998,5.325720345136402,0.15766827817714532
10.66398,5.318714857903143,0.15756853964951006
10.668572,5.3066793181264345,0.1575542974233022
10.673168,5.291534779415718,0.15757170456441047
10.67776,5.274180676218639,0.15760070135743987
10.682356,5.255516442982848,0.15762162582149422
10.686948,5.233909536975823,0.1577187865323614
10.691544,5.2148346081489665,0.15771397324284497
10.696132,5.193061375979166,0.15776924955640945
10.700732,5.178072923799484,0.15764778571775873
10.70532,5.163328841048093,0.15750532654289043
10.709904000000002,5.1485847582967015,0.15736126452665514
10.714492,5.129221318592926,0.15732194713179878
10.719084,5.112556182232094,0.15722651510685878
10.723676,5.104230325328384,0.15693977160936778
10.728268,5.097825522034116,0.15660440737946577
10.732855999999998,5.086601133807798,0.15644781629718263
10.737444,5.079873917819721,0.15619877850243383
10.742036,5.084306469345854,0.15569873036294377
10.746624,5.0900491509107,0.15520515457131578
10.751212,5.095180908904818,0.15476283394266235
10.755807999999998,5.105831458298969,0.1542014870830981
10.760392,5.123188744417721,0.15353392960284273
10.764983999999998,5.138669118375659,0.15296773067510847
10.76958,5.152883503743512,0.15245347906081086
10.774168,5.161745423874105,0.1521013724545689
10.778759999999998,5.176003950690587,0.15164186429807175
10.78334,5.190428803669843,0.1512327174475824
10.78794,5.211149697782632,0.15069554418256798
10.792528,5.225740876924661,0.1503354283950436
10.797124,5.241520001391256,0.14999138783563562
10.801711999999998,5.257343267306481,0.14970440328091789
10.806311999999998,5.27999545466045,0.14930331745503483
10.810896,5.304979391214929,0.14888512202673584
10.815487999999998,5.326043177285006,0.14863238311120144
10.820084,5.348050539251358,0.148419200673225
10.824676,5.3739000084365935,0.14811516841729291
10.829263999999998,5.396440250708157,0.14791405835072036
10.83386,5.411829158847165,0.147906334377577
10.838448,5.430038555043263,0.14784196315853096
10.843039999999998,5.454011112067684,0.1476534379925995
10.847632,5.47504099632087,0.14753664617653028
10.852208,5.494638565821199,0.14742598807427854
10.8568,5.517545362235199,0.14721897771458206
10.861392,5.539674908915699,0.1470167355498711
10.865984,5.569733039462253,0.14662728933199273
10.870572,5.595949062789925,0.14632631119222184
10.875164000000002,5.619711152202945,0.1460544638376726
10.879744,5.640652753558875,0.14584175832770813
10.884332,5.662615974076599,0.1456016243240135
10.888928,5.688132790936287,0.14525394572857517
10.893515999999998,5.71180659745205,0.14488576150699561
10.898115999999998,5.736091327538542,0.14447833896599832
10.902712,5.758943742872175,0.14407839049366117
10.9073,5.782529266490681,0.14362682280584735
10.911896,5.805948463946416,0.1431385539238178
10.916484,5.8261364777539955,0.14268167331656523
10.92108,5.850777522351186,0.14210535486082687
10.925667999999998,5.874108436909663,0.14151447957433394
10.930268000000002,5.891143310334606,0.1410287075471773
10.934848,5.902659392359515,0.14064420806920058
10.939448,5.912498790203275,0.1402779610058066
10.944044000000002,5.921560938313531,0.13991887466978536
10.948636,5.9293129563850755,0.1395546445165375
10.953219999999998,5.941395820532084,0.1390832785306452
10.957816,5.948204262707352,0.13868902508419031
10.962412,5.954968563433993,0.1382460488326283
10.967008,5.961732864160632,0.13780179491446695
10.971596000000002,5.970251892333941,0.13728313062790254
10.976188,5.978360224916184,0.1367418387968115
10.980768,5.978662158346515,0.13635478246676985
10.985352,5.982684014281585,0.13590670015609727
10.98994,5.985562066340712,0.13549378457554498
10.994536,5.988317933685696,0.13509135276615825
10.999128,5.989274932135384,0.1347165382167022
11.00372,5.9898653764426335,0.13436911298208
11.008312,5.994830808273978,0.1339675778152292
11.012899999999998,5.995709763458148,0.1336526413810093
11.017492,6.001085890880558,0.13327451374197977
11.02208,6.009937571379414,0.13285325213110702
11.026672,6.020588120773565,0.13240717474971644
11.031264,6.035735842405955,0.13189964646974175
11.035851999999998,6.0523158787912035,0.13139595669928011
11.040456,6.070738925520375,0.13091912329259445
11.045051999999998,6.085364006479294,0.13055901414908505
11.04964,6.104119705534013,0.13016550028101279
11.054232,6.124596230218512,0.12980553480674104
11.058824,6.147771058245954,0.1294114244551319
11.063424,6.1718894621696725,0.12905802187428117
11.068003999999998,6.196540746398601,0.12871806970832478
11.072603999999998,6.2277324411893575,0.12827818833909146
11.077192,6.254959844047084,0.12791375703470328
11.081792,6.279366758847722,0.12759382081930587
11.086384,6.299032131981829,0.12734610666848267
11.090984,6.317431516525851,0.12713461461999745
11.095576,6.3378741393934614,0.12688672633550024
11.100172,6.358438946975215,0.1266359444605345
11.104755999999998,6.383623111509355,0.1263236052116015
11.109352,6.412649383262377,0.12596013242306628
11.113948,6.443596708624842,0.12557155350142238
11.118548,6.473278045397221,0.1252181769430384
11.12314,6.5020599477219525,0.1248810993247778
11.127731999999998,6.531863469208477,0.1245308135478837
11.13232,6.558313622332703,0.12420755336445048
11.136907999999998,6.587950817656454,0.12382411930331462
11.141496,6.61578914408491,0.1234650343173296
11.146092,6.642972405494008,0.12310271390000013
11.150683999999998,6.669256232455459,0.1227538855377584
11.155276,6.691287256606961,0.1224407393227114
11.159872,6.717937637710849,0.12207472203012396
11.164452,6.7427891499194414,0.121732396253816
11.169044,6.769683900451621,0.12135630828875323
11.173628,6.7988662587356785,0.12093235497711802
11.178216,6.832790158686267,0.12044149882115153
11.182808,6.867080612779292,0.11992615283021031
11.1874,6.897895513795871,0.11944688803628034
11.191984,6.925234861736006,0.11900278799526239
11.19658,6.947421972418543,0.11860413867133388
11.201156,6.960492553910457,0.1183095840495431
11.205752,6.9685330828589205,0.11804953255065095
11.21034,6.975630035911108,0.11775584860416193
11.21494,6.980395239762789,0.11746881648930788
11.219528,6.979763836928583,0.11723704207855846
11.224128,6.980398422684462,0.11697383911340153
11.228716,6.974859152020952,0.11676714381864395
11.233316,6.970708054661672,0.11652265055510574
11.237908,6.967045696158975,0.11624954854878373
11.242504,6.965670945408156,0.11593126617981414
11.247084,6.970958789933309,0.11553215288055071
11.251676,6.9692955283055715,0.11518904070561616
11.25628,6.970164243858002,0.11478861596893222
11.260872,6.970255709676931,0.11439037192324189
11.26546,6.969203371619921,0.1140153780526388
11.270056,6.969539206867142,0.11360600073756327
11.274648,6.973717149333244,0.11315208109668744
11.279232,6.979571775980497,0.11268973955113468
11.28382,6.987103086808899,0.11221914731211431
11.288412,6.9972105162661,0.11173186083799287
11.292996,7.01181511796154,0.11120344305157899
11.297576,7.031571956914575,0.11064299341492924
11.302167999999998,7.056481033125206,0.11005381069578035
11.306752,7.082045174355193,0.10947173639441318
11.31134,7.110551988356416,0.10885081863716124
11.315936,7.141102040681225,0.10820599508677564
11.320519999999998,7.179214122729654,0.10748237460560454
11.325112,7.213728466987493,0.10679286257484832
11.329695999999998,7.247343376797684,0.10611557962024223
11.334295999999998,7.277771244408347,0.10549356948929106
11.3389,7.304601374228421,0.10490952555842926
11.34348,7.334007622677291,0.10430962505754349
11.348076,7.3598602747842,0.10378317770291794
11.352652,7.3882890455199055,0.10324696643444023
11.357252,7.419538304312699,0.1026881971969553
11.361836,7.451442628124849,0.10214361328392313
11.366436,7.4805264638799125,0.10163055212877575
11.371032,7.508710865187327,0.10112619135442075
11.375616,7.539960123980122,0.10058997189902995
11.380204,7.570187763611121,0.10006843806458064
11.384788,7.6024586415657085,0.09952726496099472
11.38938,7.633175020053291,0.09899135769816605
11.393972000000002,7.6620925296455775,0.09847457771109182
11.39856,7.69088785452372,0.0979649993144447
11.403148000000002,7.721359863583012,0.09745312053453198
11.407736,7.750565884052219,0.0969702991685996
11.412332,7.777728666197839,0.09651799219399598
11.416928,7.807345382258111,0.0960621757656193
11.421516,7.838760967213679,0.09559924746649444
11.426108,7.871564725473477,0.09510923445017448
11.430696,7.899626942066744,0.09465812429130417
11.435288,7.932797254468982,0.09415649376642762
11.43988,7.965679055994299,0.09363086593759248
11.444464,7.995451858585606,0.09310628326130611
11.44906,8.021626923386322,0.0926055505960773
11.453648,8.0433048159488,0.09213241779636382
11.45826,8.065349262653712,0.09164360731133982
11.462848,8.087638078786915,0.09114439347664123
11.467436,8.102487049910648,0.09069783408182497
11.472032,8.11614807570981,0.0902314919676447
11.476624,8.126988613451887,0.08978825124787437
11.481216,8.13423141340337,0.08936386047391967
11.485796,8.137221410544905,0.0889514124568329
11.490396,8.14082233125717,0.0885103448804556
11.494988,8.142335872197219,0.08805508516195275
11.499584,8.143683086974495,0.08757081041565942
11.504176,8.140899683655967,0.08709126554415177
11.508772,8.137705584746374,0.08659391339441513
11.513352,8.12899269443675,0.08612726088833177
11.517948,8.119380369679474,0.08566535668411249
11.522548,8.113610152141085,0.08517333681574275
11.527144,8.098356851269632,0.08474575179480036
11.531732000000002,8.083103550398182,0.08431693098863242
11.536324,8.067605880098439,0.08389834084351318
11.540912,8.050553710331691,0.08347428016931878
11.545504,8.03476752915503,0.08302731751363725
11.550092,8.019636412997725,0.08258792082584848
11.554692,8.00474966626871,0.08213669156486833
11.559268,7.995503895653875,0.08165029462635832
11.563864,7.989489308687194,0.0811662398683978
11.568456,7.981920222253508,0.08067734833944475
11.573035999999998,7.977704504182122,0.08018438205592007
11.577628,7.975820535311243,0.0796963887347461
11.582216,7.973692197012073,0.07922038729096832
11.586804,7.973895607913409,0.07875211586537605
11.5914,7.971567041634575,0.07832433700272003
11.595984,7.972347474289751,0.07790513718763674
11.600596,7.972639168088342,0.07750908616243822
11.60518,7.9792269030204706,0.07708988126226306
11.609768,7.984426464648367,0.0766966798665762
11.614363999999998,7.991302710457415,0.07630427348620668
11.61896,8.005374431847645,0.07588610641268898
11.623556,8.02459839049547,0.07546379649909313
11.628136,8.049218955829184,0.07502696351855775
11.632736,8.08181224647758,0.07457270559507875
11.637315999999998,8.11661510161234,0.07413459481243477
11.64192,8.152073021766453,0.07370814280266008
11.646512,8.187819452797488,0.07330881993212851
11.6511,8.219235037753057,0.07295447097734499
11.655691999999998,8.250650622708628,0.07260361247892298
11.660288,8.286319010474143,0.07225275914897197
11.664876,8.324030636563247,0.07188961280441092
11.669467999999998,8.366728173747173,0.0714973582946226
11.674056,8.411879644845751,0.07111180686676927
11.678652,8.45870780012548,0.07073223121157492
11.68324,8.508112074034004,0.0703511836016739
11.687832,8.562502259037352,0.06994424225316531
11.692419999999998,8.622655604869026,0.06951425558066422
11.697012,8.68190951625305,0.06909198054747329
11.701604,8.742185046798866,0.06866300478407115
11.706195999999998,8.804381630954127,0.06823106621002967
11.710788,8.867477649557035,0.06780366002487045
11.715368000000002,8.924810507331618,0.06740713268285112
11.719964,8.974703520096726,0.06703984442461286
11.724552,9.01523563424292,0.06670950859647184
11.72914,9.055112683369757,0.06637406152491204
11.733748,9.094456852191382,0.06602882744450309
11.738336,9.135067009603091,0.06566968031770365
11.742944,9.182051251413855,0.06526331788006685
11.747536,9.227480993757617,0.06485416016085822
11.752132,9.270334617472574,0.06444878736555519
11.756728,9.310489937844592,0.06405199658067925
11.761323999999998,9.344104847654782,0.06367976802907252
11.765928,9.374366389102674,0.06330634506840573
11.770516,9.394489782198148,0.06295870642737089
11.775112,9.417145152473791,0.06258244113673905
11.779696,9.425575897749843,0.0622559425535861
11.784292,9.424767929121124,0.06195406656097823
11.78888,9.42060659213011,0.06164844324195064
11.79348,9.41783342844332,0.06132321373857595
11.798068,9.4061881049942,0.06100555148193038
11.802668,9.384649002620952,0.06070049215325315
11.807251999999998,9.363187943513221,0.060357696825672116
11.811848,9.343892307443225,0.05999675049683899
11.816427999999998,9.328805332734547,0.059605932389170016
11.821024,9.310120620235278,0.059218658822650025
11.825612,9.285672746907684,0.05885036977376725
11.830203999999998,9.25402939799891,0.058488581868058866
11.834792,9.21380240020472,0.05815330666519496
11.839376,9.171654348801091,0.05782264505105291
11.843968,9.125908559606868,0.05749318189878919
11.848564,9.081306574288586,0.057151730901371954
11.853155999999998,9.036582404256158,0.05681252922946747
11.857752,8.991080984490228,0.05646682876937028
11.862344,8.953263779162063,0.05609273258487364
11.866924,8.91033847802493,0.05574511830533016
11.871516,8.875097391325562,0.05536851162846105
11.876096,8.841777358235635,0.05498257787148988
11.880684,8.8112778132028,0.05458807249901538
11.885280000000002,8.777835595398729,0.054203545173626765
11.889872,8.748646180404604,0.05382205556632048
11.894472,8.728695479315252,0.05342293215829186
11.899068,8.70621280104573,0.05305094501319635
11.90366,8.68336356863377,0.05269221934025383
11.908256000000002,8.656305674860489,0.052357609497084096
11.912848,8.629902846106567,0.052030010701408023
11.917452,8.608119374305028,0.0516933049370601
11.922032000000002,8.59161032447523,0.05135658991151626
11.926632,8.580375696617175,0.05102095209746629
11.931212,8.569141068759118,0.05068379307022063
11.935812,8.559216570939773,0.050363620314473875
11.9404,8.541363489254376,0.050073509427889296
11.945,8.521589353959534,0.04978678473121649
11.949596,8.500427045360462,0.04951839724533297
11.954184,8.474401010380715,0.04926459405056084
11.958772,8.442856184000934,0.04901388844552679
11.963368,8.409923184316922,0.048782265688467004
11.967963999999998,8.371882088823945,0.04857429167100584
11.972563999999998,8.322847551979528,0.048411768854882395
11.977156,8.271525407383235,0.04826813567863502
11.981756,8.216116786139766,0.04814437080232688
11.986348,8.148404593506147,0.048045350858598616
11.990928,8.08032584673009,0.047961092745757467
11.995512000000002,8.00648393912571,0.04789226539366595
12.000096,7.931620412359536,0.04782779496039051
12.00468,7.854713647269777,0.047772970031803697
12.009256,7.771921536637545,0.04773913427906791
12.013848,7.683121895748699,0.04773271676478196
12.018432,7.587004594564524,0.04773015725571965
12.023015999999998,7.484635393695442,0.047767122010323404
12.027615999999998,7.378790639749916,0.04779799479349852
12.032204,7.272457146947806,0.04785658462816398
12.0368,7.162936611946171,0.04794034236665549
12.041391999999998,7.047652916116211,0.04804543668191089
12.04598,6.932124850857959,0.048162046692944466
12.050572,6.8209717731238015,0.048285267747189234
12.05516,6.706465327027345,0.04839540218815064
12.059752,6.593879934540328,0.048501971797192164
12.06434,6.487057702881637,0.0485938680239457
12.068936,6.377537167880002,0.048687663431564866
12.073524,6.26646213341136,0.04876987041554619
12.078119999999998,6.1596399017526675,0.04886993290564657
12.082712,6.048320497855737,0.04897558019570732
12.087304,5.937245463387097,0.04906933309339601
12.091884,5.824371560023161,0.04916555006198239
12.096476,5.709698787763928,0.0492639836089618
12.10108,5.593593700751838,0.04934063606902508
12.105671999999998,5.478876787043979,0.049387267362493874
12.11026,5.361217200564884,0.049452599991998566
12.114852,5.246866840999461,0.04947945267522508
12.119432,5.131494862272245,0.04951421931942149
12.124024,5.016078742096401,0.04949102852751622
12.128612,4.901928610510639,0.04944257425189533
12.133192,4.791864955572054,0.049355692104809654
12.13778,4.675383074785789,0.049279570609693804
12.14236,4.553382402599489,0.049215660700184835
12.146952,4.430237926537251,0.049165829701181864
12.15154,4.306316200741511,0.049102021182196864
12.156128,4.178019487421677,0.04902343880777395
12.160723999999998,4.044981232435313,0.04897364653702807
12.165312,3.9146412807918916,0.04891486288441177
12.169899999999998,3.782869014395611,0.0488223990859341
