Time,Force,Position
9.960352,0.027248530320601743,0.0
9.96494,0.03424953625816914,0.0
9.969523999999998,0.04035110774808869,0.0
9.974112,0.04759648311394743,0.0
9.978708,0.05292080487036479,0.0
9.983299999999998,0.05800075719849082,0.0
9.98788,0.05948297173602544,0.0
9.99248,0.060965186273560054,0.0
9.997068,0.06244740081109467,0.0
10.00166,0.06392961534862929,0.0
10.006256,0.0643902107243704,0.0
10.010844,0.0643902107243704,0.0
10.015456,0.0643902107243704,0.0
10.02004,0.0643902107243704,0.0
10.024632,0.0643902107243704,0.0
10.029224,0.0655340146003096,0.0
10.033812,0.06271352654322035,0.0
10.03842,0.0566119550533008,0.0
10.043012,0.05187041338677021,0.0
10.047608,0.047006687006093936,0.0
10.052192,0.045985067844300405,0.0
10.056792,0.03944465728247411,0.0
10.061372,0.034048050596587,0.0
10.065972,0.026802675230728268,0.0
10.070564,0.0214783534743109,0.0
10.075164,0.016398401146184877,0.0
10.079748,0.014916186608650258,0.0
10.084344,0.013433972071115642,0.0
10.088924,0.012290168195176447,0.0
10.093516,0.010807953657641828,0.0
10.09812,0.010347358281900733,0.0
10.102712,0.010347358281900733,0.0
10.107292,0.010347358281900733,0.0
10.111876,0.010347358281900733,0.0
10.116455999999998,0.010347358281900735,0.0
10.121052,0.007965709296718264,0.0
10.125644,0.0075051139209771685,0.0
10.130231999999998,0.0075051139209771685,0.0
10.134828,0.007044518545236074,0.0
10.139416,0.005684488721847128,0.0
10.144007999999998,0.0015039708413689561,0.0
10.1486,0.0010433754656278614,0.0
10.153176,0.00033841066159542345,0.0
10.157772,0.0003384106615954235,0.0
10.162363999999998,0.0003384106615954235,0.0
10.166952,0.0003384106615954235,0.0
10.171544,0.0003384106615954235,0.0
10.176144,0.00403018968549091,0.0
10.180735999999998,0.006484123600143121,0.0
10.185315999999998,0.011319706499977801,0.0
10.189915999999998,0.015255854952164628,0.0
10.194504,0.018947633976060113,0.0
10.199104,0.0226394129999556,0.0
10.203691999999998,0.026453376737996758,0.0
10.208291999999998,0.030267340476037914,0.0
10.212876,0.033959119499933396,0.0
10.217467999999998,0.04047138658091812,0.0
10.222056,0.04980414171899205,0.0
10.226652,0.05811527769527247,0.0
10.231248,0.06385029504275501,0.0
10.235848,0.0667648243331483,0.0
10.240436,0.07352146084242436,0.0
10.245032,0.07847922845640472,0.0
10.249619999999998,0.08229319219444586,0.0
10.254204,0.08430828703719133,0.0
10.258784,0.08542394743228894,0.0
10.263376,0.08542394743228893,0.0
10.267972,0.08173216840839345,0.0
10.27256,0.0789398238321458,0.0
10.27716,0.07410424093231112,0.0
10.281748,0.07016809248012429,0.0
10.28634,0.0664763134562288,0.0
10.290932,0.06278453443233332,0.0
10.295512,0.05897057069429217,0.0
10.300108,0.058403788572191966,0.0
10.3047,0.06315556987046134,0.0
10.309288,0.06906139467640872,0.0
10.313884,0.08090694610519282,0.0
10.318471999999998,0.10372227670026372,0.0
10.323076,0.14012764653904747,0.00883540409313014
10.327656,0.19727438975409875,0.01679575245550473
10.332252,0.2551747205175016,0.025526130959505566
10.33684,0.32703164466705437,0.03415356659841749
10.34144,0.41153503216404397,0.04270443907055692
10.34602,0.5128155011042727,0.05101164937021492
10.35062,0.625232075373562,0.05941293049290239
10.355208,0.7487566114910704,0.06793863823691533
10.359799999999998,0.8795751457187566,0.07669870125499977
10.364392,1.022307035009006,0.08544105202040331
10.368988,1.179362071827842,0.09400468944827026
10.373575999999998,1.3465315948139454,0.10263353774048913
10.378164,1.5234049083762504,0.11128742364251579
10.382751999999998,1.7098598278006116,0.11997908119863744
10.38734,1.9088390258582644,0.12859021693315678
10.391927999999998,2.1088782261902907,0.1373888937464427
10.39652,2.3112933171714523,0.14614633992427745
10.401112,2.514685885865778,0.15486456424074205
10.405708,2.7116499890806853,0.1635440253044246
10.410299999999998,2.9044732345680533,0.17209800960446778
10.414888,3.088614308641012,0.17178091325705352
10.419468,3.255245192985859,0.1723647165349869
10.424064,3.4253752925923013,0.17196662091055884
10.428651999999998,3.5858016016225425,0.1716277409659508
10.43326,3.73513594677235,0.1713904733102195
10.437848,3.869125525231777,0.17143246560935171
10.44244,3.9957430623155097,0.17136170148733584
10.447027999999998,4.122139892156101,0.17094297263915711
10.451616,4.245373341982315,0.17022179830236414
10.456212,4.360291174536558,0.1694395833261035
10.460792,4.46297323933443,0.16883167955344608
10.465396,4.559427066632546,0.16811634576566808
10.469983999999998,4.652517285936621,0.16730073409057264
10.474579999999998,4.741222278084865,0.1664130877467045
10.479168,4.823376620039544,0.16556556310336257
10.483768,4.913082752086104,0.16435622484051504
10.488355999999998,5.001845308236388,0.16315711289705484
10.492952,5.091507298834321,0.16197376107369216
10.497535999999998,5.183422995367243,0.1608477208900048
10.502131999999998,5.272151649700636,0.15985751229099135
10.50672,5.359736500158091,0.15891677366270007
10.511311999999998,5.447321350615548,0.15797006203481784
10.515904,5.526322552187589,0.15726999553336415
10.520496,5.6058566340648435,0.15659734876259532
10.525083999999998,5.691808941789777,0.1558089657982221
10.529672,5.779071379553424,0.1550152229859808
10.534259999999998,5.868088544763738,0.15416144511500215
10.538859999999998,5.94823355021172,0.15351736859082268
10.543448,6.026824056192701,0.1529084576108255
10.548024,6.101450270240649,0.15240274585447186
10.55262,6.173866919802239,0.15190959699951934
10.557208,6.2443183743057595,0.15142328521404413
10.5618,6.309573450103055,0.150982570063084
10.566387999999998,6.3730635588219435,0.15048838846877782
10.570968,6.430413712938335,0.14999992039277063
10.575572,6.47165209026258,0.1497352450613937
10.58016,6.5041743943555295,0.14950102285337802
10.584763999999998,6.532355612741272,0.1492366040627411
10.589348,6.555785049828744,0.14891841098570696
10.593928,6.576427900676018,0.1485546020329243
10.59852,6.599436402540688,0.14808286647365113
10.6031,6.622645132385019,0.1475517318733592
10.6077,6.64670915522837,0.1469621726377056
10.612291999999998,6.667497852974941,0.1463618890189816
10.616887999999998,6.681413487834136,0.14580948963399354
10.62148,6.698183512567309,0.14512077078916044
10.62608,6.711189473347117,0.14445678888249322
10.630663999999998,6.7203091854594135,0.14381465769183327
10.635256,6.725009768598989,0.14318617909123
10.639836,6.729011145270579,0.14250986369108634
10.644432,6.734889434102983,0.1417593149847794
10.649024,6.7381474628579605,0.14099724870602146
10.653615999999998,6.737274873517135,0.1402716372988421
10.658195999999998,6.7301062430427745,0.13963279791482686
10.662784,6.72281542785427,0.13900076953648788
10.667364,6.719611089312939,0.13828341796054072
10.671956,6.721148292438138,0.13748923825260098
10.676548,6.721008811382187,0.1367131245007924
10.681136,6.721646580059739,0.13593342902401254
10.685728,6.721018360147204,0.13518758591342386
10.690316,6.7182247171969385,0.1344939672995218
10.694908,6.715186704818379,0.133816704712505
10.699495999999998,6.709083834954441,0.13319554323541125
10.704084,6.703513845395713,0.13258584450076152
10.70868,6.699009616447408,0.1320003715597132
10.713268,6.690707421728847,0.13152098014399582
10.717856,6.6814277492971215,0.13110332342877648
10.722452,6.676689390552263,0.13067159507289863
10.727044,6.677147410513628,0.13023192149193163
10.73164,6.682024559447715,0.12978895613712135
10.736228,6.68747873013564,0.12940362291793947
10.740823999999998,6.695475117635475,0.12908665256888435
10.745416,6.712632175774563,0.1286994623411834
10.750012,6.736417927372734,0.1283074074204378
10.754599999999998,6.7642562538011894,0.1279375280466439
10.759204,6.795125535898135,0.12760748469214808
10.763799999999998,6.828248523930071,0.12732575328295104
10.768399999999998,6.868366759563526,0.1270260677159063
10.772984,6.912659754741411,0.1267448422922986
10.77758,6.963292932501459,0.1264385293193453
10.782168,7.016302000910642,0.12617011322509647
10.78676,7.075651251901989,0.12588235169579892
10.791351999999998,7.145427162122672,0.12550651607652716
10.795944,7.21986657074437,0.12512281318023996
10.800532,7.2962711744241355,0.12475681525015356
10.80512,7.3774614612190605,0.12437423018193905
10.809708,7.462782366109788,0.12396935252422112
10.814292,7.550679389629314,0.12355027671954899
10.818884,7.638576413148839,0.12314012187442185
10.823468,7.730437728601392,0.12269177909128268
10.828064,7.826385520701121,0.12219617298706717
10.832644,7.924210224961662,0.12164557155207885
10.837236,8.014839453641018,0.12117096533391737
10.84182,8.104647291138246,0.12067022340384848
10.846412,8.190158184376896,0.12016510791932725
10.851,8.273293186966415,0.11963344781036218
10.855596,8.347922583936036,0.119158129969877
10.860184,8.411225887228673,0.11877108390294015
10.864788,8.468555562081582,0.11838966231239978
10.869379999999998,8.521954846818353,0.11798880210822123
10.873972,8.56794818836254,0.11758627829811548
10.878548,8.605513967552348,0.11720078969785064
10.883148,8.633752749940133,0.11683943023374699
10.887728,8.65368615468768,0.11648350669412678
10.892331999999998,8.667357420118584,0.11610428055645795
10.896912,8.669492124261104,0.11573893047308746
10.901496,8.662788570458176,0.11536512164154936
10.906088,8.647002389281514,0.11499412976329859
10.910683999999998,8.626630752969357,0.11458919807872314
10.915272,8.590147339865055,0.1142714416457605
10.919868,8.538329399702112,0.11403911190829229
10.924444,8.478738962204147,0.11381409894235194
10.929028,8.418571502952345,0.11354046684977484
10.933607999999998,8.351164426670731,0.11328461365604342
10.938192,8.280892720883399,0.11301685783807132
10.942783999999998,8.206856951142703,0.11274257929897431
10.947364,8.135064647705255,0.11238999892645324
10.951948,8.06539362585691,0.11196525102735752
10.956532,7.994290289255709,0.11153074980626443
10.96112,7.917301607112038,0.11115928555294614
10.965716,7.842233978577807,0.11076103561625246
10.970304,7.763324242824691,0.11039910491569543
10.974896,7.684292322357431,0.11003542499879307
10.979487999999998,7.609513204700119,0.10964096853880823
10.984076,7.536943651529167,0.10924359590844228
10.988672,7.47095865036867,0.10881444274068351
10.993248,7.410414397342687,0.10837357965929378
10.997852,7.357354130774808,0.10789474450162477
11.002428,7.303316386493764,0.10746142926430241
11.007032,7.260360366461414,0.10696456981957218
11.011615999999998,7.22758663623011,0.10641075565200614
11.016215999999998,7.201808153600325,0.10584969565275124
11.020804,7.176318181847459,0.10531078470461419
11.025396,7.158434381266842,0.10473306558921983
11.029984,7.148156751858472,0.10411913982314508
11.034576,7.141931697280389,0.10353468596315002
11.039167999999998,7.136938729475499,0.10300783227840708
11.043763999999998,7.137142140376834,0.10249357964842465
11.048352,7.142786299412683,0.10197934055217256
11.052948,7.157180433496721,0.10141170135706229
11.057532,7.176893131001128,0.10085358028810847
11.062128,7.205522129716496,0.100274611969838
11.066712,7.239347507138088,0.09971285505209511
11.071304,7.275915329351252,0.09917800246002112
11.075895999999998,7.318945518860726,0.09863818154252585
11.080484,7.3701147598476595,0.09809227883847436
11.085076,7.4241486303403095,0.09756681416423138
11.089664,7.475528338938644,0.09710260907422322
11.094252,7.533614784261578,0.09662032731076965
11.098847999999998,7.594032978785019,0.09614932349126654
11.103436,7.657926726384906,0.09567061921696932
11.108028,7.720021605089497,0.09520950317213392
11.112624,7.788945405232834,0.09472944106139243
11.117212,7.855459412910147,0.09429789630331963
11.121816,7.918786378387933,0.09391458246233658
11.126404,7.986444189941186,0.09348177657425256
11.131008,8.057533413122256,0.09300277441298539
11.135595999999998,8.129888624893411,0.09251085371178157
11.140188,8.201710956359355,0.0920142270781094
11.144775999999998,8.26735943140591,0.09154995217398194
11.149368,8.330920526680249,0.0910782510284025
11.153956,8.395703469096048,0.09055936538313761
11.158556,8.456722347558479,0.09003422629051022
11.16314,8.513854977353397,0.08950864761061808
11.167736,8.563503620690216,0.08900005228251166
11.172327999999998,8.603336528368423,0.08850634107025278
11.176923999999998,8.641570795130999,0.08798162436084349
11.181527999999998,8.680782539606742,0.08741474408672224
11.186123999999998,8.712632482338527,0.08685516813199476
11.190712,8.736099004164561,0.08631123853318355
11.195312,8.754002593141934,0.08576701417888767
11.199899999999998,8.769696617632947,0.08521380375412924
11.204488,8.774308917875267,0.0846848942079679
11.209075999999998,8.775279338878367,0.08413636832947183
11.213668,8.773262945661603,0.08357550179057538
11.218251999999998,8.767360303777329,0.08301019940089786
11.222827999999998,8.757327043797252,0.08244806306097546
11.227424,8.739443243216638,0.08190688912114702
11.232012,8.71628502066428,0.08138014656574823
11.236596,8.695536590577948,0.08081712775328997
11.241192,8.671434792129313,0.08025546376527498
11.245779999999998,8.638871529509409,0.07973839223694379
11.250372,8.608595874641384,0.07919179820377344
11.25496,8.576887905020502,0.07863239151439678
11.259555999999998,8.548122608170857,0.07805012414117518
11.264152,8.518091322731124,0.07748237666135505
11.26874,8.486016798967805,0.07692985192578176
11.273331999999998,8.453942275204488,0.07637564712210225
11.277924,8.426487108393555,0.07579870662148545
11.28252,8.405327982716157,0.07519925284816462
11.287112,8.385845541219908,0.07459773525292587
11.291707999999998,8.370205206942542,0.07397445158856387
11.296296,8.366501889912891,0.07330584541931068
11.300896,8.367051375693187,0.07263361329664189
11.30548,8.374019087321164,0.07194057969625063
11.310072,8.378210452340676,0.07129438636171269
11.314664,8.381790893789463,0.07067283819948902
11.319259999999998,8.391667376371785,0.0700341296270235
11.323848,8.407062650354142,0.06937659652654098
11.32844,8.424667488822855,0.06873610887727141
11.333028,8.445381326225581,0.06810815490068127
11.33762,8.47149177031419,0.06746649770437677
11.342207999999998,8.49711347554622,0.06685052098957163
11.346787999999998,8.528542483055201,0.06624468474961683
11.351383999999998,8.5594827517076,0.06566215460803804
11.355976,8.599783918978911,0.06504959876118373
11.360572,8.642661204879023,0.06444091151597554
11.365152,8.688891859141435,0.06384219273136614
11.369744,8.737454262604354,0.06326084339531123
11.374324,8.786793915800773,0.06269019393531522
11.378904,8.835522645426465,0.062147594464452886
11.383511999999998,8.881841582586134,0.06163777704855095
11.3881,8.923174608650982,0.06116252833552753
11.392708,8.971048045277653,0.060676649450895036
11.397296,9.018022047456679,0.06020027375486866
11.401884,9.06703928795929,0.05971271644386289
11.406487999999998,9.124640177347315,0.05920165211127634
11.411076,9.183018316468843,0.058701032842770846
11.415672,9.244339128361604,0.05819691395143289
11.420252,9.308724797739748,0.05768395229977223
11.424852,9.375275890155622,0.05716102650629524
11.429439999999998,9.442604232304998,0.05664697539001129
11.434039999999998,9.504047228911906,0.056156487469953706
11.438628,9.562791922175869,0.05567386475384742
11.443228,9.624479288211067,0.055184161019177475
11.447824,9.67962624368444,0.05471508405327029
11.452415999999998,9.730808907224786,0.05426428426087016
11.457,9.776472779365099,0.053825194590873676
11.461595999999998,9.814941175924226,0.053392851342311004
11.466184,9.846869161921529,0.052974549089062684
11.47078,9.877242648451825,0.05254880216667919
11.475367999999998,9.90606163551512,0.052115887958441943
11.479956,9.931160700073676,0.05168966548143882
11.48454,9.938193032413757,0.05130652569888859
11.489132,9.93231086979296,0.05097072065772715
11.493719999999998,9.925651457438661,0.05063064982414587
11.498312,9.903745800922978,0.050326174569044424
11.502904,9.869536573017143,0.05004553103286712
11.507495999999998,9.819836731521633,0.04980701239033623
11.512095999999998,9.75476846115059,0.0496058096307673
11.516676,9.679195488284693,0.0494266145641227
11.521268,9.594383801514025,0.04925529887886787
11.525864,9.513536406676389,0.04906669695494844
11.530452,9.420385440448598,0.048900125786747455
11.535047999999998,9.313132033935364,0.048755210042024245
11.539628,9.196928424394278,0.04864152957974213
11.544216,9.075328208167306,0.048525001478172465
11.548812,8.946043777502567,0.04842473648733385
11.553404,8.813572304638303,0.04834054104502129
11.557996,8.675337670945714,0.04826837495693944
11.562575999999998,8.5313398764248,0.04820690530007082
11.567175999999998,8.377492444428391,0.048178442804633514
11.571764,8.218781286051303,0.04816264943188193
11.576364,8.064156604321392,0.0481230457676834
11.580951999999998,7.911819530343357,0.04806284043447922
11.585551999999998,7.745668526956795,0.04805780745215818
11.590144,7.5804169580178815,0.04805275851883828
11.594736,7.415942638812471,0.048054883765815654
11.599336,7.254943872683507,0.04806706171860802
11.603932,7.1016293209923065,0.0480520068935244
11.608532,6.94909201903461,0.0480416580025691
11.613127999999998,6.79913083570571,0.048033359206818615
11.617716,6.639320014901311,0.048069079543250987
