Time,Force,Position
13.525147999999998,0.007392869518456954,0.0
13.529739999999997,0.004778437767497572,0.0
13.534328,0.0042072443401252385,0.0
13.538919999999996,0.002736616465105052,0.0
13.543508,0.0,0.0
13.548095999999996,0.0,0.0
13.552684,0.0,0.0
13.557267999999995,0.0,0.0
13.56186,0.0,0.0
13.566447999999998,0.0,0.0
13.571043999999995,0.0,0.0
13.575623999999998,0.0,0.0
13.580199999999998,0.0,0.0
13.584812,0.0,0.0
13.589399999999998,0.0,0.0
13.593988,0.0,0.0
13.598579999999998,0.0,0.0
13.603167999999997,0.0,0.0
13.607764,0.0,0.0
13.612351999999998,0.00416893121796374,0.0
13.61696,0.006416808826486105,0.0
13.621543999999997,0.007520882559069275,0.0
13.626143999999996,0.009402206025154628,0.0
13.630731999999998,0.014104017548329205,0.0
13.635336,0.019949632947442973,0.0
13.639927999999998,0.02567306363241107,0.0
13.644523999999995,0.03229592876502702,0.0
13.64912,0.03597612112640808,0.0
13.653712,0.03965631348778914,0.0
13.658292,0.04345869056331587,0.0
13.662888,0.04623944847704907,0.0
13.667483999999998,0.050041825552575796,0.0
13.672079999999998,0.05396638734224819,0.0
13.676668,0.056869329970127065,0.0
13.681251999999995,0.06451381426453653,0.0
13.68584,0.07203611384480035,0.0
13.690427999999995,0.08058003258685768,0.0
13.695027999999995,0.08924613604306067,0.0
13.69962,0.09689062033747016,0.0
13.704216,0.09460301258559176,0.0
13.708803999999995,0.09627969676674179,0.0
13.713403999999995,0.09820075037618316,0.0
13.717979999999995,0.10126560786156373,0.0
13.722568,0.10048835812806156,0.0
13.727155999999995,0.09562463174738527,0.0
13.731744,0.09202689395679386,0.0
13.736331999999996,0.0865081025567611,0.0
13.740927999999997,0.08282791019538004,0.0
13.745516,0.08037397628072783,0.0
13.75012,0.07665405377599074,0.0
13.75472,0.07387329586225752,0.0
13.759315999999998,0.07007091878673082,0.0
13.763896,0.06614635699705843,0.0
13.768496,0.0644696728159084,0.0
13.773076,0.05682518852149892,0.0
13.777676,0.049302888941235114,0.0
13.782263999999998,0.040758970199177784,0.0
13.786863999999998,0.03209286674297479,0.0
13.791448,0.024448382448565315,0.0
13.796039999999998,0.02256705898247996,0.0
13.800628,0.01864249719280756,0.0
13.805224,0.01561736985078302,0.0
13.809811999999996,0.010671188899317096,0.0
13.814396,0.006746627109644701,0.0
13.818983999999997,0.005764738091207202,0.0
13.823576,0.003639045196830506,0.0
13.828163999999996,0.0035949037482023534,0.0
13.832759999999997,0.009274192984542302,0.0
13.837352,0.013727223774153408,0.0
13.841939999999996,0.02136729676329075,0.0
13.846532,0.031587899686498104,0.0
13.851124,0.04439486087024212,0.0
13.855715999999996,0.06576180875424892,0.0
13.860304,0.09937035272109405,0.0
13.864884,0.1462406949113765,0.008013404550959152
13.869476,0.20718981520195454,0.01582878870759707
13.874063999999995,0.27939722553573887,0.023756188545422413
13.878656,0.36347384948345784,0.03160015446135955
13.883252,0.45557757982622876,0.03965129204595656
13.887847999999998,0.559839034659854,0.04770579136678221
13.892439999999995,0.6781792675937747,0.055653414668641696
13.897036,0.8117420825039301,0.06343875171531081
13.901636,0.9579513607615222,0.0711733244122445
13.906215999999995,1.113742244881171,0.07900964380382829
13.910815999999995,1.276416431519932,0.08702760057486489
13.915391999999995,1.4468733551254538,0.09518191795322964
13.919991999999995,1.62548539816664,0.10344876159933779
13.924588,1.8099591245651465,0.11174438996554989
13.929188,2.009777617654033,0.11989507099371487
13.933767999999995,2.214558359652591,0.12816145925444583
13.93836,2.4280110334338185,0.13631262432508703
13.94296,2.6450953468225267,0.14438104106822103
13.947556,2.8595050190534446,0.15227243456514328
13.952156,3.0575822072490757,0.16017746363597343
13.956747999999996,3.2442347792387265,0.16000987155638602
13.961327999999998,3.4133330200516356,0.1601134916342745
13.965919999999995,3.5725611441255687,0.16003581361272803
13.970499999999998,3.716855197100187,0.16014221445099983
13.975091999999997,3.8576193159179932,0.15993423591597283
13.979684,3.9862257102449448,0.15972289564471723
13.984275999999998,4.098177207842802,0.15967024276497008
13.988867999999997,4.195028308178571,0.15976787835131015
13.993447999999995,4.281153998776344,0.159861926376754
13.99804,4.362317440464446,0.15973954710288665
14.002627999999998,4.439051513548088,0.15939853711888038
14.007216,4.510701153007912,0.15886234380765007
14.011807999999998,4.572114121586325,0.1582444218639388
14.016388,4.622923865140886,0.15760906298755042
14.020975999999996,4.654180180643746,0.15725637828037456
14.025575999999996,4.682028746703939,0.15670717150866606
14.030175999999996,4.700139620371042,0.1562676523371425
14.034768,4.71640748369422,0.1558249630873981
14.039347999999997,4.728222316227787,0.15555442039292205
14.043947999999997,4.7462551466293705,0.1552171438324121
14.048531999999998,4.766253172089026,0.15489481829415147
14.053131999999998,4.793324488415717,0.15442759721534427
14.057716,4.821461565352832,0.15399801733879365
14.062316,4.860880594518305,0.15330590531471447
14.066907999999998,4.897479135626686,0.15269853284404347
14.071503999999996,4.937142534220449,0.15201372804673113
14.076079999999996,4.980936550910014,0.15126539125380722
14.080668,5.026529436494876,0.1504884253425008
14.085259999999998,5.070978518203798,0.1497601551605592
14.089851999999995,5.108765004636748,0.1491967647419478
14.09444,5.147040229926281,0.14860494068425534
14.099031999999998,5.1855598246441055,0.14800788452363592
14.103624,5.2291875151708975,0.14728428672020216
14.10822,5.274325563716066,0.14649811788011877
14.112803999999995,5.325060446926783,0.1455234936342388
14.117396,5.375140265118145,0.14457044407873793
14.121992,5.4219888996613514,0.14365013495793438
14.126579999999995,5.4685490233276415,0.14272582621836652
14.131172,5.51314395193586,0.1417927516012705
14.135759999999998,5.551931578267127,0.14093465190939214
14.140348,5.586710771216738,0.14012045469993029
14.144939999999998,5.6174815307846915,0.13935503036771643
14.149527999999997,5.643466607237486,0.13863426776816315
14.154139999999998,5.6587806550326505,0.13809788181444183
14.158728,5.67033063887445,0.13757883500119245
14.163315999999998,5.6782828849256575,0.13712303783169877
14.167911999999998,5.68553592450888,0.1366138037563108
14.172503999999996,5.690457214891597,0.13612159236684618
14.1771,5.697255417435127,0.13554392709501575
14.181687999999998,5.706829966587115,0.1348612618557322
14.186287999999998,5.709453409586214,0.13427234215667094
14.190863999999998,5.709090038365448,0.13369584814130162
14.195467999999998,5.701531191563501,0.13323027299043935
14.200055999999996,5.691151856704464,0.13281424323049315
14.204656,5.678074218502485,0.13243781307668803
14.209248,5.658822723881116,0.13214570108610207
14.213843999999998,5.644024260049357,0.1317334050281441
14.218435999999995,5.617943843989241,0.13151843042266648
14.223028,5.594806100700358,0.13124159355405518
14.227632,5.572445607144978,0.13096021070798924
14.232228,5.55253904750425,0.13065605601962169
14.236815999999996,5.53520860649232,0.13031956262537575
14.241411999999997,5.524951456347427,0.12988679847324516
14.245991999999998,5.516370990383684,0.12943487110147572
14.25058,5.511676773087452,0.12896287307415844
14.255163999999995,5.5103359241535195,0.12845870269242687
14.259752,5.507895412792277,0.12803802742859158
14.264335999999997,5.504066728126803,0.12766573989494512
14.268915999999995,5.496073523548639,0.12744359302688085
14.273508,5.488901710152605,0.12726946715453583
14.278095999999998,5.490113317662321,0.1270139307852778
14.282676,5.49460025026882,0.12678848130861917
14.287267999999996,5.505549550171627,0.12651792242426702
14.291856,5.5233277715131806,0.1261793517374412
14.29646,5.547690544865186,0.12579323597992456
14.301052,5.581336173570592,0.12532307741589419
14.305639999999997,5.613759955134541,0.12494955009340371
14.310239999999997,5.658653634251416,0.124414278083659
14.314832,5.701548216493332,0.1239766717317024
14.319423999999998,5.748817786259342,0.12349108238183805
14.324004,5.79584298659706,0.1230265312458632
14.328599999999998,5.843034513097553,0.12261102109184618
14.33318,5.886261747665016,0.12227670523590728
14.337775999999998,5.931820731432986,0.12193498123154707
14.34236,5.978279149648604,0.12158895460949434
14.346947999999998,6.024615383150077,0.12126026990373764
14.35154,6.076714777479873,0.12084905759679097
14.356136,6.136786897124356,0.12035689432455465
14.360723999999998,6.20323310116789,0.11973970217683272
14.365316,6.270823109087365,0.11910358295230052
14.369903999999998,6.334038129482747,0.1185205556542261
14.374488,6.395043585391768,0.11794338905163149
14.379075999999998,6.450774619329047,0.11742036268307786
14.383671999999995,6.500331796846936,0.11696832728431329
14.388264,6.542937868211935,0.1165848878810332
14.392851999999998,6.579981006728272,0.11623123830646781
14.397443999999997,6.618778872691277,0.1158196644270801
14.402031999999998,6.653035424967414,0.11541934241650158
14.406627999999998,6.685571151613774,0.11498454390007905
14.411216,6.717696182669068,0.11453554429604038
14.415795999999997,6.751453756456884,0.11403731457379046
14.420403999999998,6.780914385986124,0.11352637124345688
14.424983999999998,6.809309254904943,0.11298983463990846
14.429575999999996,6.840724839860513,0.11237073896390473
14.43416,6.868009806720282,0.11177511618205095
14.438747999999997,6.890631275179038,0.11118882647493515
14.44334,6.904747138017896,0.11066136725051097
14.44792,6.910479579951002,0.11018421256391962
14.45252,6.9101603501788675,0.10975242039787336
14.457107999999998,6.906077056453366,0.10931839575063912
14.461703999999996,6.903626305460385,0.10883421122704805
14.466292,6.901664293323987,0.10832308074862997
14.470892,6.906076365586641,0.10771074369004459
14.475475999999995,6.913675480048821,0.10704901784812047
14.480072,6.924217267282236,0.10635015134956187
14.484668,6.934514685087359,0.10566678381585606
14.489259999999998,6.941991614835395,0.10501721013085186
14.493848,6.95449859712688,0.10435226054131319
14.49844,6.970725501923101,0.10365400082831823
14.503027999999995,6.987074591433469,0.10295557432721898
14.507611999999998,7.000358823458456,0.10230125675037748
14.512199999999996,7.018550923312749,0.1016351868621804
14.5168,7.0380531532057535,0.1009844793157096
14.521387999999998,7.051303483413851,0.10042545891150917
14.525979999999995,7.066108313088954,0.09986594447729506
14.530576,7.083655587555627,0.09932685030039815
14.535159999999998,7.1082761528893394,0.0987445519856879
14.539744,7.136372271299498,0.09814335535054801
14.544331999999995,7.166677954196015,0.09755092956712971
14.54892,7.203035308797778,0.09693434789463574
14.553531999999995,7.239681174276461,0.09635120898420943
14.55812,7.273017812841472,0.09582114968422943
14.562715999999998,7.30304522449281,0.09535036809420207
14.567303999999996,7.330907213106416,0.0949152053982055
14.571891999999998,7.359790820881815,0.09447223208229288
14.576491999999998,7.391739286142595,0.09399728472483695
14.581083999999995,7.424465001136877,0.093525743119423
14.585679999999996,7.450894674997624,0.09309921892548395
14.590255999999997,7.476058360268286,0.09270136534949182
14.594855999999996,7.49725775360592,0.09234590534221847
14.599443999999998,7.520622569981286,0.09196255163044179
14.604043999999998,7.5406340179943525,0.09159030821745537
14.608628,7.559335335968706,0.09120466736022549
14.613228,7.5831447497520275,0.09076434948021056
14.617811999999995,7.604744599048988,0.09031379752155921
14.622404,7.62462362271617,0.08982913938145722
14.626991999999998,7.638328789963962,0.08937588208411326
14.631587999999995,7.649702208011249,0.08891968283244578
14.636176,7.658088811838672,0.08845171769032543
14.640776,7.6556822022943205,0.08804128180990597
14.645363999999995,7.649511528796605,0.08761714737798158
14.649947999999998,7.6422750946884666,0.0871622969919355
14.654535999999997,7.632951280808113,0.0866899284706377
14.659119999999998,7.620518467993751,0.08620911955518386
14.663715999999996,7.602933417921794,0.08574210117781628
14.6683,7.5782750769828,0.08530327977007728
14.672895999999998,7.549852672090441,0.08484673977910061
14.677484,7.518076898835781,0.08439180540912096
14.682076,7.480493823304168,0.08393926666420662
14.686667999999996,7.444421105790932,0.0834474861390591
14.691256,7.4030739663059535,0.08297128845267597
14.695856,7.359028523478034,0.08250408018474213
14.700443999999996,7.316004699811905,0.08202259417629731
14.705051999999998,7.263742162241009,0.08159138293076325
14.709639999999997,7.215321731888993,0.08112591084454451
14.714228,7.169233050737485,0.08066329909174846
14.718823999999998,7.126497737948276,0.0801942265160516
14.723423999999998,7.088137412683161,0.07970921689367737
14.728015999999997,7.053907705513851,0.07922137651109336
14.732595999999996,7.028550158106872,0.07869867786663116
14.737195999999996,7.0063016096339,0.07818387691019946
14.741784,6.99075979788553,0.07766394844195072
14.746384,6.975262127585786,0.07718238350477809
14.750967999999997,6.964427955687057,0.07671549893402861
14.755567999999997,6.961322139674722,0.07623588839058316
14.76016,6.965822494834636,0.07574966904327017
14.764755999999998,6.977562467024358,0.07527795149562234
14.769347999999995,7.0000956525858555,0.07476913461604834
14.773943999999997,7.035631616005489,0.07424014632336713
14.77854,7.07480945866434,0.07374316575315189
14.783136,7.12494684085774,0.07324653195620184
14.787716,7.182812578937534,0.0727433005586732
14.792303999999998,7.243665131237191,0.07226546153410783
14.796892,7.316743211661479,0.07176617160857207
14.801479999999998,7.392563736877341,0.07130724868246584
14.806064,7.471737630455504,0.07085784969295783
14.810664,7.552466023500669,0.07042075947933608
14.815255999999998,7.634626731298693,0.07000705943133276
14.819831999999998,7.7197301118679515,0.06958469542560798
14.824427999999996,7.806632361332507,0.06916752482563356
14.829016,7.897010163873508,0.06875415404870232
14.833607999999998,7.987754520556947,0.06833473062830614
14.838203999999998,8.087449080268236,0.06786550761160719
14.842792,8.1886539979979,0.0673740712722478
14.847403999999996,8.286261177936973,0.06690085644740365
14.851992,8.382313858409042,0.06642994050061152
14.856579999999996,8.474358105499453,0.06595567367867733
14.861172,8.557940888418596,0.06552350319773657
14.865759999999998,8.630852642680114,0.0651157084427408
14.870364,8.701921386597705,0.06468331716185835
14.874959999999998,8.764606709609549,0.06424883380696049
14.879568,8.821606915058585,0.06380541605495758
14.884155999999996,8.872144753211312,0.06334772215301492
14.888751999999997,8.915975854639438,0.0628880906956511
14.893339999999998,8.954366207933047,0.062407802628305864
14.897939999999998,8.986049824502057,0.06192274409341539
14.902527999999997,9.00730678184173,0.06143805372218908
14.907127999999997,9.017237645504421,0.060956451099752854
14.911711999999998,9.018951414424134,0.060493765966946444
14.916307999999995,9.012936827457452,0.060028908762769805
14.920891999999998,8.998416634870875,0.059556784970668644
14.925483999999996,8.975024282521966,0.059090383556561
14.930087999999998,8.939694912925342,0.058648786225258244
14.934683999999995,8.895493383566388,0.058209477738909596
14.939272,8.84818285527342,0.057751531338687295
14.943867999999998,8.792000167218124,0.057293652409163134
14.948455999999997,8.73119812221044,0.0568408511040724
14.953039999999998,8.666920524126313,0.05638177406545349
14.957631999999997,8.599167372965738,0.055914595432837985
14.962215999999998,8.522708388205604,0.055474317237941995
14.9668,8.444572719264322,0.055023548688279376
14.971391999999998,8.366192680894747,0.054577262554420296
14.975987999999996,8.287978968687947,0.05415510951403459
14.980576,8.207844202871705,0.053733978615421216
14.985167999999998,8.126199079037086,0.05333351988062011
14.989756,8.04226634745059,0.052948419008520396
14.994343999999998,7.969249013950013,0.052545254596010595
14.998956,7.902038982726387,0.05215368311281786
15.003543999999998,7.83548401652212,0.0517671902929403
15.008152,7.768073757318832,0.051413206185667484
15.012743999999998,7.704794116211346,0.051067874752487856
15.017332,7.645400723771371,0.05074253442604662
15.021928,7.587195276655964,0.050439185762594464
15.026519999999998,7.534674947103364,0.05015616676642042
15.031123999999998,7.481177139837598,0.04991347249092898
15.035704,7.436062753477582,0.049692393434273785
15.040304,7.397777288556313,0.049483963730236585
15.044884,7.365543495340286,0.04928285402232466
15.049484,7.341160242724799,0.0490886967017707
15.054067999999996,7.32438316128156,0.048913569470856545
15.058667999999996,7.309326905468099,0.048781716057539865
15.06326,7.295580779693351,0.048671507052367405
15.067851999999998,7.285432391709194,0.048560234842518035
15.072443999999996,7.2765941337637505,0.048470709566017574
15.077036,7.272253048056546,0.048380336338736785
15.081627999999998,7.27048808097814,0.04829460993048189
15.086219999999996,7.263615018090765,0.04823785764146518
15.090808,7.259562443260481,0.04817524263183694
15.095403999999998,7.255265499001904,0.04812361723823416
15.099991999999997,7.251090739457474,0.04806569646527161
15.104584,7.241930068818222,0.048030772163282345
15.109171999999996,7.225984618188853,0.04801941316460213
15.113764,7.206441429768891,0.048008017547316185
15.11836,7.182156699682399,0.04800874648584238
15.12294,7.156073100700612,0.04801000895998374
15.127532,7.121894591689992,0.04801168687303442
15.132108,7.075001815698159,0.04801983189916611
15.136695999999995,7.0189925105157,0.048034257568079046
15.141291999999996,6.954766110590267,0.0480536030502136
15.145879999999998,6.881134670597288,0.04804748324298528
15.150488,6.80157374361321,0.04802245069173431
15.155075999999998,6.714817341047953,0.04799717592068556
15.159664,6.617023355682629,0.04798514708006592
15.16426,6.513055513897915,0.04796499481006688
15.16884,6.396906285437196,0.04797264767574633
15.17344,6.273195027252858,0.048003659488706385
15.178031999999998,6.144986596830281,0.0480353441787499
15.182627999999998,6.002020661102902,0.04808928992859619
15.187216,5.85353593397549,0.04815452452083626
15.19182,5.701697838485776,0.04820125680390657
15.196407999999998,5.545118201329531,0.0482754522612652
15.201007999999998,5.392869410248755,0.04830047886103284
15.205599999999995,5.238699565558535,0.048337983588418704
15.210196,5.081054167791868,0.04837109938744326
15.214783999999998,4.919033782501109,0.04840007785037929
15.219375999999995,4.7561139627627025,0.04843078049703531
15.223972,4.596791880814886,0.04846288782567123
15.228572,4.440412471638306,0.0484683652712171
15.233164,4.285709746642875,0.04848117203525033
15.237755999999996,4.13730306278098,0.04847916885536442
15.242344,3.9905730631002343,0.04848441490563993
15.24694,3.8439652481336344,0.048473674060099066
15.251527999999997,3.702098974833566,0.048437928307741664
15.25612,3.5599883321052057,0.048425650865874637
15.260716,3.421719796595728,0.04839578641497133
15.265303999999997,3.2890922372004288,0.04834752120350894
15.269896,3.158507916128716,0.04825736934007742
15.274483999999998,3.0352412553523327,0.0481527880494445
15.279076,2.910952975414156,0.04807672163037067
15.283655999999995,2.7880970102288374,0.048042350563365546
15.288244,2.669571891118984,0.047894764661650005
15.292839999999998,2.547082480076102,0.04776979203122717
15.297427999999996,2.426514122642662,0.047623053000179154
15.302031999999995,2.313385610218696,0.047408619569001234
15.30662,2.20667532364241,0.04715106942957381
15.311215999999998,2.1008644715137725,0.04686762026950338
15.315811999999998,1.9949314346709892,0.04659403370904635
15.3204,1.890308527866919,0.04641966864944337
15.324996,1.7787786563585855,0.04399575298966377
15.329576,1.665083361812519,0.04160063926873306
15.334172,1.551265882552307,0.03920567968248015
15.338752,1.4397801524926015,0.03682694921184136
15.343352,1.330870541061694,0.034465753665149985
15.347948,1.2258030368496693,0.03208918874050378
15.352548,1.1243332704282358,0.029713889425919408
15.357139999999998,1.022741319292657,0.02733937941080988
