Time,Force,Position
9.793136,0.05140209707389838,0.0
9.797724,0.06452630233530166,0.0
9.802324,0.07879431147264412,0.0
9.806920000000002,0.09510555893357363,0.0
9.811508,0.1151367288992402,0.0
9.816112,0.1322252260936719,0.0
9.820704,0.1481699194121644,0.0
9.8253,0.16231574383536115,0.0
9.829888,0.17351889548732308,0.0
9.834488,0.18443429357324298,0.0
9.83908,0.19588181465349622,0.0
9.843672000000002,0.2042210941106182,0.0
9.848256,0.2125603735677402,0.0
9.852856,0.2169353610918338,0.0
9.857444,0.2213103486159274,0.0
9.86204,0.22682914001596022,0.0
9.866628,0.23271448555843,0.0
9.871224000000002,0.23667877749145844,0.0
9.875816,0.23962145026269333,0.0
9.880412,0.2363122233490214,0.0
9.885000000000002,0.2312041275400538,0.0
9.889588,0.2205772403310534,0.0
9.894184,0.2071298650649638,0.0
9.898776000000002,0.19356030508472846,0.0
9.903368,0.1743497689903147,0.0
9.907964,0.15910352482892937,0.0
9.912548,0.14602270370527676,0.0
9.917128000000002,0.1367839898005069,0.0
9.921724,0.1307323180952633,0.0
9.926312,0.12161578890463912,0.0
9.930904000000002,0.11315432473337145,0.0
9.9355,0.10260623810076606,0.0
9.940084,0.09324533948185053,0.0
9.944692,0.08490606002472853,0.0
9.949280000000002,0.07656678056760653,0.0
9.953872,0.06924912027227804,0.0
9.958464,0.06385251358639092,0.0
9.963056000000002,0.06139857967173872,0.0
9.967648,0.06086569936652788,0.0
9.972228,0.06184317707969326,0.0
9.976832000000002,0.0600001667357694,0.0
9.98142,0.06020039471543259,0.0
9.98602,0.06363180634325018,0.0
9.9906,0.06105568771445229,0.0
9.995196,0.06040062269509579,0.0
9.99978,0.05974555767573928,0.0
10.004376,0.061788795999326324,0.0
10.008964,0.06142224185688931,0.0
10.013556,0.059667514410221764,0.0
10.018160000000002,0.061099829163080446,0.0
10.022756,0.060488905592352094,0.0
10.027348,0.06862719975893342,0.0
10.031932,0.07341288287409217,0.0
10.03652,0.07717694682745739,0.0
10.041116,0.0769767188477942,0.0
10.045692,0.07473325254454395,0.0
10.050287999999998,0.07146816707950021,0.0
10.054872,0.06538259355736721,0.0
10.05946,0.059541389463525565,0.0
10.06406,0.05639848871262748,0.0
10.068639999999998,0.05901874879005351,0.0
10.073232,0.05869633609624465,0.0
10.077816,0.054444290597174226,0.0
10.082404,0.05485498618823939,0.0
10.086992,0.054689417336343055,0.0
10.091588000000002,0.0535022293226532,0.0
10.096176,0.04859511880422627,0.0
10.100772,0.04405456242823635,0.0
10.105352,0.04160062851358414,0.0
10.109956,0.04016831376072545,0.0
10.114536,0.039102553150303775,0.0
10.119132,0.03096425898372245,0.0
10.123712,0.024991387854873846,0.0
10.128312,0.020040135887818753,0.0
10.132896,0.01803155669199857,0.0
10.137492000000002,0.017044596657971905,0.0
10.142084,0.01605763662394524,0.0
10.14668,0.015970111037566424,0.0
10.151268000000002,0.014738781575248414,0.0
10.155864,0.012485832951136883,0.0
10.160452,0.007290211555790454,0.0
10.165036,0.004915078217533251,0.0
10.169624,0.004915078217533251,0.0
10.174216,0.004338813774571751,0.0
10.178804,0.004626567340613757,0.0
10.183395999999998,0.00707974394438848,0.0
10.18798,0.007079743944388478,0.0
10.192571999999998,0.007079743944388478,0.0
10.197152,0.006136925358989964,0.0
10.20174,0.004050302897652257,0.0
10.206332,0.002740930169816728,0.0
10.21094,0.002740930169816728,0.0
10.21552,0.002740930169816728,0.0
10.220108,0.002740930169816728,0.0
10.224704,0.014273551225653248,0.0
10.229296,0.0401734612587048,0.0
10.233888,0.08146227943076494,0.010726595891775458
10.238484,0.1327433990559465,0.02129981164045509
10.243088,0.19888054651492582,0.03108120898252341
10.247664,0.27435493040767006,0.04089214271261421
10.252268,0.35765619271580307,0.05098653854517305
10.256856,0.45454749426764884,0.060779212675772146
10.26146,0.5687487575679446,0.07009264125384279
10.266048,0.6919207031595683,0.07953119645880113
10.270648,0.8287614885712999,0.08875695505087972
10.275232,0.9736735218267114,0.09799138050672002
10.279827999999998,1.1340958906243999,0.10709999083639779
10.28442,1.3049212564662749,0.11629007658096088
10.289016,1.4912577151613042,0.1253079819434645
10.293612,1.693349636137779,0.13415162945994227
10.298212,1.9088652701951938,0.14288520503100016
10.302803999999998,2.132285825933514,0.1516850556786562
10.307388,2.367531453837141,0.16034999122567833
10.311979999999998,2.6136144365611726,0.16879851585441205
10.316576,2.851273797163376,0.1772051609261898
10.321164,3.072522630464778,0.18567840892077744
10.325755999999998,3.2783825556271706,0.18342506102358966
10.330348,3.4788695362888267,0.1812053329472094
10.33494,3.666465684174754,0.17978079693436033
10.339536,3.852208582085018,0.17819609198654082
10.344124,4.036831338304495,0.17621330440418825
10.348716,4.210195804480764,0.17450618382418798
10.353307999999998,4.368215503966655,0.17328338758229297
10.357888,4.523726888457525,0.17184854363727828
10.362483999999998,4.672521296592056,0.17053582495226663
10.367072,4.81795209673255,0.16915648575025347
10.37166,4.956299366374267,0.16786392513629644
10.376248,5.093526494325195,0.16636062372206115
10.380836,5.219783843109838,0.16499955110609782
10.385432000000002,5.334949228014047,0.16377503185895914
10.390012,5.441642909115248,0.16265180909720733
10.394612,5.547426916137063,0.16140879470833458
10.399204,5.649402717756885,0.16022772922545428
10.4038,5.743816489653085,0.15927562973556245
10.408384000000002,5.839906945730435,0.15832506682501704
10.412984000000002,5.947445680198919,0.15719740983488678
10.417576,6.06054734751606,0.15602822718809167
10.422168,6.173448786853542,0.154965279262643
10.426756,6.286594595619314,0.153892317068641
10.431352,6.392544928803903,0.1529746501859534
10.435948,6.4952640783403375,0.15213121369629548
10.440548,6.5990048470385645,0.15128136615458748
10.44514,6.70450034318346,0.15037326521667593
10.449732,6.8064761448032804,0.14950411041066147
10.454324,6.89647078772676,0.1487964921738933
10.458908,6.980980541067097,0.14810695585055117
10.463488000000002,7.06192645843373,0.14739864706653932
10.468084,7.133301009570046,0.14679560381853998
10.47268,7.198169051961427,0.14621363361782858
10.477268,7.258085085074873,0.14564519949014265
10.48186,7.3105510335471084,0.14506628066860777
10.486439999999998,7.355322527949838,0.1444991712676416
10.491036,7.386880776883031,0.14401863628026706
10.495628,7.415608298127396,0.143457648748001
10.500215999999998,7.436274811159819,0.14292041374604633
10.50482,7.443483709294414,0.14248066749144472
10.509408,7.440710545607628,0.1420913218261468
10.51402,7.43625045810795,0.14159409507136167
10.5186,7.429125969082218,0.14104507001846034
10.523188,7.4167609599016355,0.1404670099109518
10.527784,7.395724018938383,0.13993984148024458
10.532376,7.369202188391985,0.13939949428313692
10.536972,7.334785675796423,0.13890360236893037
10.54156,7.29055342754225,0.13848106824335926
10.546152,7.25073006862906,0.1379172108016304
10.55074,7.2061210266007105,0.13737993228116802
10.555344000000002,7.156481932028912,0.1368833095801061
10.559932,7.104511088256608,0.13639325903422272
10.564536,7.051640810036655,0.13591041862191175
10.569128,6.996316597902049,0.13544195449126054
10.573724,6.942302515806155,0.13497561307578768
10.578308,6.888699129301329,0.1345220663619267
10.582896000000002,6.8427019139687495,0.1339916046269642
10.587484,6.7987920784083835,0.13345873156098859
10.59208,6.756480883763651,0.13295672320208463
10.596668,6.716545579768055,0.13248214018516694
10.601264,6.682051023906972,0.13197944800096653
10.605844,6.639960536505382,0.13167925432400474
10.610436,6.60204480864822,0.13138367585380178
10.615032,6.57165720869779,0.13106683827042007
10.619628,6.547898302206442,0.13074112147081945
10.624224000000002,6.528602666136444,0.13045164567663725
10.628812,6.5195334613161195,0.1301108643371911
10.633412,6.521467937478971,0.12971507520789247
10.638004,6.526844064901379,0.12937859604235286
10.642596,6.538604516354578,0.12905192043548874
10.647184,6.556094226819212,0.12873157632664864
10.651776000000002,6.5817671302099345,0.1284029136360361
10.656368,6.618932453440418,0.12800107343280476
10.660956,6.66248210070169,0.12761133443482414
10.665544,6.712782626136191,0.1272156981070375
10.67014,6.7689345952962725,0.12682662008973353
10.674732,6.829139139286639,0.12647039445002697
10.679324,6.890209215907763,0.12620053903718903
10.683912,6.963382635939376,0.12583412647266745
10.688503999999998,7.044695107448446,0.12542591775961554
10.693092,7.131814881234468,0.1249919076786194
10.697692,7.2360239095258,0.12438806918946825
10.702284,7.339499829532259,0.12383814852045778
10.706888,7.448005802082166,0.12327187411326511
10.711480000000002,7.564973238803343,0.12262693137129634
10.716076,7.683739544419814,0.12197428332451181
10.720668,7.795965439474459,0.12140408356228831
10.725256000000002,7.908191334529104,0.12084648949058924
10.729852,8.019762164564394,0.12029108558462956
10.734448,8.132188287598701,0.11970183237855307
10.739048,8.245347518917884,0.11908668504548264
10.743644,8.352410937083194,0.11848743420416696
10.748232000000002,8.451990368790405,0.11794585661120324
10.752824,8.552380952048003,0.11733945037440711
10.757416,8.64704227629417,0.11673024780992561
10.762,8.735074907081254,0.11612362019980213
10.766588,8.81467997551396,0.11553364624033878
10.77118,8.886346220448868,0.11492663484949749
10.775776,8.943166677181718,0.11439545516649409
10.780356,8.991148875969126,0.11386169638222372
10.784956,9.02776083963092,0.1133715924252893
10.789544,9.043353158671264,0.11298924076648925
10.794135999999998,9.052927707823256,0.11257070434600971
10.798732,9.050066261239213,0.11217025153553509
10.80332,9.028639103948372,0.1118599008109145
10.807916,8.999273123159737,0.11152941683305559
10.812504,8.968386544720987,0.11112565739583792
10.817108,8.927640089175,0.11071919477615912
10.821696,8.882674732635952,0.11025753065365998
10.826284,8.828915259600091,0.10981158357189695
10.830888000000002,8.763663366724469,0.10939960558740579
10.83548,8.696690648219068,0.10895534731751383
10.840072,8.623866485988088,0.10849243000545604
10.84466,8.540493479813627,0.10808719553079736
10.84926,8.454133659419298,0.1076702168384619
10.853839999999998,8.364664840090963,0.1072477621425697
10.858440000000002,8.271964837114474,0.10682638109195042
10.863036,8.181430257175718,0.10636652291555022
10.867636,8.091550742256317,0.1059061890243963
10.872228,8.003103542089777,0.10544234407525725
10.876824,7.915677961085031,0.1049590070086312
10.881404,7.8389234087379105,0.10439675413572261
10.886,7.763112432287067,0.10385624681743387
10.890596,7.692087138951381,0.10329914671378572
10.895192000000002,7.629567451235592,0.1026951525789419
10.89978,7.568646404435435,0.10212014899536655
10.904368000000002,7.5084245641032625,0.10158146622488286
10.908956,7.45634177524855,0.10101685901517429
10.913536,7.403447834843445,0.10052784251721306
10.918136,7.3568940770205025,0.10002762563672309
10.922736,7.319134435694377,0.09951088472691921
10.927328,7.286038292769263,0.09899150440203448
10.931920000000002,7.257527604979645,0.09851455115472149
10.936520000000002,7.237033783953339,0.09802439218856861
10.9411,7.226233513871497,0.0975197703167932
10.94568,7.2241051755723245,0.09701339836243379
10.950276,7.230115888750612,0.09649129715889779
10.954864,7.243121849530419,0.09597663447351737
10.959472000000002,7.265532850377769,0.09542662127699417
10.96406,7.294406218521427,0.09487500024402137
10.96866,7.3341169414854885,0.09430095515857803
10.973256,7.3715841981463015,0.0938044290548781
10.977844,7.421154798217599,0.09326690310153832
10.982448000000002,7.4769433961569165,0.09274524355737791
10.98704,7.540093795840191,0.0922238480549433
10.991644,7.610605997267422,0.0916971578424577
10.99624,7.688602185152756,0.09116244577237738
11.000832,7.7704846217056005,0.09064617871152911
11.005424,7.8631602716302185,0.09007945591766947
11.010012,7.9597221702223475,0.08952883522385681
11.014604,8.064378978843306,0.08895213620660126
11.019208,8.169979363360541,0.08841644163771802
11.023796,8.280443474258453,0.0878474418794074
11.028396,8.39246208462337,0.08728813563743902
11.032979999999998,8.498961903588253,0.08677273492088934
11.037572,8.603907223086132,0.08626496398131497
11.04216,8.711550845926956,0.08575710455203675
11.046755999999998,8.817395599872484,0.08526723560396395
11.051344,8.917721562417977,0.08481492444790041
11.055936,9.014938526029463,0.08436810983155799
11.060524,9.105981633221559,0.08395225047757825
11.065108,9.204420443974504,0.08347066231559842
11.069696,9.289489922726874,0.08304658746470361
11.074292,9.367075415021144,0.08263431524107856
11.078884,9.439753039486108,0.08223149457277576
11.083472,9.509810403873647,0.08180915987226585
11.088072,9.57160653206958,0.0813945656725832
11.092652,9.625796489093267,0.0809941599641936
11.097248,9.670459221335266,0.08061969614144841
11.10184,9.710825009318686,0.08022513446537993
11.106428,9.736922030853885,0.07987771039338938
11.111036,9.756801054521066,0.07951659024931092
11.115624,9.77471488313018,0.07913990168273922
11.120235999999998,9.787554517747212,0.07873734556798316
11.124816,9.794709034801441,0.07832973817995592
11.129408000000002,9.79707786874051,0.07791605396931188
11.134004,9.79106328177383,0.07750764980369924
11.138592,9.777686893063192,0.07709446865415145
11.143196,9.760424255685043,0.0766692645970675
11.147792,9.733023469954476,0.07628066687136034
11.152384,9.699937566661104,0.07588466666056311
11.156964,9.652338527491217,0.07553380162842939
11.161563999999998,9.606494215767999,0.07514305343522464
11.166152,9.56203807734901,0.0747275472070522
11.170748,9.508831963881835,0.07432442620727896
11.175339999999998,9.446631505938182,0.07394227962398195
11.179928,9.385697036584615,0.07353849843315984
11.184516,9.323330252478186,0.07312064656914782
11.189111999999998,9.257732284723605,0.07269277226609881
11.193696,9.187148405874202,0.07229169109939615
11.198288000000002,9.121550438119623,0.07185428234382618
11.202868,9.058650773707987,0.07140501487431178
11.207452,8.988966329306233,0.07098719278691873
11.212039999999998,8.921369264676692,0.0705825124235041
11.216624,8.859823871752397,0.07016805691401015
11.221216000000002,8.802653466352194,0.06974397522717327
11.225800000000005,8.749858048476087,0.06931025994714549
11.230383999999995,8.702992117591075,0.0688729820821284
11.234972000000004,8.666264335058482,0.0684017691394062
11.23956,8.640574135325956,0.06789373291588338
11.244152000000003,8.619913988136878,0.0673854333950227
11.248740000000002,8.61016923903372,0.06684600008461768
11.253336,8.605087988331576,0.06632541408915366
11.257932,8.5986185643252,0.06582540227130207
11.262516000000002,8.605640657033545,0.0652990779961514
11.267112,8.626154266456608,0.06474796421133436
11.271704000000003,8.653374612604267,0.06420793000196509
11.276296,8.687423880190675,0.06367224636583396
11.280883999999997,8.732677056739922,0.06313905654868544
11.285484,8.784104089708558,0.06260038225489827
11.290072,8.841704979096583,0.06206395922333481
11.294676,8.906623528779935,0.06152021289889475
11.29926,8.97759375016853,0.060977026562384705
11.303859999999997,9.052283894061866,0.060430291813279115
11.308452,9.130693960459935,0.05988167075112205
11.313047999999998,9.207838038267921,0.05935468208800211
11.317628000000004,9.288213299724063,0.05884488672072049
11.322219999999998,9.374351722008528,0.05832432707286962
11.326823999999998,9.455259863769879,0.057845643039692855
11.331416,9.539887928035968,0.057368806873584755
11.336004,9.63195583731153,0.05688439226794685
11.340588,9.724678811606452,0.056416621656979034
11.345176,9.816746720882016,0.05594720960556037
11.349776000000002,9.916909540186408,0.055476983899114776
11.354356,10.011431383376623,0.0550289537178997
11.35894,10.097369577681425,0.05461051415676945
11.363532000000005,10.17509067724325,0.054206436352956223
11.368112,10.248192419852687,0.053813570181862794
11.372708,10.31536467547103,0.05341786171533719
11.377295999999998,10.381881866070017,0.05301802910197326
11.381884000000005,10.438793788621796,0.05264712223830658
11.386492,10.48520100867872,0.05230551623748463
11.39108,10.529276479535138,0.05195461550332467
11.395672,10.564890486220287,0.051620850758723684
11.400268,10.588323106229435,0.051308529013413415
11.404856,10.604560250657398,0.05099796947081302
11.409451999999998,10.607838758675852,0.05070358496988559
11.414039999999996,10.59791426085651,0.05043435686479675
11.418643999999995,10.581693721903632,0.05016573970642988
11.423224,10.551370742665306,0.04992099543199115
11.42782,10.507067507855682,0.04969531152864336
11.432399999999998,10.452503939979493,0.04948272840946396
11.436992,10.386414050446657,0.04929505787825663
11.441588,10.300825113942489,0.0491298345790603
11.446175999999998,10.201910986886377,0.04899004872272004
11.450756000000002,10.098621872306168,0.048843427971540246
11.455347999999995,9.989569596897638,0.04870783852938739
11.459936000000004,9.873077476479631,0.04857883880895322
11.464532000000002,9.745958468852628,0.04847320729352919
11.46912,9.608212574016623,0.048392318550470666
11.473712000000004,9.465847322228234,0.04831482195684245
11.4783,9.318740528773313,0.04824469898833258
11.482884000000002,9.164726770614129,0.04819417263659942
11.48748,9.011612446902591,0.04814002574558937
11.492079999999998,8.862218045695792,0.04807797385731632
11.496672,8.713234340080056,0.04803298770990086
11.501251999999996,8.567071122521412,0.04798152835208497
11.505852,8.421562969982123,0.04793771577351972
11.510428,8.276954251890482,0.047889959041610905
11.515016,8.133244968246489,0.047839626426744
11.519612,7.9874924462789085,0.04779684828386228
11.524199999999995,7.840596120435389,0.047763838451324946
11.528788000000002,7.700362389867842,0.04771341396936122
11.533384000000002,7.570388992366858,0.0476451582440152
11.53798,7.447977624589495,0.04755996528012199
11.542576,7.324955333241402,0.04750072650574429
11.547168000000005,7.206308029417404,0.04744749092099093
11.551759999999998,7.090114659508057,0.047405093220347846
11.556348000000003,6.980217330732244,0.04736223400429958
11.560948,6.87403992446117,0.047313420060203226
11.565535999999998,6.771460255980685,0.04726384792895314
11.570136000000002,6.671334521414855,0.047227894180000576
11.574724,6.571986036582527,0.04719858813584992
11.579324000000003,6.467773825369521,0.04718724216577836
11.583916,6.362417810280578,0.04718685257298078
11.588511999999998,6.260126652677013,0.04716510128298118
11.593092000000002,6.157713310359304,0.047148580086479416
11.597688000000002,6.051457860822711,0.047147687820409206
11.602276,5.942137553800738,0.047166851892653856
11.606868000000002,5.829630204579239,0.04721891595505504
11.611456,5.7225194620436275,0.04727208506993084
11.616048000000005,5.617329773117457,0.04732012722079887
11.620639999999998,5.505477488915315,0.04739133959944585
11.625224,5.3886392936183505,0.04749654751782198
11.629811999999998,5.267059556654857,0.047621518795223555
11.634407999999995,5.148666861890888,0.04771432465683623
11.638991999999998,5.026021364316971,0.04779149109213781
11.643572000000002,4.903620236171347,0.04785207516894941
11.648163999999998,4.775700316625688,0.047925970886245985
11.652748,4.647003147346528,0.0479892766900982
11.657335999999995,4.5148304249909215,0.04804104534394367
11.661944000000002,4.384045875939546,0.04805243451129852
11.666532,4.255304565211757,0.0480426801095116
11.671136,4.12848430809341,0.04802444885915462
11.675728000000005,3.9971668787368233,0.04800398770921727
11.680316,3.85624418133303,0.048045978307840534
11.684920000000002,3.713278245605651,0.048124868950292374
11.689508,3.57619765542074,0.04815278186121269
11.694112,3.4392392499499755,0.048173126923643624
11.698691999999998,3.307511125002324,0.04810598833333337
11.703287999999995,3.1684653397593445,0.048055378097548715
11.707868,3.0287644894970076,0.04795313326207296
11.712467999999998,2.8890636392346716,0.04785721620498657
11.717056000000005,2.75062877756242,0.04770451312001153
11.721656,2.617834892004347,0.047502647179114336
11.726248000000002,2.477356792008508,0.04736672001755673
11.730844,2.3393326259273213,0.04727064289726933
11.735428000000002,2.1992652215225474,0.047221483848295144
