Time,Force,Position
13.255024000000002,0.2318828547445608,0.0
13.259620000000002,0.22738568250632155,0.0
13.264211999999995,0.22697498691525642,0.0
13.268804,0.22374380326710203,0.0
13.273391999999998,0.21834719658121493,0.0
13.277984,0.2104966559806756,0.0
13.282571999999998,0.20391210397022114,0.0
13.287164,0.19234164086494476,0.0
13.291756000000005,0.178850124150227,0.0
13.296347999999998,0.17010014910203983,0.0
13.30094,0.16404847739679623,0.0
13.305519999999998,0.152888709882585,0.0
13.310112,0.1490466026637022,0.0
13.314704000000004,0.14009639963585185,0.0
13.319292,0.13098062775610514,0.0
13.323884000000003,0.12317422860419398,0.0
13.328475999999998,0.11716669834757852,0.0
13.333076000000002,0.10833868003387383,0.0
13.337672,0.10155390004375617,0.0
13.34226,0.09669017366307991,0.0
13.346856,0.09836685784422995,0.0
13.351443999999995,0.09967698788294298,0.0
13.356052000000002,0.10086493320751032,0.0
13.360628000000002,0.10577280103681475,0.0
13.365232000000002,0.11272390718970621,0.0
13.369808000000004,0.12020789364780853,0.0
13.374408,0.12564864178232377,0.0
13.378995999999995,0.1340320626880739,0.0
13.383596,0.1444587219174111,0.0
13.388188000000005,0.15092108921371988,0.0
13.392784000000002,0.15750564122417435,0.0
13.397372,0.16907610432945075,0.0
13.401964000000005,0.17704882964413574,0.0
13.406552,0.18910803160599482,0.0
13.41114,0.20415329047683944,0.0
13.415727999999998,0.20852827800093304,0.0
13.420316000000003,0.21032714689622878,0.0
13.424904000000002,0.21596812301040721,0.0
13.429495999999997,0.2167453727439094,0.0
13.434092000000003,0.21368051525852882,0.0
13.438675999999996,0.20645113786045666,0.0
13.44326,0.20556194304454758,0.0
13.447847999999995,0.20938038807827974,0.0
13.452443999999996,0.2144750613338356,0.0
13.457036,0.22701981923060432,0.0
13.461616000000005,0.2439498042832054,0.0
13.466216,0.27131668819688254,0.0
13.470808000000002,0.3066326352400941,0.009584222440612768
13.475396,0.356770708300214,0.01891986369780001
13.479988000000002,0.4306030671395751,0.0276695530488483
13.484576,0.5240432351110031,0.036235875076204606
13.48918,0.6378684619480006,0.04463570824293928
13.493759999999998,0.7737112903830892,0.052893514679395986
13.498364,0.9241318754067949,0.06121999514882312
13.502944000000005,1.0881085978573242,0.06957305623355917
13.507544,1.2787222788583292,0.07786849220337265
13.512128,1.4857567267918754,0.08628030287187782
13.516727999999995,1.7054920191532252,0.09479266880777384
13.52132,1.9480221628461687,0.10326840825947614
13.525912000000002,2.212325538708912,0.11169248477563012
13.530492,2.4950826801960444,0.12004952671266174
13.535087999999998,2.791796415069326,0.1283382834776403
13.539675999999996,3.098580494661248,0.1366067153854789
13.544272000000005,3.419477254170355,0.1447996459310473
13.54886,3.746880522424398,0.15295908209021677
13.553448,4.08446608047949,0.16105710440390644
13.558035999999998,4.424994311305816,0.16910183294086345
13.562631999999995,4.774873201119319,0.16738453244914595
13.567220000000002,5.114471278602781,0.1658713680381963
13.571816000000002,5.429475635859354,0.16498234314138313
13.576407999999995,5.723972749536212,0.16427668556826197
13.580996000000004,5.998862054081003,0.1637130525475901
13.585596,6.255742190409358,0.1632824270941802
13.590183999999995,6.502297372959045,0.16271825662895584
13.594776,6.73636217869233,0.16209572890858934
13.599372,6.955071978103496,0.1614734088702165
13.603956,7.163901421143948,0.1606480851974006
13.608548000000004,7.360030019756595,0.159676578118506
13.613136,7.541947415923063,0.15867542396353676
13.617715999999998,7.706833121586262,0.15768811239641137
13.622311999999996,7.855508527928322,0.1567408244097341
13.626904,7.98809581966339,0.15582270851894006
13.631496000000002,8.10741548484855,0.15487394598538995
13.636084,8.213223154055518,0.15392224164386262
13.64068,8.310426695113595,0.15291375510529429
13.645272000000002,8.398170815023757,0.15189611248813004
13.649876000000004,8.474822971053488,0.1509049757332113
13.654459999999997,8.534541959108944,0.15007413448508433
13.65906,8.589064568458177,0.14927025538850736
13.663652000000004,8.650083446920608,0.14835175537193435
13.668248000000002,8.713756487277353,0.14737562740510415
13.672836,8.777263201471325,0.1463812195135551
13.677432,8.839948524483168,0.14536466381508298
13.682019999999998,8.899402663846855,0.14438480649253702
13.686612,8.956236543133116,0.1434059617170676
13.691199999999998,9.011105227361307,0.14243462795008685
13.695784,9.060821674331903,0.1415222453565277
13.700371999999998,9.10910580654964,0.1406198345744143
13.704972,9.154936004852726,0.13974580408788467
13.709556000000005,9.198434453955304,0.13888775422326957
13.714147999999998,9.243198891647967,0.13801157312017273
13.71874,9.286164460445336,0.13715829739087168
13.723328,9.326187356471468,0.1363474908760245
13.727923999999998,9.361635036993846,0.13562283707588801
13.732511999999996,9.388132514488372,0.13501958946849785
13.737104,9.413852742249395,0.13442874475503017
13.741699999999998,9.441494023619859,0.13382038905492796
13.746292,9.468480239970967,0.13321029454505143
13.750888,9.495710825750367,0.13259095621549347
13.755480000000002,9.517833315720802,0.13204480960873638
13.760068,9.537668197939356,0.13154026804598706
13.764664,9.556237091567827,0.13106247209612
13.76924,9.575705419643942,0.13057995109000847
13.773836,9.593497063538909,0.13010973049207292
13.778412,9.610389272986227,0.12964914824221496
13.783012000000005,9.621273952176931,0.1292621289973048
13.787592,9.629093773882254,0.1289140647196935
13.792188,9.635769791711638,0.12858561879384375
13.796772,9.639625321483932,0.12828634010392148
13.801368,9.647200773760964,0.12795345378477357
13.805947999999995,9.650279053799755,0.12765881997463335
13.810531999999998,9.655522756876278,0.12733456384875344
13.815124,9.661543709686306,0.12700829784353965
13.819708000000002,9.670873889410007,0.12663426052267812
13.824296,9.685067795514383,0.12620661092490418
13.828880000000002,9.690678052733347,0.12586633694545638
13.833468,9.692446202733427,0.1255667966839328
13.838064,9.69462504832457,0.1252812488237325
13.842656000000002,9.697581143649217,0.12499454671327256
13.847244,9.703602096459242,0.12467138239417815
13.851836000000002,9.711421918164566,0.12433525811549964
13.856416,9.718220120708095,0.12401146598922466
13.861008000000002,9.72489613853748,0.12369481539503077
13.865604,9.737335317195187,0.12332446362393307
13.870192,9.751451180034044,0.12294738823374395
13.874788,9.775172310920109,0.12247939878676024
13.879375999999995,9.806455471529793,0.12194531402469805
13.883956,9.837616447425333,0.12141748016615726
13.888560000000002,9.870454107502022,0.12088268656103397
13.893151999999995,9.901248529255124,0.12037702616294191
13.897755999999998,9.937317372979965,0.119840686561812
13.902336000000002,9.97109860895293,0.11934057342036572
13.906935999999998,10.007944702411276,0.1188101399478907
13.911516000000002,10.044546426441329,0.11829441023501944
13.916112000000002,10.083191388794972,0.11776116778948932
13.9207,10.127477327262794,0.11717925467443997
13.925299999999996,10.176504807397144,0.11656098851211086
13.929883999999998,10.227819895283373,0.11591442105639614
13.934479999999995,10.27721392956016,0.11528709627902725
13.939068000000002,10.323543106351567,0.11469543217872327
13.943659999999998,10.368972848695325,0.11411377653929913
13.948248000000005,10.417345263810319,0.11350724630987272
13.952844000000002,10.46530698333425,0.11289251560982533
13.957432,10.505706673134556,0.11234367626127754
13.962016000000002,10.545573482629653,0.11179042739636522
13.966604,10.582741988781807,0.11126268768550202
13.971196000000004,10.617334376305166,0.11075327656170912
13.975792000000002,10.656135425189841,0.1102037790112813
13.98038,10.693626344035806,0.10964803378023429
13.984976,10.72800826394776,0.10909679303480091
13.989563999999998,10.760058434659207,0.10855210588319655
13.994156,10.792475159513094,0.10799502491016892
13.998735999999996,10.821538516004678,0.1074524687470729
14.003324000000005,10.847370688848107,0.10691773030074628
14.007928000000003,10.86895005888159,0.10640098164016627
14.012516000000002,10.889996548609863,0.10587735183363912
14.017104,10.905113551347036,0.1053758384590338
14.021696000000002,10.918798239331352,0.10487278273874846
14.026296,10.939512076734077,0.10431428041234243
14.030888,10.963901695192911,0.10370878315305669
14.035480000000003,10.982484011374792,0.10311612959192147
14.040072,10.998079513336808,0.10252115859370856
14.044652000000005,11.010610157813446,0.10195378174441296
14.049252,11.02567277947025,0.10135127787223222
14.053839999999996,11.037259848050606,0.10076248949211968
14.05844,11.04177362576393,0.1002044996252557
14.063024000000002,11.0438334695626,0.09965215511377923
14.067615999999996,11.04061889138953,0.09912262423670913
14.072196000000002,11.04136860514949,0.09856503126013023
14.076787999999995,11.045838241414184,0.09798777149161965
14.081376000000002,11.045932890154788,0.0974259740642224
14.085972000000002,11.045494658590178,0.09685552577761705
14.090552,11.044156992577921,0.09628850453772848
14.095136,11.04126482709866,0.09571873175051439
14.099723999999998,11.03608505386752,0.09517203182849056
14.104316,11.029228596455228,0.094628435775201
14.108900000000002,11.024048823224089,0.0940802001161565
14.113488,11.017847430831154,0.09354030098173205
14.118076,11.003062389552808,0.09305307877009035
14.122663999999997,10.982025448589555,0.09261747807119358
14.127267999999995,10.966018560169752,0.0921706294798117
14.131852,10.950422367341014,0.09173630211503075
14.136439999999997,10.934948359226421,0.0912962986377326
14.141032,10.915143505036365,0.09089538896186336
14.145611999999996,10.898814203922754,0.09048353429518304
14.150204,10.885593901743151,0.09007285615113737
14.154799999999998,10.86894218793573,0.08969745236304037
14.159392,10.85282335443352,0.08933049432808893
14.163988,10.832495859569992,0.08899927663310506
14.168575999999998,10.80411759612626,0.08872483228130458
14.173176000000002,10.77986995077833,0.08844497302078339
14.177756,10.758198424059195,0.08815853487190575
14.182351999999998,10.739635896274073,0.08787553756933944
14.186944,10.723815813280522,0.08760847498664426
14.191532,10.714780510277087,0.08730071147839168
14.196127999999998,10.708199141188306,0.08699161766856209
14.200723999999996,10.704071706014178,0.08668186527702357
14.205316,10.699455531983466,0.08638898354612588
14.209908000000002,10.697659846009843,0.0860818705094491
14.214508,10.702771124740483,0.0857316638953647
14.219108000000002,10.711846695404152,0.08535837663375032
14.223699999999996,10.726563242182001,0.08496100249591385
14.228292,10.747042949788172,0.08453548107156801
14.232884000000002,10.775984121565612,0.08407285693674776
14.237467999999996,10.805702543076553,0.08361471683743368
14.24206,10.838608006787021,0.0831335583263768
14.246652,10.879442054363546,0.08260701018319484
14.251236000000002,10.920931166959427,0.08208721168950275
14.255816,10.965362952326542,0.08155363176230204
14.260412,11.017478952131423,0.08098087047149104
14.264992000000005,11.069839321364597,0.08040358016553835
14.269583999999998,11.120034267560037,0.07984796538240875
14.274179999999998,11.16789746455497,0.07929052876659895
14.278768000000005,11.22123531150131,0.07869284876634598
14.283364000000002,11.27559477760944,0.0780966926040613
14.287952,11.33199748204116,0.07749314031305216
14.29254,11.385946252558226,0.07689187379340927
14.297144,11.441038826951232,0.0762816967579144
14.301731999999998,11.495887031915949,0.07568214329342043
14.306327999999995,11.547670379395283,0.07510636490472827
14.310916000000002,11.59483436992223,0.07455026503890458
14.315512000000002,11.633536896277912,0.07402819829500393
14.320092,11.66839731541471,0.0735267925586392
14.324692000000002,11.698105497293913,0.07303383290308331
14.329283999999998,11.725237560544317,0.07254498804009983
14.333876,11.750570754899426,0.07206279980299343
14.33846,11.773083461197446,0.07159405830316841
14.343056,11.799027579123281,0.07109966449732552
14.347652,11.823172828153824,0.07061125189880159
14.352248,11.848706250488595,0.07010986321203848
14.356835999999998,11.87448404225166,0.06960365178627358
14.361431999999995,11.901405637890663,0.06909007495728989
14.366024,11.927427799082018,0.0685784726101787
14.370608,11.945110680816251,0.06809079301616154
14.375200000000005,11.95727477115045,0.06761811798308097
14.379783999999995,11.965963308408204,0.06714953007244427
14.384376,11.97567346482775,0.06667646160207602
14.388972,11.987793413713321,0.06618423329342481
14.393556,12.001423720617266,0.06567391105234816
14.398143999999998,12.017341635273091,0.06514856225226567
14.402736,12.03428116909071,0.06461924361648023
14.407324,12.05596224457486,0.06407635953166413
14.41192,12.073923397554271,0.06354152078285095
14.416515999999998,12.09164018110539,0.06301463805725226
14.421104000000003,12.109479149370657,0.062484693470056196
14.425707999999997,12.126296498474131,0.061960448983605025
14.430296000000002,12.141970043701667,0.0614461317604898
14.434900000000004,12.151880428100874,0.060950157855864634
14.439491999999998,12.160114128318934,0.060452816398408465
14.444084,12.16258466770867,0.05997293200633406
14.448688,12.163134153488965,0.05949923010327972
14.453280000000005,12.160085901478666,0.05902883559887953
14.457876000000002,12.159980322239605,0.05854905296125923
14.462464,12.167192403295871,0.05806019857356196
14.467063999999995,12.173138495762055,0.05758171628001488
14.471652000000002,12.179861837961738,0.05710669386705694
14.476252,12.186707364875566,0.05662914284087251
14.480832000000005,12.188200426552138,0.05618006203918412
14.485432,12.18356377325795,0.05575511333211195
14.490016,12.172020155259496,0.05535129762938781
14.494612,12.160598721975191,0.05494406537324355
14.499204000000002,12.150321092566823,0.054530327622060906
14.503800000000002,12.142741766501398,0.05411378190986207
14.508399999999998,12.13299701739824,0.05370763992179704
14.512995999999998,12.120964660543205,0.05331535923538451
14.517588,12.109587368707526,0.0529294669966584
14.522180000000002,12.095511773528902,0.05254390675637689
14.526768,12.083112862531427,0.052160015247233536
14.531364,12.072146266286817,0.0517854957636143
14.535948,12.06261198479506,0.051419884513538
14.540544,12.05348839889437,0.05106788433908546
14.545136000000005,12.0438760741371,0.05072848805290704
14.549724,12.031731772199656,0.050410721640702344
14.55432,12.008594028910776,0.05012620039182179
14.558908,11.98713296980305,0.04984371510883186
14.5635,11.961096695191562,0.049589151813852504
14.568079999999998,11.92958577062867,0.049362336177634004
14.572667999999997,11.896031607742193,0.04914129670047285
14.577264000000005,11.864687009342076,0.04893284471713129
14.581852,11.835019095123108,0.04872596989582535
14.58644,11.798732727076796,0.04855446643558799
14.591036,11.754273405736136,0.04841129197075402
14.59562,11.705727607748303,0.048281517409556544
14.600216,11.654239136989236,0.04815777576024622
