Time,Force,Position
13.316307999999998,0.09747353860336869,0.0
13.32092,0.0985891989984663,0.0
13.325508,0.09858919899846628,0.0
13.330092,0.09858919899846628,0.0
13.334683999999998,0.09858919899846628,0.0
13.339272,0.09706284301230353,0.0
13.343876,0.09349324870255371,0.0
13.348456,0.08403830885033411,0.0
13.35306,0.0727845001028188,0.0
13.357648,0.06308519082230785,0.0
13.362244,0.05440750070359042,0.0
13.366832,0.045851995299018664,0.0
13.371424,0.037174305180301244,0.0
13.376008,0.03231057879962497,0.0
13.3806,0.023877258109198884,0.0
13.385191999999998,0.015321752704627122,0.0
13.389784,0.007787866461848887,0.0
13.394372,0.008198562052914053,0.0
13.398967999999998,0.006932573462829186,0.0
13.403556,0.007465453768040022,0.0
13.408152,0.011035048077789836,0.0
13.412739999999998,0.010668493935352822,0.0
13.417319999999998,0.011539784902159083,0.0
13.421912,0.013310510316613195,0.0
13.426495999999998,0.01688010462636301,0.0
13.431088,0.020571883650258495,0.0
13.435676,0.02438584738829965,0.0
13.440271999999998,0.028566365268777823,0.0
13.444852,0.032746883149255994,0.0
13.44944,0.03578359715379497,0.0
13.454043999999998,0.03894249587247962,0.0
13.458632,0.04300082903881212,0.0
13.463219999999998,0.0478364119386468,0.0
13.467812,0.051800703871675215,0.0
13.472412,0.05957895954274479,0.0
13.477016,0.06568053103266434,0.0
13.481604,0.07190428723672956,0.0
13.486199999999998,0.07186014578810142,0.0
13.490788,0.07144945019703625,0.0
13.495384,0.07103875460597107,0.0
13.499971999999998,0.06746916029622127,0.0
13.504568,0.06795789915280395,0.0
13.509151999999998,0.06910170302874313,0.0
13.513751999999998,0.070367691618828,0.0
13.518336,0.06701432325652795,0.0
13.522928,0.06623707352302578,0.0
13.527536,0.06305003132349954,0.0
13.532132,0.05886951344302136,0.0
13.53672,0.054837417876214205,0.0
13.54132,0.05616802717840479,0.0
13.545912,0.06699195944539535,0.0
13.550503999999998,0.08436654190595103,0.0
13.555084,0.10714797068413257,0.0
13.559668,0.13603545224792468,0.0
13.564256,0.17819056036162073,0.010094290007910183
13.568851999999998,0.23995347760738395,0.019759026567909774
13.573444,0.31952533508991854,0.0291737614360062
13.578032,0.4239352822276335,0.038196659680307755
13.582631999999998,0.5504850156775853,0.04691105837991161
13.587212,0.6947995479156805,0.055516110500584206
13.591803999999998,0.8560734857275751,0.06413910158309237
13.596396,1.0315867694664913,0.07280915250455143
13.600988,1.2260527973181181,0.08140340008977284
13.605596,1.4392271998541641,0.08993567895911675
13.610184,1.676995322617099,0.09834654979684472
13.614768,1.9283195828068576,0.1067929036510682
13.619364,2.2059922906701726,0.1150623691433027
13.62396,2.5061431955073203,0.12319732702231334
13.628555999999998,2.8245214003896675,0.13127078013198937
13.633148,3.157545165494412,0.1392564841135606
13.63774,3.498263384668662,0.1471760708300181
13.642328,3.8457324820161385,0.15505901965028435
13.646928,4.198642327498132,0.16293944232443736
13.651512,4.561113299578705,0.17071041741505782
13.65612,4.915024284959015,0.16833553839259796
13.660707999999998,5.256156382646004,0.16633342534677756
13.665307999999998,5.583487973477878,0.16454388486316443
13.669892,5.895342373273487,0.16307879309142415
13.674487999999998,6.186367116795572,0.16194363371783893
13.67908,6.4650678096640295,0.16088592127250143
13.683676,6.735408743811888,0.15975155305786445
13.688263999999998,6.9982452122381655,0.15848257743335464
13.692856,7.246626108789973,0.15723480427788594
13.697444,7.476709326248424,0.15604719060915948
13.702028,7.687473245451729,0.15496326828488502
13.706608,7.88635771140936,0.15380090210688818
13.7112,8.063879640788256,0.152786507177576
13.715796,8.219550294731837,0.1519066198614877
13.720384,8.36003226851607,0.15103628163724103
13.724976,8.483282323817372,0.15020940539465433
13.729563999999998,8.584969614560274,0.14948382811336508
13.73416,8.672822496631174,0.1487772941001233
13.738739999999998,8.750438707820658,0.14804053757496752
13.743328,8.811854859320743,0.14741087261938482
13.74792,8.865987252342386,0.14680943109204567
13.752508,8.919542623610194,0.1461819028991487
13.757111999999998,8.96970048506707,0.14555736205273287
13.761704,9.014173228961141,0.1449804744405046
13.766291999999998,9.061911058320256,0.14431585307877032
13.770891999999998,9.10494124782973,0.14364917329083562
13.775491999999998,9.140321124718328,0.14302157045937497
13.780088,9.168461384577114,0.1424476734091417
13.784676,9.191283081015529,0.14189746933645567
13.789272,9.217492047633135,0.14125992764910736
13.79386,9.244145611658697,0.14057421407892567
13.79846,9.266135677283245,0.1399120117040194
13.803048,9.285916178421433,0.1392567846215435
13.807643999999998,9.305530353396843,0.13857661423364767
13.812228,9.3237122136194,0.13790234231679824
13.816819999999998,9.338051966623071,0.13727394347016733
13.821408,9.35839924988336,0.13656442546538072
13.826004,9.378990902571939,0.1358453507601964
13.830588,9.400848543850602,0.13510606241714038
13.835184,9.423072739271703,0.13434972445302837
13.839767999999998,9.443620250511653,0.13360475359745852
13.844364,9.4553397434379,0.1329694654491584
13.848952,9.465260367468849,0.1323510922636159
13.853547999999998,9.475180991499798,0.13173275581374072
13.858136,9.480892954169429,0.13117735452569795
13.862728,9.483540059353677,0.13066220010839988
13.867312,9.486842229557285,0.13015024328900102
13.871892,9.487978976723157,0.12967080344595616
13.876484,9.4877275505848,0.1292209385601844
13.881075999999998,9.477504302256799,0.1288951600135585
13.885652,9.460906969529745,0.12866087514203892
13.890264,9.447907374593283,0.12839469378288765
13.894851999999998,9.436462279123827,0.12812401908630108
13.899451999999998,9.426327313693081,0.1278596305901382
13.904047999999998,9.410839883025076,0.12767177866175983
13.908636,9.39960525516702,0.1274559466237862
13.91324,9.390335822367033,0.1272504163777285
13.917827999999998,9.382132150177469,0.12706263212584354
13.922432,9.373073184988886,0.12691302589417008
13.927012,9.36879990291546,0.1267463540634293
13.931612,9.370333923118988,0.1265505453322159
13.936199999999998,9.382783341408436,0.12626330980858835
13.940796,9.402472376727694,0.12595133283126703
13.945379999999998,9.424126607105022,0.12565083942638838
13.949979999999998,9.450033640292295,0.12532725758061228
13.954564,9.482891779632462,0.12495981324277902
13.95916,9.520369275925013,0.12455698477781169
13.963751999999998,9.56275464004687,0.12413546060899358
13.968344,9.608493372531026,0.12369798700215359
13.972931999999998,9.665802568120458,0.12317819001990787
13.977527999999998,9.729529989557571,0.12260527788357299
13.982116,9.792113607118745,0.1220575691443257
13.986703999999998,9.85326490992706,0.12151241007529527
13.991292,9.916703820487252,0.12094019028136234
13.995879999999998,9.988848564647004,0.1202859373512868
14.000464,10.060338243787399,0.11963391049706422
14.005055999999998,10.129740543155581,0.11898420486673009
14.009648,10.200242504951074,0.11829625899126159
14.014236,10.269434336707851,0.11760471823205845
14.01882,10.333185420330116,0.11692801452248425
14.023412,10.390351951941925,0.11628054185363133
14.028,10.43954575823905,0.11568971938602463
14.032592,10.48072269777286,0.11512450934961174
14.037172,10.52107824612454,0.11453515943793302
14.041759999999998,10.559957338274737,0.11392115179180862
14.046355999999998,10.595194551185712,0.11330810616906258
14.050948,10.624257907677297,0.11273400121492479
14.05554,10.649268689338596,0.11214408743705453
14.06012,10.67615638316071,0.11151592125775808
14.064711999999998,10.695682275238866,0.11091300739083347
14.069292,10.713365156973097,0.11029691413236095
14.073892,10.727939039773322,0.10968472852501776
14.078487999999998,10.740058988658895,0.10907875849595904
14.083087999999998,10.748825569182166,0.10848695242761239
14.08768,10.75256209716199,0.10791515542648683
14.092276,10.753966875941304,0.10734500135101167
14.096863999999998,10.75279553609182,0.10678555718575623
14.101459999999998,10.748925892899395,0.10624211854669081
14.106048,10.743868304382403,0.1056853043807114
14.110644,10.741753388636642,0.10510534697406597
14.115232,10.740660092052678,0.10451445260993202
14.11982,10.735436177372911,0.10392995790242275
14.1244,10.733154935464373,0.10332144957858358
14.128991999999998,10.729319194088836,0.10271311615323359
14.133584,10.719598107170825,0.10214967860218864
14.138176,10.708078151357523,0.10159488796994781
14.142772,10.695125880791363,0.10103318251987731
14.147348,10.682706490530412,0.10047954201442809
14.151928,10.661825636098195,0.0999786594301622
14.156511999999998,10.63632542471359,0.09950124555168095
14.1611,10.60596148694831,0.09905747787874153
14.165687999999998,10.573432126145297,0.09863399657693422
14.17028,10.54245726480929,0.09820887439819506
14.17488,10.508295361273754,0.09781321291167376
14.179476,10.471312969681131,0.09743271391519617
14.184067999999998,10.436906696717305,0.09704214523051968
14.188672,10.403155488772835,0.09665465643264134
14.193252,10.366339423342987,0.096291502501685
14.197839999999998,10.329934053504205,0.09594043484513826
14.202428,10.292018325647044,0.09561516369860704
14.207032,10.255534912542744,0.09529376515557336
14.211619999999998,10.228823093648423,0.09492995480930838
14.216219999999998,10.201500351183373,0.09458811208741008
14.220816,10.174343934881097,0.09426826863639812
14.225408,10.151440321388769,0.09393596573299522
14.230004,10.128580849345068,0.09363075424091256
14.234595999999998,10.113449733187764,0.09330342850415126
14.239184,10.103470854288055,0.09296278570466654
14.243784,10.101342515988883,0.09259613569889293
14.248371999999998,10.106043099128458,0.09221111500517509
14.252968,10.118594222868575,0.09180148937945852
14.257547999999998,10.137807941884663,0.091352677471197
14.26214,10.159597779529545,0.09089899438949745
14.266728,10.1906263310792,0.0904021079714933
14.271319999999998,10.229383238515249,0.08988893522831004
14.275912,10.269939014846592,0.08937370230259208
14.280499999999998,10.313070909806735,0.08885513305920549
14.285095999999998,10.364053345367415,0.08831684457729307
14.289675999999998,10.419655137880481,0.08776199095113175
14.294268,10.476278549555339,0.08720266574591196
14.298864,10.535067384267933,0.0866280741114672
14.303451999999998,10.590913546209292,0.08607843238736523
14.308044,10.645738088988853,0.08553781415561887
14.312623999999998,10.7036274892538,0.08497774578547133
14.317223999999998,10.761516889518743,0.08442008682094045
14.32182,10.823859320573296,0.0838235274850197
14.326416,10.881704579389615,0.08324876457407891
14.331012,10.931332743462956,0.08270855347915565
14.335603999999998,10.979406408069291,0.08217056417229651
14.340196,11.032588168484594,0.08160384633410067
14.344775999999998,11.083315994985245,0.08104279148278502
14.349375999999998,11.130978964000514,0.08050708034986515
14.353955999999998,11.177209618262925,0.07996798110082334
14.358555999999998,11.217921481125304,0.07945453566178978
14.363148,11.253236737301796,0.07896014959774295
14.36774,11.284832070973552,0.07848286660491885
14.372327999999998,11.311152982673566,0.07801697949677792
14.376924,11.332566026544274,0.0775525753217515
14.381524,11.349237528748452,0.0771106575871408
14.38612,11.367952269276216,0.07665889988996458
14.390712,11.389365313146925,0.07620476714456613
14.395303999999998,11.409346042264776,0.07574448714503863
14.399892,11.432635998296297,0.07525959590544391
14.404483999999998,11.455026519880171,0.07477968176544986
14.409076,11.482402952558866,0.07427737622100332
14.413672,11.50785833162812,0.0737869082771989
14.418255999999998,11.532780830392166,0.07328811578662982
14.422848,11.56142325166095,0.07277713749277807
14.42744,11.588266804034431,0.07227178670719546
14.432028,11.608692130560238,0.071787519562932
14.436624,11.628218022638395,0.07130687844235332
14.441207999999998,11.64888771859249,0.07081836029649821
14.445796,11.668413610670648,0.07034023208280059
14.4504,11.687528807157737,0.06984974849997794
14.454987999999998,11.707254927215558,0.0693408975700589
14.459576,11.72824703586346,0.06882013151662297
14.464163999999998,11.7529590670161,0.06828879363342082
14.468752,11.777671098168742,0.06775847531426933
14.473348,11.803771302625613,0.06721264372019749
14.477939999999998,11.822553846787155,0.06668346616227191
14.482544,11.83401873065337,0.06617195367911673
14.487124,11.848181917862526,0.06565792287337399
14.491724,11.858625182566945,0.06515451177269176
14.496311999999998,11.87009006643316,0.0646483663550151
14.500915999999998,11.875258909165838,0.06415355898635651
14.505508,11.877729448555574,0.06366292877327766
14.510108,11.882776106574108,0.06317374394424134
14.5147,11.88728988428743,0.06267514367377876
14.519296,11.892825281162544,0.062172252493584934
14.523887999999998,11.898238493323518,0.06167314730428621
14.528484,11.90275227103684,0.061175497184334224
14.533072,11.905589364569012,0.06067701168198314
14.537672,11.911491315586565,0.06016593703800747
14.542263999999998,11.915760723871598,0.05967725902648932
14.546848,11.91749815497646,0.05921144206400383
14.551436,11.91874684722474,0.05876077107498773
14.556024,11.92473708113955,0.05830124753891332
14.560608,11.935102302578454,0.057843339242472924
14.565204,11.944201535427275,0.05739756261461262
14.569788,11.958697374961982,0.056947043120878844
14.574372,11.977690386734928,0.05649384509082756
14.578967999999998,11.995661779346083,0.05604722177958935
14.583556,12.020828647538416,0.05559850802531833
14.588148,12.043952277407167,0.05516009471948946
14.592743999999998,12.067242233438686,0.05474239979020634
14.597332,12.089921265899479,0.05434206428667939
14.601928,12.105815518370155,0.05395947249417041
14.606516,12.123019900879545,0.05359105979995808
14.611104,12.141778782855937,0.05323040394806134
14.6157,12.161314914565832,0.05287357014625244
14.620292,12.181628296009231,0.05252060381076984
14.624888,12.203496176919632,0.05217505657291744
14.629476,12.219234342859275,0.05185278498409531
14.634076,12.2388146160178,0.05152298958956822
14.638656,12.259416508338116,0.05118880444521669
14.643256,12.273600174810753,0.050858845189547225
14.647844,12.27883363825554,0.050556380130753836
14.652444,12.27188571502432,0.05026991117859518
14.657036,12.262650184041224,0.049997058512895744
14.661632,12.24830655724916,0.0497420314020038
14.66622,12.22039337047686,0.04951562948827823
14.670816,12.18569540371444,0.049303084124222414
14.675404,12.136650627238287,0.049116174956714796
14.679996,12.078777832448427,0.04894995430408849
14.684584,12.01550843097268,0.048782733683655724
14.689171999999996,11.947864041972839,0.04861033590247531
14.69376,11.880874717992358,0.04844319935810697
14.698356,11.805423929840606,0.0482857539032227
14.702944,11.719468439194,0.04814527841869561
14.70754,11.623663311071896,0.048029318336352156
14.712123999999998,11.518008545474295,0.047938108648983
14.716703999999998,11.399805839058251,0.04787194490848924
14.721299999999998,11.278782644585116,0.047807917803856535
14.725888,11.143534825112393,0.04776499814403073
14.730468,11.000480606487754,0.047739801303011746
14.735079999999998,10.85988032177777,0.04772020267976641
14.739672,10.711962376772455,0.04770374762071966
14.744268,10.564577312072352,0.04769865504492487
14.74886,10.410896206238714,0.047692222471642155
14.753464,10.253617362614486,0.04768436267263318
14.758055999999998,10.102223864532727,0.047659568970017115
14.762644,9.946621705089647,0.04765634832905108
14.767252,9.789997926484775,0.047658061276674504
14.771844,9.633496332594051,0.04765602981544135
14.77644,9.474052065932089,0.047661433770192746
