Time,Force,Position
13.479155999999998,0.1936644852232581,0.0
13.483736,0.2024925035369628,0.0
13.488328,0.20837784907943258,0.0
13.49292,0.2124643257266067,0.0
13.497524,0.21642861765963511,0.0
13.502112,0.22153671346860274,0.0
13.506711999999998,0.2229248867728333,0.0
13.511296,0.22929897117188575,0.0
13.515896,0.23812698948559047,0.0
13.52048,0.24478958476156243,0.0
13.52508,0.25284035334176497,0.0
13.529659999999998,0.26665428275029157,0.0
13.534256,0.2784249738352312,0.0
13.538856,0.2881524265965837,0.0
13.543448,0.2917501643871751,0.0
13.548035999999998,0.28766368774000106,0.0
13.552632,0.2866420685782075,0.0
13.557216,0.2881965680452119,0.0
13.561811999999998,0.2892181872070054,0.0
13.5664,0.28459883025462046,0.0
13.570996,0.2767924311027093,0.0
13.575576,0.26784222807485886,0.0
13.580163999999998,0.25631590641821067,0.0
13.584752,0.24593338863750158,0.0
13.589332,0.23387418667564253,0.0
13.593924,0.2215706152854921,0.0
13.598512,0.20824542473354815,0.0
13.603096,0.1916110072679323,0.0
13.607691999999998,0.1729731658340562,0.0
13.612284,0.1545796938284715,0.0
13.616872,0.1349202332328019,0.0
13.621467999999998,0.11244028458004303,0.0
13.626064,0.09188138953672555,0.0
13.630667999999998,0.07426516726464301,0.0
13.63526,0.06061323692558889,0.0
13.63986,0.05333971807888855,0.0
13.644452,0.046066199232188215,0.0
13.64904,0.03740017998795602,0.0
13.653615999999998,0.027468172153638958,0.0
13.658219999999998,0.020356652376411117,0.0
13.662804,0.01438893647512247,0.0
13.667395999999998,0.009442839735627349,0.0
13.671976,0.009975720040838186,0.0
13.676567999999998,0.008627361091934467,0.0
13.681164,0.00805625187653293,0.0
13.685756,0.005686273765835691,0.0
13.690332,0.005237349264579826,0.0
13.694919999999998,0.005032794191615304,0.0
13.699504,0.005032794191615304,0.0
13.704095999999998,0.005032794191615304,0.0
13.70868,0.005032794191615304,0.0
13.713256,0.0050327941916153045,0.0
13.717847999999998,0.0050327941916153045,0.0
13.722436,0.0050327941916153045,0.0
13.727028,0.0050327941916153045,0.0
13.731612,0.0033959243657920935,0.0
13.736199999999998,0.0017590545399688827,0.0
13.740788,0.0045397282417312885,0.0
13.74538,0.00948582498122641,0.0
13.749968,0.016230790616017236,0.0
13.75456,0.021054702641366687,0.0
13.759151999999998,0.02461262607663127,0.0
13.763756,0.02755529884786617,0.0
13.768344,0.0331564606067178,0.0
13.772944,0.037858187917921574,0.0
13.77752,0.04268209994327103,0.0
13.782123999999998,0.0467287622351183,0.0
13.786716,0.05179704368875909,0.0
13.791312,0.058786378751841256,0.0
13.795892,0.0629552257578342,0.0
13.800488,0.06430358470673792,0.0
13.805075999999998,0.06540757422735029,0.0
13.809672,0.06540757422735029,0.0
13.814264,0.06831043264325837,0.0
13.818855999999998,0.06929223744972507,0.0
13.823432,0.06929223744972507,0.0
13.82802,0.07117347670383962,0.0
13.832608,0.06913023838025259,0.0
13.8372,0.06610952234350018,0.0
13.841792,0.059364556708709354,0.0
13.846372,0.056798677711650244,0.0
13.850955999999998,0.05619799377266067,0.0
13.85554,0.05249855053140117,0.0
13.860127999999998,0.05236294326384369,0.0
13.864724,0.06274227812287972,0.0
13.869312,0.08270321884397205,0.0
13.8739,0.11936319774278593,0.009824836638018544
13.878496,0.17383211687837122,0.01912901004230326
13.883083999999998,0.25167290909938883,0.02780533746507273
13.887679999999998,0.35517318215771715,0.03623867926339217
13.892259999999998,0.4844551207675019,0.04449256238939228
13.896855999999998,0.6356324762612322,0.05261495649441052
13.901436,0.8114859223406702,0.06056525137954924
13.90604,1.002656145832037,0.06860909826625498
13.910624,1.218708600427212,0.0765861378295187
13.915224,1.4605029062185169,0.08446805697626666
13.919804,1.7224777158024265,0.09232780515126453
13.9244,2.0098234953467276,0.10010610339990335
13.928992,2.3197978000598476,0.10779573986437065
13.933588,2.6571906401502474,0.11538958391559524
13.938176,3.012544179915152,0.1229706458643468
13.942768,3.3904821034002497,0.13048220433595684
13.947356,3.7922262577469947,0.1379346403809398
13.951948,4.209148852621346,0.14534037666789704
13.956528,4.629146544612819,0.15277325279179296
13.96112,5.051143333479251,0.16017733270458576
13.965711999999998,5.462703223484606,0.15776066455276028
13.970287999999998,5.8590302918819885,0.15582512704547197
13.974872,6.228998672974075,0.15450146965450365
13.979459999999998,6.57673898485667,0.15339117403136204
13.984039999999998,6.904050096425068,0.152405690162775
13.988632,7.211875583575543,0.15151513202122996
13.99322,7.493552851032125,0.1508193095905087
13.997811999999998,7.753901483726861,0.1500447314204492
14.002408,7.993043666373897,0.14928611076006265
14.006996,8.208281095630289,0.14858153557168932
14.011587999999998,8.399491586781895,0.14789217114018866
14.016168,8.565653520666917,0.14725602432626794
14.02076,8.707055408162276,0.1466860926404925
14.025339999999998,8.82214274980097,0.1461835189368468
14.029939999999998,8.917089402002382,0.14565592067120542
14.034532,8.987031638385842,0.1451784528528255
14.039132,9.035322827313646,0.14471628733501282
14.043728,9.062129294948571,0.14428704377488366
14.04832,9.077222635500593,0.1437835275829039
14.052904,9.080446762438681,0.1432825765349329
14.057488,9.079041292792647,0.14273649791204035
14.062076,9.071950705583808,0.14222739236696408
14.066672,9.06306124947967,0.14173474602322367
14.071248,9.054171793375533,0.14124218395183918
14.075836,9.040540795604866,0.1408074642647219
14.080419999999998,9.02151319114831,0.1404275592009203
14.085012,9.010169801129521,0.13995058603193963
14.089591999999998,9.006921321139561,0.13939187486541293
14.09418,9.003061917578874,0.13886385641384463
14.098764,8.996670536838014,0.13838823523793028
14.103348,8.994287589478814,0.13789090686697208
14.107932,8.99374765246354,0.1374075739264982
14.112524,8.993129672182747,0.13696092452034528
14.117108,8.995131951979378,0.13652579277519025
14.121692,8.997056188510491,0.1361284676945039
14.126292,9.001600685119033,0.13574210737764766
14.130884,9.003901715424323,0.13542794982411904
14.135488,9.009844624968832,0.13511066556383802
14.140068,9.01750836014312,0.1348154064090281
14.144664,9.028158909537272,0.13451590473463418
14.149252,9.040774653989494,0.13422733936910056
14.153852,9.058176081556873,0.13391717092396702
14.158436,9.080118822811118,0.13359610879306835
14.163036,9.10247225965643,0.13329110210999498
14.16762,9.132554052388137,0.13293048376967276
14.172212,9.166644278501499,0.13254935472905266
14.176808,9.19370535519645,0.1322636082318136
14.181404,9.217823759120169,0.13201840231666678
14.185999999999998,9.241942163043886,0.13177480548526763
14.190599999999998,9.269902674186488,0.13148845320106373
14.195196,9.296064316433792,0.13121997706112945
14.199792,9.320427089785802,0.13096787213281594
14.20438,9.346300221156186,0.13067994362441468
14.208968,9.369963788040211,0.1303948468665125
14.213551999999998,9.395137712942613,0.13007542589094917
14.218151999999998,9.422599245596892,0.12972108387003314
14.222748,9.453614374593135,0.12930461002678922
14.227327999999998,9.484996057731815,0.1288749521995007
14.23192,9.514045991669988,0.12845462237217534
14.236496,9.536922069188773,0.12808256490661157
14.241075999999998,9.5583658319547,0.1277123746600351
14.24566,9.581686506881438,0.12729658350054285
14.250248,9.603164171464252,0.12686679912132973
14.254836,9.621410652398913,0.12645014168696528
14.259427999999998,9.63217314687547,0.12607504366107422
14.264008,9.643135869331688,0.12566032519032694
14.268612,9.65801874227231,0.12517108982095237
14.273203999999998,9.666072693774185,0.12472228356500972
14.277808,9.669096592732611,0.12429952082126064
14.282388,9.669011492757027,0.12388472253320655
14.286988,9.668882251332816,0.1234398612534875
14.291564,9.67050773735527,0.12295070539530678
14.296164,9.672499777520164,0.12244638672045804
14.300748,9.675102741255786,0.12191552145374134
14.30534,9.677172824686199,0.12137724064869866
14.309916,9.673557790553804,0.12086070333812614
14.314512,9.671330929725638,0.12031853847726978
14.319088,9.665217820229962,0.1197834959311684
14.323672,9.65701733096207,0.1192411017759518
14.328252,9.655968175826734,0.11861610940102071
14.332848,9.650788402595595,0.11800714983938813
14.33744,9.638168784354981,0.11746081520054558
14.342031999999998,9.628736208313894,0.1168751937717756
14.346628,9.624167358653482,0.11624238321788123
14.351204,9.61767745538363,0.11562354880876588
14.3558,9.614008040170864,0.11498330540402323
14.360388,9.60817320192037,0.11437163116472047
14.36498,9.609533839251059,0.11370946502036135
14.369576,9.618212136877075,0.11299330298664335
14.374164,9.62856711868424,0.1122705605165796
14.378772,9.639987861101828,0.11156842627478473
14.383356,9.651697114396335,0.11088831056775782
14.38794,9.66369487856776,0.11022985454800661
14.392535999999998,9.676514033921316,0.10960194585914525
14.397124,9.690398949885294,0.10899573308732974
14.40172,9.708947364250285,0.10838634157229791
14.406296,9.725863235882754,0.10781672207100249
14.410896,9.747564790630381,0.10724078515518659
14.415476,9.775073647654958,0.10664948636123527
14.420076,9.796208420280486,0.1061325452603436
14.424663999999998,9.823150495182963,0.1055991398082893
14.42926,9.855000437914747,0.1050539534924253
14.433848,9.886650152666867,0.10455378356757591
14.438439999999998,9.917933313276553,0.1040731835981382
14.443028,9.956289764753274,0.10355726739293072
14.447624,9.990970435173887,0.10309998705098643
14.452215999999998,10.027860670080859,0.10264956828556594
14.456808,10.066671958597272,0.10219060266541809
14.4614,10.100497336018865,0.10177755256026819
14.465984,10.136654462640964,0.10136802339172955
14.470563999999998,10.173833208424856,0.10095215192396093
14.475156,10.2093352700276,0.10054243753410975
14.479739999999998,10.245081701058632,0.10012558442668312
14.484315999999998,10.282338490108044,0.09968368025973907
14.488912,10.317141345242803,0.09924787258319001
14.4935,10.350145331482265,0.09882337207955419
14.498084,10.382372067988227,0.09840056200134892
14.50268,10.413821554760686,0.09798137242607399
14.507267999999998,10.443349987923703,0.09757965766452781
14.511876,10.482483689133929,0.09711572839726682
14.516467999999998,10.520717955896501,0.09666009520098201
14.521056,10.55919659208737,0.0961988588599284
14.525652,10.595099109649441,0.09574766644126041
14.530243999999998,10.629857823335568,0.09531228921699318
14.53484,10.665515971469347,0.09487798311027058
14.539428,10.702073554050775,0.09444062029940094
14.544028,10.737976071612845,0.09400100379798138
14.548616,10.76979211252774,0.09359793564053226
14.553212,10.807493498985105,0.09315681602596951
14.5578,10.845194885442469,0.0927198762498213
14.562399999999998,10.880975218290393,0.09229705130801365
14.566984,10.918432235319466,0.09187255453286343
14.571576,10.954090383453245,0.09145690101110004
14.576156,10.9847626204922,0.09107762842877609
14.580752,11.017355911140598,0.09068837208390151
14.585352,11.049049767341348,0.09030327483485927
14.589944,11.078822569932656,0.08992990128796581
14.594523999999998,11.10614143860931,0.0895603805387753
14.599108,11.127164266152434,0.08921492554549432
14.603696,11.138048945343137,0.08891786517282457
14.608292,11.145580256171542,0.08862638260438287
14.612884,11.1496360139235,0.0883445657320049
14.617472,11.152259456922598,0.08805644784151764
14.622064,11.150630097111751,0.08777589991980703
14.626644,11.143481945900868,0.08751990535944816
14.631236,11.134368599631916,0.08724796503189489
14.635823999999998,11.122434765305876,0.08698973276729677
14.640412,11.10894643151283,0.08672896996288561
14.645003999999998,11.089817121605607,0.08649579720852395
14.649596,11.065413389726643,0.08627689761397912
14.654196,11.04011022340003,0.0860605931909525
14.658788,11.014029807339917,0.08584275493659357
14.663379999999998,10.988848825727452,0.08562114286842687
14.667979999999998,10.97020825467681,0.08536954559040916
14.672572,10.952222748645525,0.08512344417307674
14.677172,10.936036111509537,0.08487115679100064
14.68176,10.923447212164138,0.08460687401529392
14.686352,10.912168442857453,0.08435327154647623
14.69094,10.908085149131953,0.08407595946639229
14.69554,10.909154092664052,0.08378926105838175
14.700128,10.913576404558446,0.08349969210132452
14.704728,10.918531596758054,0.08321936846320464
14.709324,10.925041288424664,0.08294161820856234
14.713916,10.938091390653097,0.0826361869685967
14.718492,10.953961980938622,0.08231852138427796
14.723083999999998,10.972042135710508,0.08200985079856087
14.72768,10.993964397701276,0.0816827680864932
14.732276,11.02128326637793,0.08134108176380302
14.736864,11.053998741740475,0.08098521005553332
14.741448,11.091333574055403,0.0806130996508598
14.746035999999998,11.130833829408063,0.08022503904096535
14.750635999999998,11.172377323084314,0.07982633000551428
14.755224,11.215964055084148,0.07941718343153675
14.759811999999998,11.258118472331125,0.07900556280173562
14.764404,11.300517259006394,0.07858911149712383
14.768992,11.344426403700037,0.07815363360755914
14.773576,11.384859995317234,0.07772495323231303
14.778164,11.423983456895721,0.07728642833345661
14.782756,11.461796788435493,0.07684007313367107
14.787348,11.497400555488904,0.07638643389172531
14.791932,11.53259362695125,0.07592218873799776
14.796532,11.57301697893671,0.07542658926238682
14.801124,11.617526807569343,0.07491063716644403
14.805711999999998,11.660115582592537,0.07440685612515961
14.810308,11.703970346205812,0.0738929787466971
14.814887999999998,11.749091098409174,0.0733687584096086
14.819487999999998,11.794578404754974,0.07283758214199564
14.82408,11.837978331328557,0.07229803688048735
14.82868,11.877247639806338,0.07175987330550303
14.83326,11.915984067978906,0.07121593837043988
14.837856,11.954964865579772,0.07066792999311235
14.842452,11.994312217323069,0.0701132774740821
14.847039999999998,12.034026123208806,0.069552060083368
14.851628,12.0692428568563,0.06900080876409301
14.85622,12.0993073532462,0.06845255060815633
14.860812,12.127450796026661,0.06791406240893974
14.865408,12.159925084882586,0.06734971824765572
14.869996,12.192521558452656,0.06678281811799636
14.874584,12.227405639774608,0.06620325351858256
14.879167999999998,12.265354578581938,0.0656117294231843
14.883764,12.300605214046323,0.06502601956451041
14.888352,12.329437623663027,0.0644555474572515
14.892943999999998,12.350297307965048,0.06389398732834767
14.897528,12.372667350285443,0.06331647927736231
14.902115999999998,12.390662405081745,0.06274237268502893
14.9067,12.40657008010583,0.062156022964682714
14.911288,12.41900220205347,0.061571970607830914
14.915876,12.428736020658167,0.06099206544544968
14.92048,12.440757447014743,0.0603978133447201
14.92506,12.453023242799608,0.0597991203762937
14.929647999999998,12.464511788850974,0.059199800462873424
14.934232,12.474201466007043,0.05860454126800964
14.938832,12.481070655106024,0.05801679228301618
14.943428,12.488062028919149,0.05742417513132471
14.948019999999998,12.498895509951158,0.056821527893700895
14.952623999999998,12.50510963403078,0.05622444704638861
14.957212,12.506337847015581,0.055644868251396556
14.961808,12.506666625552734,0.055065428199277525
14.966395999999998,12.495224713004948,0.05451808014378746
14.970995999999998,12.47904125879063,0.05397993840928053
14.975584,12.462857804576313,0.053440371149233334
14.980184,12.44732941538135,0.052905444740711585
14.984775999999998,12.43323334093925,0.052377154848165616
14.989371999999998,12.408510379288149,0.05187098553978821
14.993951999999998,12.384442482656404,0.051369337782280054
14.998544,12.354777751359109,0.05089759997334326
15.003147999999998,12.31963837011041,0.050451625229962827
15.007744,12.279268708338599,0.05002422312845522
15.012332,12.229460104682353,0.04963431676840699
15.016927999999998,12.170456928569967,0.04927454293614748
15.021516,12.102381364715583,0.048940688151909016
15.026099999999998,12.023434544223909,0.04863228194669673
15.030688,11.935537520704385,0.04834549960678685
15.035279999999998,11.84012260890987,0.04809138882527791
15.039864,11.7391108624498,0.04786699108998863
15.044451999999998,11.63658875797136,0.04765705394987919
15.049048,11.529857992131598,0.047461910854480496
15.053627999999998,11.416997511321075,0.04728494193617551
15.058216,11.306468779711057,0.04711613077695014
15.062808,11.189565963701988,0.04697381212546156
15.0674,11.067432867169805,0.0468500498472963
15.072008,10.94133547870459,0.04673378598955942
15.076596,10.812173232753997,0.04662487865265176
15.081184,10.685464920718056,0.046519891346850674
15.085779999999998,10.553526328159002,0.04643430158997461
15.090372,10.419544497276362,0.046354186761531836
15.094968,10.285562666393723,0.04627180478947093
15.099544,10.150192662206853,0.04620327194883088
15.104144,10.015722092467628,0.04613365929742289
15.108731999999998,9.878963914976527,0.04608026740123267
15.113336,9.747480159457165,0.04603076389996958
15.11792,9.6211486411954,0.04598991853731453
15.12252,9.50111316406717,0.04594844690915587
15.127112,9.388884086090854,0.04588505474189597
15.1317,9.273301639752237,0.045809558320153085
15.136288,9.156697574251824,0.04573652027994696
15.140883999999998,9.040093508751411,0.04566090763574161
15.145472,8.92708718104159,0.04558386307385536
15.150068,8.814325222760063,0.04549487756924218
15.154656,8.707326425306858,0.045391197933048924
15.159244,8.599306008691858,0.04528932219801082
15.163824,8.490141788200921,0.045193843877311214
15.168408,8.378689959958106,0.04511564669857648
15.173,8.269814250344087,0.04504040725124884
15.177592,8.160938540730069,0.044963365171583565
15.182184,8.05488331917314,0.044879849191660916
15.186772,7.950504781797361,0.0447999586765673
15.191363999999998,7.847925113316878,0.04472022766573406
15.195948,7.7472664984458355,0.04463348321690002
15.200532,7.652859783259701,0.04450806365739392
15.205128,7.552157026940031,0.044376776703893374
15.209711999999998,7.450677020886859,0.04423767523250907
15.214311999999998,7.345354907614803,0.0441057616960507
15.218908,7.234269633514424,0.043983402755555324
15.223504,7.125760478042845,0.043862401285382074
15.2281,7.0200718106283535,0.04373358565423893
15.232676,6.916304196823302,0.04359415008604903
15.237276,6.809838279675308,0.04344784621696188
15.24186,6.70235074336552,0.043300283239601535
15.24646,6.590366034817493,0.043141345030728945
15.251043999999998,6.479280760717114,0.04297787126929763
15.255639999999998,6.365374998559646,0.04281326020041729
15.260224,6.252735224992262,0.04262426825498245
15.264808,6.132655606415404,0.042435543002084186
15.269415999999998,6.00771226145787,0.04225886689621621
15.274,5.878027374833807,0.04208470764241242
15.278591999999998,5.747687423190386,0.041885178934038717
15.283184,5.613994103184665,0.04165578121256732
15.287764,5.4796457181595875,0.04139395998828409
15.292356,5.337368749268453,0.04115355097442992
15.296943999999998,5.197135018700906,0.04087954933294043
15.301536,5.053547919771058,0.040560717069327845
15.306119999999998,4.905585833317118,0.040203704852166976
15.3107,4.755947062682027,0.03980547485339667
15.315295999999998,4.59862407760917,0.039403605023345126
15.319871999999998,4.4368039202980745,0.03895800817546386
15.324467999999998,4.2701200366063015,0.038495707435964845
15.329064,4.0997162304097925,0.03798395900995195
15.333652,3.9253481322802553,0.037448398041982106
15.338247999999998,3.7477929919511914,0.03689038399660113
15.342836,3.5685611674409783,0.03623789887606499
15.347423999999998,3.392394200416146,0.0354683228529863
15.352032,3.2123851261724297,0.034592330977811905
15.356619999999998,3.0349521705575113,0.03364690151482346
15.361212,2.862505126037415,0.03252414951422905
15.365799999999998,2.692756384860263,0.031269654399955236
15.370404,2.519698416769438,0.029879615812349783
15.374992,2.351792685936209,0.02840836970655551
15.379592,2.178412305151576,0.02648420540674423
15.38418,2.0134933885382096,0.024565476815810398
15.38878,1.850784036411205,0.02268692971845633
15.393364,1.6950257904370916,0.02085734318930297
15.397956,1.5462186506158695,0.019064402388494696
15.402536,1.4033409977857456,0.01731848951563892
