Time,Force,Position
12.396736,0.4570855836072103,0.0
12.40132,0.450178618902947,0.0
12.405916,0.44621432696991853,0.0
12.410503999999998,0.43775286279865083,0.0
12.415096,0.4265930952844396,0.0
12.419683999999998,0.41285720914143054,0.0
12.424283999999998,0.396833715246543,0.0
12.428879999999998,0.3818318405134491,0.0
12.433464,0.37054988828509217,0.0
12.438059999999998,0.35133935219067847,0.0
12.442644,0.3307406427920342,0.0
12.447244,0.3168045286693619,0.0
12.451831999999998,0.30196898009904166,0.0
12.456431999999998,0.28647836650936503,0.0
12.46102,0.27687309846215813,0.0
12.46562,0.26600184182486636,0.0
12.470211999999998,0.2523100971304854,0.0
12.474803999999995,0.23963997159789796,0.0
12.479387999999998,0.22684766135116485,0.0
12.483979999999995,0.21789745832331445,0.0
12.488572,0.21188992806669898,0.0
12.493163999999998,0.20461640921999869,0.0
12.497752,0.19926394398273975,0.0
12.502335999999998,0.1993080854313679,0.0
12.506924,0.19820842300405686,0.0
12.511524,0.19890762947204155,0.0
12.516111999999998,0.20050627038767405,0.0
12.520711999999998,0.19838498879856947,0.0
12.525292,0.1913999808287886,0.0
12.52988,0.19336517588685817,0.0
12.534472,0.19851741314445392,0.0
12.539056,0.20007191261145826,0.0
12.543644,0.20264803124025618,0.0
12.548256,0.20600139960255626,0.0
12.552844,0.2082109640889171,0.0
12.557439999999998,0.20796659466062578,0.0
12.562032,0.2127081363271564,0.0
12.566611999999996,0.2138519402030956,0.0
12.571208,0.21985947045971108,0.0
12.5758,0.22292432794509162,0.0
12.580404,0.2211254590497959,0.0
12.584991999999998,0.22022602460214805,0.0
12.589595999999998,0.21842715570685234,0.0
12.594184,0.2131527337351109,0.0
12.59878,0.20812268119166077,0.0
12.603367999999998,0.2047693128293607,0.0
12.607967999999998,0.1993727061434736,0.0
12.612552,0.19925052142932792,0.0
12.617143999999998,0.20530219313457154,0.0
12.621736,0.21049857184079546,0.0
12.626328,0.21586127670979324,0.0
12.630919999999998,0.22090156888498214,0.0
12.635515999999996,0.2321598589281884,0.0
12.640108,0.24346229042002288,0.0
12.644691999999996,0.2530099944651898,0.0
12.64928,0.27237343416896553,0.0
12.653864,0.2939905798077304,0.0
12.658452,0.31798361609562986,0.0
12.663043999999998,0.3374455783284007,0.0
12.66764,0.36275898428675196,0.0
12.672228,0.39715501761883804,0.007865869586365343
12.676828,0.433971083048687,0.016167543729093282
12.681408,0.4725962570055704,0.025023299097354044
12.685999999999998,0.5171611575852905,0.034190076868517785
12.690588,0.5772710528350543,0.042605182337248464
12.695175999999998,0.6467962277841005,0.05089118987770143
12.699784,0.7346088421947621,0.05884010796159073
12.704371999999998,0.8334795186689666,0.06694618759437167
12.708964,0.9473725491397429,0.07492421352049655
12.71356,1.0766544877495277,0.08280225050378079
12.718143999999995,1.2223469536601146,0.09060198877970924
12.722747999999998,1.386571228460608,0.09827380536170043
12.727323999999998,1.555591426007999,0.10601082369876082
12.731919999999995,1.7370137174745355,0.11378846057222022
12.736499999999998,1.9377450675644807,0.12144277958359215
12.741088,2.14392740542068,0.1291659173983024
12.745668,2.3583812191002234,0.1369317057224581
12.75026,2.5926328302597574,0.14453886229220997
12.754844,2.8436954246794204,0.15207125004118094
12.75944,3.1032297229020895,0.15959217167894554
12.764027999999998,3.369514899297987,0.15921647054112062
12.76862,3.644472007476555,0.1583992839191234
12.773196,3.9294892207420213,0.15700094681796545
12.777788,4.222068463731109,0.15523274346464677
12.782375999999998,4.509128915320166,0.1542241501480154
12.786975999999996,4.790460107897788,0.1533572499436729
12.791564,5.062664531653047,0.15278313903806812
12.79614,5.323400197753697,0.15201302746119752
12.800723999999995,5.563306207580824,0.15139992393825286
12.805303999999998,5.788434232839671,0.15084327262378144
12.809896,5.996085970187295,0.1503576360482675
12.814492,6.183895768606297,0.15006062664456082
12.819079999999998,6.3600807228396565,0.14972785260882296
12.823668,6.5226756378293045,0.14936920801865983
12.828259999999998,6.666816787194562,0.14914126265384256
12.832848,6.8030088734302865,0.14878835252100384
12.83744,6.931374081250621,0.14831879335782672
12.842016,7.036421797065891,0.14805783573287465
12.846612,7.123959323153047,0.1479127485555912
12.851192,7.199994189768706,0.14775504280740273
12.855788,7.263915473342139,0.14762336151215816
12.860372,7.32173070412996,0.14740540657354428
12.864964,7.368698340465641,0.14717744570943375
12.869555999999998,7.4020420357407195,0.1470197543270015
12.874148,7.424992973603348,0.14689846261605186
12.878748,7.443602825758772,0.14674588786205828
12.88334,7.454973060884385,0.14665180127970975
12.88794,7.466998361029354,0.1465620320970093
12.892531999999996,7.482377029536624,0.14643892895216595
12.897107999999998,7.494157960253303,0.1463637421565631
12.901704,7.508881563741215,0.14624089111144806
12.906279999999995,7.5317781205234775,0.14597050625083913
12.910863999999998,7.560682207562355,0.14559980732795247
12.915459999999998,7.5957160095719924,0.14512564027424238
12.920044,7.632670865191073,0.1446238307934675
12.924628,7.668970655790795,0.14412861996831663
12.929204,7.698730035828691,0.14372729520069935
12.933792,7.7352741958567055,0.14322349441200777
12.938387999999998,7.775249767512538,0.14264629781660537
12.942972,7.813426470273074,0.14209318590331418
12.947563999999998,7.855689649680785,0.14147807427888642
12.952156,7.892434037688463,0.14094229861050428
12.956752,7.92917842569614,0.14041240243211411
12.961352,7.971685974532142,0.13980675269664947
12.965932,8.019423803891257,0.13911153081131283
12.970524,8.069615567165021,0.13840594277501883
12.975104,8.121317688457166,0.13765934691812054
12.9797,8.171587494996452,0.13692061023030563
12.98428,8.222223855678173,0.1361657322140872
12.98888,8.276457954150485,0.1353752151411982
12.993463999999998,8.32672776068977,0.13464803600820752
12.998048,8.373399829438464,0.13397317922046853
13.002643999999998,8.415041845643707,0.13334556418553395
13.007239999999998,8.45104288573477,0.13279487149527142
13.011843999999998,8.486633230234771,0.13223275018762698
13.016428,8.518503652230034,0.13171655134919824
13.021011999999995,8.555482170034264,0.13112712321005546
13.025595999999998,8.588985134762048,0.13057276431072148
13.030184,8.621055784736974,0.13002170207982117
13.034776,8.651039054939684,0.1294651774643568
13.039356,8.672027980665916,0.12899746742124701
13.043936,8.690440787763348,0.12854873262760486
13.048532,8.702801923155539,0.1281479110967686
13.053108,8.707190333233044,0.12782020217262827
13.057695999999998,8.710268613271836,0.12748757950498912
13.0623,8.707128895442612,0.12717446203962685
13.066876,8.698836940355791,0.12689880342160298
13.071467999999998,8.688335420782611,0.12662367847271713
13.07606,8.674069837256063,0.12635307464047396
13.080643999999998,8.652320267271413,0.12612639610823598
13.085239999999995,8.629627121390488,0.1258729099854266
13.089819999999998,8.602925542127906,0.12563534655040198
13.094415999999995,8.571848975341231,0.12543193714539413
13.099004,8.539584463229989,0.125213048503124
13.103599999999998,8.502045529147006,0.1250363327264646
13.108188,8.461397596130011,0.12486750349245909
13.112788,8.417518479464865,0.12470919919857447
13.11738,8.371551983027501,0.12454235350250653
13.121975999999998,8.32300936796134,0.12439120770157641
13.126556,8.278186675399917,0.12419851193558401
13.131147999999998,8.235529405876228,0.12397012034038384
13.135736,8.196059178552064,0.12369035934821562
13.140327999999998,8.16133049289443,0.12335545335674267
13.144916,8.134408206388708,0.12292285894589028
13.149504,8.101356204912223,0.12257354154236977
13.154092,8.070758137350392,0.1222098771291114
13.158688,8.044412872598508,0.12181648873200868
13.163271999999996,8.019377737885337,0.12143017958131629
13.16786,8.000272090163264,0.1210051374911218
13.172444,7.99130459079361,0.12048024964369333
13.177023999999998,7.987367143967405,0.11992747389292119
13.181616,7.987560315237003,0.11935473236385472
13.186212,7.996747830983079,0.11870672283349522
13.190799999999998,8.005324423158426,0.11808772728663468
13.195392,8.020074871753161,0.1174207981984271
13.199984,8.042431491520146,0.11671112381237021
13.204571999999995,8.064832252735759,0.11603839171473859
13.209164,8.089975458742945,0.11537921505109337
13.213755999999998,8.121048151741226,0.11469002704712455
13.218347999999995,8.154452593940016,0.11400534227320384
13.222927999999998,8.195707576739345,0.11327476918704679
13.227523999999995,8.237251070415594,0.11257196749063696
13.232103999999998,8.282147932454142,0.11186167360040422
13.236703999999998,8.321447959827141,0.11124612478666093
13.241283999999998,8.369331636085551,0.11054673513516397
13.245879999999998,8.421345930439765,0.10983777061304358
13.250472,8.479123385622303,0.10908270666691085
13.255068,8.538944079128427,0.10830942659363475
13.259668,8.59684371902511,0.10756446798204222
13.264264,8.647469840075091,0.10691713924227333
13.268855999999998,8.695275473067987,0.10630021307031946
13.273448,8.738217379680203,0.10573222797022888
13.278035999999998,8.775640494892388,0.10521291892606509
13.282624,8.818948955647041,0.10463946037049893
13.2872,8.86609952362058,0.10404219574196859
13.291796,8.909119473498313,0.10346239633835545
13.296388,8.952505977518484,0.1028677827745484
13.300968,8.997280654842886,0.10225031895554701
13.305568,9.03870196380499,0.10165054382871992
13.310155999999996,9.074971035509497,0.1010769755459909
13.314748,9.103145197185173,0.10055629956105155
13.319331999999998,9.129887044107988,0.10003176037012876
13.32392,9.15033284989727,0.09954636642307872
13.328528,9.171511763971425,0.09902872905107314
13.333116,9.19023674413093,0.09852123542390326
13.337704,9.201111183689893,0.09804907997516789
13.342296,9.202746909344086,0.09763945452350767
13.346876,9.203361015836487,0.09724177050770126
13.35148,9.203075687881238,0.09684975475436498
13.356059999999998,9.204300717944369,0.09642581091347696
13.360659999999998,9.205115052416435,0.09598592003403292
13.365239999999998,9.209360798516311,0.09549951669155507
13.369835999999998,9.214505979063842,0.09500860671963544
13.37442,9.215031802658986,0.09454860931767974
13.37902,9.203498424292274,0.094163836694116
13.383611999999998,9.190288361744408,0.09378151416427755
13.388207999999995,9.178344287786626,0.09337922301861769
13.392783999999995,9.162802476038255,0.09299446140667411
13.39738,9.145339610680443,0.09262269629315623
13.401976,9.128653995056132,0.09225045755149734
13.406567999999998,9.112745629165325,0.09187729472805205
13.411159999999995,9.098636132169812,0.0914951201936254
13.415752,9.086203319355448,0.09110808765277782
13.420339999999998,9.074425571560443,0.09072665103818174
13.424919999999998,9.059338596851765,0.090383241258267
13.429511999999995,9.051569282438416,0.09000036208814118
13.4341,9.048419324977452,0.08959057853506809
13.438691999999998,9.04359268333534,0.08918417007135798
13.443267999999998,9.040809280016814,0.08876045438394957
13.447863999999996,9.04072418004123,0.08832564927025165
13.452448,9.043748078999654,0.08789705367525755
13.457036,9.048204292710938,0.08747768865950503
13.461628,9.05458156003166,0.08704732132226281
13.466215999999998,9.064312195714683,0.08661379005964015
13.470808,9.08520259891192,0.08612104252997514
13.475408,9.11406572742384,0.0856043776232383
13.479991999999998,9.140641248183885,0.08511702986425419
13.484595999999998,9.169792887572724,0.08462537229544019
13.489171999999998,9.20356388391395,0.08411392712155677
13.493771999999998,9.240155368312264,0.08359007519985787
13.49836,9.282632198253049,0.08303014869595657
13.502956,9.32792951625092,0.08246210529689983
13.507539999999995,9.380255983667201,0.0818495844681803
13.51214,9.432704635797627,0.081235329096876
13.516732,9.491160818184673,0.08058279379293598
13.521323999999998,9.549861370000007,0.07992998672709824
13.525916,9.612281844320078,0.07926944590368196
13.530508,9.674580133926005,0.07861555649548305
13.535112,9.735079554636632,0.07797359976233872
13.539708,9.794801725613762,0.07733614129193335
13.544304,9.84924947461915,0.0767130370998501
13.548899999999998,9.901121104995742,0.07609711180929796
13.553488,9.951316051191181,0.07548676556958395
13.55808,9.997502564004964,0.07487460061469645
13.562668,10.039069719866363,0.07428606272462167
13.56726,10.071520346537138,0.07373006189147019
13.571851999999998,10.10793526514094,0.07315403226984667
13.576444,10.144716737887178,0.07256824533446118
13.581036,10.175979419233384,0.07200281720108993
13.585623999999996,10.207486470007883,0.07143324742637246
13.590208,10.236050848011146,0.07088436742972135
13.594795999999995,10.261017488223818,0.0703482438963879
13.599379999999998,10.280998217341667,0.06984555464289895
13.603975999999998,10.304698868964254,0.06933434048992593
13.608564,10.324557413367957,0.0688430700464131
13.613151999999998,10.341473285000427,0.06836884377283658
13.617747999999995,10.351193681051713,0.06791093651819731
13.622344,10.362957315426586,0.06744205209729777
13.62694,10.374354395659026,0.06698683578845764
13.631531999999998,10.382808803120229,0.06654557580964043
13.636136,10.398047990571548,0.06607776434060987
13.640723999999995,10.41790653497525,0.06560060917719021
13.645324,10.43674346021716,0.0651302002484448
13.649912,10.459178123249663,0.06465581750834754
13.654507999999998,10.481612786282165,0.06418287797900608
13.659096,10.512508913485934,0.06368710991657481
13.663679999999998,10.53878568373732,0.06320457917158316
13.668275999999995,10.56583970372221,0.06272827782494307
13.672872,10.59673583092598,0.06223947938060759
13.677459999999998,10.624689285358514,0.06176505747252105
13.682051999999995,10.649045002000458,0.06129605537696987
13.686648,10.669680796137662,0.06083561382741423
13.691244,10.685697233322484,0.06038473638541299
13.695831999999998,10.697094313554922,0.05994564182921551
13.70042,10.706692524892063,0.05950875588998838
13.705007999999998,10.714491867333907,0.05907394704890604
13.709603999999995,10.723068459509257,0.058641275701660216
13.714192,10.727925129179866,0.05821650396260413
13.718787999999998,10.73045004964997,0.057781633634334514
13.723379999999995,10.73039885149128,0.057343159644480994
13.727968,10.719965135551876,0.056929550268172195
13.732563999999998,10.702458128745436,0.056518053763524576
13.737139999999998,10.6831522530437,0.05610644958719015
13.74172,10.659104835675432,0.05570577960522493
13.746331999999995,10.631337495802429,0.055310083829063814
13.75092,10.59498650704401,0.05493595356928417
13.755511999999998,10.555815030228505,0.05456468501820291
13.7601,10.507404839508231,0.054204276506868064
13.764687999999998,10.454497476549715,0.05384376390144042
13.76928,10.396726387210524,0.05349489644212376
13.773872,10.339976917033125,0.05313794214513737
13.778463999999998,10.283882511875083,0.05278535449900728
13.783052,10.228565356450543,0.05243320719205558
13.787652,10.168384474645327,0.05209224461298126
13.792243999999998,10.105383104783023,0.05175269831379052
13.796843999999998,10.036496389378247,0.05142799054091709
13.801432,9.963401012612152,0.05112252442016309
13.806032,9.888917462541828,0.05083111365011601
13.810624,9.812024120005479,0.050557916871124084
13.815219999999998,9.737340341955493,0.05029788668669784
13.819804,9.664866128391864,0.05005100512526384
13.8244,9.58871613377213,0.04983613896533797
13.828995999999998,9.510278531400516,0.049636106923266754
13.833595999999998,9.429308951848732,0.04946069083871709
13.838187999999995,9.346173949259212,0.04929590666597811
13.84278,9.261117893060257,0.0491326695294734
13.847367999999998,9.177371966900013,0.04898478840909761
13.851956,9.096735039673776,0.04885174519132674
13.856539999999995,9.012300146677283,0.04875897028247366
13.861132,8.928642503414295,0.048668627384767474
13.865715999999995,8.839510210199903,0.04861481065777033
13.870304,8.745392005890686,0.04857957630929912
13.874899999999998,8.64730950964844,0.04855769075159703
13.879476,8.549227013406197,0.04853340698240766
13.884064,8.448612539983783,0.04853819198922886
13.888671999999998,8.353639042675548,0.048530099375804575
13.893247999999998,8.258787730081458,0.048516249016597596
13.897856,8.163159167753866,0.04849536316418698
13.902436,8.065609551816834,0.04847898483028095
13.907023999999998,7.963562763641561,0.048461322650269575
13.911623999999998,7.86176034489458,0.048431388136023434
13.916216,7.762123349185331,0.048383991775362054
13.920808,7.657622627095407,0.0483531885475655
13.925395999999996,7.54760311360545,0.04833005871327065
13.929988,7.4384830345631405,0.04830495704294891
13.934575999999998,7.32629809803545,0.048296244748806984
13.939175999999998,7.2097381739836655,0.04828061530968376
13.943768,7.088558892979497,0.04827194165182364
13.948368,6.969911589155498,0.04822601539481325
13.952951999999998,6.846644928379115,0.048184421592233906
13.957547999999996,6.7208021489739345,0.048139020557703395
13.96214,6.597002607892339,0.048079512591569125
13.966736,6.470382578753655,0.04802683102523097
13.971323999999996,6.338654453806003,0.048009672278176714
13.975916,6.206271263838996,0.04798112746560603
13.980508,6.066081674720078,0.04798816080892175
13.985092,5.926014270315305,0.047982701344865965
13.989679999999998,5.783903627586943,0.04798904842161402
13.994271999999995,5.641915169572728,0.047985837755297335
13.998851999999998,5.501847765167955,0.04796849075108274
14.003444,5.358060438258444,0.047952367522677106
14.008036,5.210308819415904,0.04795845591990739
14.012623999999995,5.0658664274870375,0.04791844332760889
14.017216,4.926409946652993,0.047841269505143086
14.021799999999995,4.781190304990623,0.04779072815078313
14.026388,4.6369922824900485,0.04773115912346071
14.030983999999998,4.488829968056445,0.04770175074719429
14.035572,4.342588707232282,0.04766391741551363
14.040175999999995,4.193282588922739,0.047646027217799654
14.044759999999998,4.046552589241992,0.04764268418654531
14.049348,3.9026430776183356,0.047631181978779275
14.053951999999995,3.756812512385238,0.047626454732053694
14.058544,3.6157234888186705,0.04759525796499424
14.063144,3.4797425610610713,0.04749919878118407
14.067731999999998,3.345927056341205,0.04733927958784738
14.072335999999998,3.213133170783132,0.04716982574492713
14.076916,3.0781738621873265,0.04703042649591331
14.081516,2.943214553591521,0.04688126180045581
14.0861,2.8059676372438367,0.046810023535490984
14.090703999999995,2.664634244248978,0.04681333154381941
14.095287999999998,2.5210132435022414,0.04693513017445701
14.099883999999998,2.3802127308125933,0.04705722672665102
14.104476,2.240844532875805,0.047223549494066944
14.109072,2.1030308344060202,0.04742391670889532
14.113659999999998,1.9718797312122083,0.04756348359116779
14.118252,1.8413836930377523,0.045219373646458096
14.122839999999998,1.7203707381963576,0.042851934105668725
14.127435999999998,1.6020560866979063,0.04048584720903873
14.13202,1.487094803561755,0.03812145522949315
14.136615999999998,1.3739323893208994,0.0357430542283329
14.141204,1.2643677128706352,0.03336567509470018
14.145796,1.1581564047826716,0.030989595077942123
14.150391999999998,1.0528445311423555,0.028632480476040643
14.154972,0.9498644067025459,0.026315201671033
14.159563999999998,0.8489716620349514,0.02406135322991817
14.164144,0.7566625662527703,0.021798252770096394
14.168728,0.669872261870622,0.019522942615383333
14.173328,0.586679695279065,0.01725694689168075
14.177915999999998,0.5132145814488608,0.014922409038770743
14.182504,0.4483331165040699,0.012533295111870905
14.187096,0.3937119846258423,0.010036563820406474
14.191696,0.3444874594335018,0.007529711242664332
14.196291999999998,0.30143679066055057,0.005012670627400123
14.200887999999996,0.2592855563352472,0.0024859797007837723
14.205491999999998,0.22163149424818313,0.0
14.210071999999998,0.19346051549418025,0.0
14.214667999999998,0.1610428335561376,0.0
14.219248,0.13222288940868643,0.0
14.223847999999998,0.10818252875048577,0.0
14.228439999999996,0.09002751363475489,0.0
14.233039999999995,0.07583679045205247,0.0
14.237636,0.06471092475473061,0.0
14.242232,0.05603899297206096,0.0
