Time,Force,Position
15.453032,0.3806303405964918,0.0018625787855349875
15.457631999999998,0.3408991383689514,0.0010965859108722502
15.46222,0.31077320418861776,0.0004941361258365547
15.466812,0.2825683236177255,0.0
15.4714,0.2678108183129228,0.0
15.475988,0.25268675886568315,0.0
15.480596,0.2450025444279177,0.0
15.485179999999998,0.23719614527600652,0.0
15.489779999999998,0.23527509166656516,0.0
15.494372,0.23821776443780007,0.0
15.49896,0.24193768694253714,0.0
15.503564,0.25783899612327893,0.0
15.508155999999998,0.2738624900181665,0.0
15.512748,0.2948718950078759,0.0
15.517335999999998,0.320622841664116,0.0
15.521935999999998,0.3495608305198823,0.0
15.526516,0.3755561466044136,0.0
15.531116,0.4024508971365929,0.0
15.535704,0.42166143323100663,0.0
15.540304,0.43576387351645274,0.0
15.544883999999998,0.4478230754783118,0.0
15.54948,0.46078171188781875,0.0
15.554068,0.47043112138365384,0.0
15.558663999999998,0.4877647453172543,0.0
15.563256,0.5002346428701786,0.0
15.567848,0.5202665701467227,0.0
15.572428,0.533880271575586,0.0
15.577016,0.5503144610615387,0.0
15.581604,0.5636837930621108,0.0
15.586192,0.5738660828631568,0.0
15.590787999999998,0.5795512004259633,0.0
15.595376,0.5777964729792958,0.0
15.599968,0.5750201263708348,0.0
15.604548,0.5702446828874147,0.0
15.609139999999998,0.5662567287692356,0.0
15.613736,0.5684189688852954,0.0
15.618324,0.5887906051974529,0.005588238700781388
15.622928,0.6209534118580274,0.011813559810436393
15.627515999999998,0.6740239180576434,0.01814614828080639
15.63212,0.7459147440240855,0.02455196004163514
15.636715999999998,0.8261211872624991,0.03130027328482963
15.641304,0.9124778247351514,0.038419472991586594
15.6459,1.0157337283651884,0.04555119623646649
15.650491999999998,1.1226078490492943,0.05296287105770364
15.655088,1.2458924970342025,0.06039230944401171
15.659676,1.379169446472232,0.0678202586479686
15.66428,1.5307779768205048,0.07524695765923506
15.668867999999998,1.6930338736412558,0.08278457512683292
15.673467999999998,1.870800863315161,0.09032647212841008
15.678052,2.0635460655370097,0.09788068877062028
15.682652,2.2758107939936694,0.10541357196605432
15.68724,2.5070621683799286,0.11292465414551908
15.691836,2.75472407006699,0.12042343985739219
15.696424,3.01780878170995,0.127860736896666
15.701016,3.2867788388953807,0.13523927644550013
15.705604,3.555283819409379,0.14251181334957858
15.710195999999998,3.8071339031942846,0.1442315647062226
15.714784,4.054266107497811,0.1452177478454086
15.719371999999998,4.28228948115759,0.14612801125448738
15.72396,4.496644772308139,0.1469661883609269
15.728552,4.708369563749525,0.14739440912094115
15.733144,4.917830409624181,0.14739187880435636
15.737732,5.113623172989607,0.147400016967653
15.742323999999998,5.301877568816565,0.14713812595862905
15.746904,5.481327608514967,0.1468086889799242
15.751495999999998,5.64710956570414,0.1465113920584654
15.756084,5.801144493993523,0.14621238026608813
15.760671999999998,5.949562108353878,0.14573883660735742
15.765288,6.0844338249191505,0.14529089296013678
15.769875999999998,6.207558512584633,0.14484028632704954
15.774472,6.317337530434694,0.14437009404257198
15.779051999999998,6.41328213961275,0.14390860146157694
15.78364,6.495147970690512,0.1434658780580828
15.788236,6.5650224034401905,0.14305248367516943
15.792823999999998,6.625814208816137,0.14269687885869137
15.79742,6.680432157772692,0.14243890132654027
15.801999999999998,6.7383593336429195,0.1421036406619687
15.806599999999998,6.788191599484316,0.14189101744340976
15.811179999999998,6.843909210868182,0.14157579378154495
15.815788,6.899582680803421,0.14122280378508176
15.820379999999998,6.950714837051792,0.14090104503252165
15.824972,6.997061310185003,0.14062118912963495
15.829555999999998,7.046550684069113,0.14024025561205153
15.834151999999998,7.097506274522972,0.13977652167855142
15.83874,7.141710986803603,0.1393413532523354
15.843336,7.187504100368127,0.13881391152460582
15.847927999999998,7.231165692711806,0.13824825505449073
15.852527999999998,7.267709852739822,0.13773163393498405
15.857107999999998,7.305187349032374,0.13712066294315783
15.861692,7.341799312694167,0.13643890160982838
15.866276,7.372071093773797,0.1357953295881971
15.870868,7.400211353632584,0.13511302311947512
15.87546,7.426220092270529,0.13438858076570345
15.880036,7.447154636916395,0.13366979181431274
15.88462,7.463259356998472,0.13293704872975837
15.889203999999998,7.472491014193177,0.1322234294934839
15.893779999999998,7.4744830543580685,0.131553015187091
15.898388,7.475243007749766,0.13082414977050713
15.902976,7.466842290502209,0.13016755493133048
15.907564,7.4518570212442,0.12955592502551452
15.912155999999998,7.430409384689883,0.12898168170099636
15.91674,7.406463672772282,0.1283814744848309
15.921331999999998,7.375811224130082,0.12783222497956262
15.925912,7.340250907658579,0.12731111154478159
15.930507999999998,7.30145940753892,0.1268033548317305
15.935088,7.252119063475781,0.1263978130153476
15.939692,7.201346404659781,0.1259842731652381
15.944283999999998,7.148119811929129,0.12558225163328302
15.948876,7.090273862246092,0.1252311360535295
15.953459999999998,7.031528478115408,0.12488049195537382
15.958056,6.973682528432373,0.12451593181850586
15.962644,6.914692774873395,0.12416819519716847
15.96724,6.853781967704978,0.12384123583618155
15.971835999999998,6.7925046063941235,0.12353145725170012
15.976432,6.735890743484281,0.12320236251896206
15.98102,6.685206367565538,0.12282263946198138
15.985611999999998,6.639429859476098,0.12240974809750048
15.9902,6.5965179808923775,0.12199746059160448
15.9948,6.5553269279384345,0.12161375878729624
15.999387999999998,6.519943177261443,0.12118793206031088
16.003968,6.4882013058236705,0.12076281752582191
16.008560000000003,6.4571586408538835,0.12038351305477435
16.01314,6.428614051247376,0.12003113646952196
16.017732000000002,6.405388025061237,0.11966869464941542
16.022323999999998,6.390056680924267,0.11927613359755432
16.026908,6.387117191074704,0.11880432722331424
16.031503999999998,6.386553591874275,0.11837108819525358
16.036091999999996,6.395150663313099,0.11787984320668958
16.040680000000002,6.410210102048231,0.11736010738623519
16.045276,6.427645431432499,0.11688285898628176
16.049860000000002,6.452564747274868,0.11636521306643274
16.054456000000002,6.481658822661668,0.11587151931144538
16.059036,6.516726526488194,0.11538185429914037
16.063632,6.556213359287442,0.11489873182049556
16.068219999999997,6.5962330723919,0.11443413358925576
16.07282,6.64206008777331,0.11394884999884632
16.077412000000002,6.691895536536377,0.1134581763028976
16.082012,6.743818365071659,0.11298396424761564
16.086608,6.803181038616416,0.11243120020943309
16.0912,6.866674330256975,0.11187053774896598
16.095784000000002,6.93736309747872,0.11125452033210463
16.10038,7.013570656100497,0.1105914886290563
16.104976,7.0906776491699235,0.10992204452050669
16.109567999999996,7.163698165592174,0.10931982987162538
16.114148,7.23491981311913,0.10874279300149005
16.118740000000003,7.306630199502668,0.10815461847688622
16.123328,7.37882932474279,0.10754658148235961
16.127919999999996,7.443832974401727,0.10700574536065437
16.132503999999997,7.505116701555928,0.10650696444546814
16.137096,7.563047060347829,0.1060264003763688
16.141692,7.613904128272693,0.10560296426977349
16.146271999999996,7.6612415016724835,0.10516616191605632
16.150864,7.7076352991759975,0.10470377975314271
16.155451999999997,7.750387217440293,0.10423186032911202
16.160040000000002,7.790030136770579,0.1037632531471073
16.164636,7.821944700214471,0.10334272711757213
16.169224,7.8508724494385,0.10292300034335632
16.173811999999998,7.876935569156811,0.10249395727430666
16.178407999999997,7.898213005759962,0.10207714118359565
16.182996000000003,7.909308152562071,0.10170607569686137
16.187592000000002,7.909199390401338,0.1013926535182229
16.192168000000002,7.902383891516004,0.1011046093823217
16.196764,7.894747001448539,0.1007789149755016
16.201344,7.884612036017795,0.10042011239558213
16.205944000000002,7.870957376061976,0.1000411075057687
16.210527999999996,7.849818729648055,0.09968425248955008
16.215128,7.820951727347741,0.09935973186932613
16.219712,7.7928178333322995,0.09899563497013403
16.224308,7.762063679239431,0.09860279093012203
16.228907999999997,7.734085871755026,0.09814649090786025
16.2335,7.706963357269639,0.09764340390397314
16.238096,7.678164158603102,0.09714240139506905
16.242696000000002,7.643557657659612,0.0966530063151332
16.247287999999998,7.6104615147344985,0.096123027177797
16.251888,7.5796529795612635,0.09555395361253362
16.256476,7.548189379368671,0.0949739373389177
16.261063999999998,7.509652488309043,0.09442686761006257
16.265648,7.468661663334762,0.09387877958314031
16.270243999999998,7.424728165589246,0.09335471512625315
16.274836,7.384514590348467,0.09279685845140323
16.279424,7.348920372060073,0.09219996548150065
16.284016,7.31692389156227,0.09157824343431605
16.288607999999996,7.2844386722078855,0.09097899736070722
16.2932,7.2553068212158,0.0903675253543757
16.297787999999997,7.225564046652988,0.0897833196183956
16.30238,7.19790865186239,0.08921158072914752
16.306972000000002,7.180024851281772,0.08858688582174885
16.311552,7.163451180739869,0.08797608883298451
16.316139999999997,7.152684812474918,0.08735511035859098
16.320724,7.137221043992063,0.08681047966831608
16.325316,7.124377535586636,0.08629745519254348
16.32992,7.1137435916675695,0.08579388215330731
16.3345,7.110349264778314,0.08529195075176738
16.339100000000002,7.107654144357042,0.08483878836012321
16.343688,7.104880980670255,0.08443300738826483
16.348287999999997,7.1058718809368315,0.08404248468329047
16.352868,7.114224582947366,0.08364731144218865
16.357467999999997,7.1281402178065605,0.0832595098557248
16.362056000000003,7.149662023838004,0.08285877133656232
16.366647999999998,7.175969512984605,0.08246649468204484
16.37124,7.206285435512863,0.08208224843453704
16.375836,7.235746065042101,0.08174491790681251
16.380435999999996,7.267538443771846,0.08141596995048946
16.385032000000002,7.302562006149746,0.08109391823080896
16.38962,7.346457728289978,0.08074194346639954
16.394216,7.395627872401952,0.0803771347209619
16.398808000000002,7.442510408762046,0.08005127115570668
16.403391999999997,7.492990682912733,0.07971540173624458
16.407984,7.542327153187479,0.07940112134518511
16.412576,7.599347837899992,0.07903679205757838
16.417167999999997,7.655713457593148,0.07866822269690181
16.42176,7.715798999791043,0.0782848457799371
16.426352,7.776373280845517,0.07788680332359367
16.430936000000003,7.841933472994818,0.07745587472628129
16.435527999999998,7.909781272895993,0.07700051548995117
16.440115999999996,7.976196758044311,0.076537724913666
16.444708,8.045799285392157,0.07605026585841286
16.449303999999998,8.117567235777733,0.07554898834950081
16.453891999999996,8.186104002515155,0.0750508939330766
16.45848,8.253330639213864,0.07454457882769004
16.463079999999998,8.316060103674333,0.07405724762856089
16.467667999999996,8.381565914743266,0.0735264216710036
16.472271999999997,8.445761595773483,0.07298405039012364
16.476852,8.503905605098458,0.07245383271574637
16.481448,8.552400204927597,0.07194723597304381
16.486036,8.593943698603844,0.07145448766425157
16.490636000000002,8.631478758898435,0.07095455020977183
16.495224,8.66386158193543,0.07046275832670611
16.499828,8.691214352428977,0.0699704745321086
16.504419999999996,8.711493832055487,0.06949540394972568
16.50902,8.729319377767343,0.06901779200231645
16.513616,8.738394948431011,0.06855288886136542
16.518208,8.738353989904057,0.06811571716449236
16.522804,8.726620383557679,0.06770697455082954
16.527395999999996,8.706014617448968,0.06731259122150413
16.531979999999997,8.681156048530312,0.06691572189822151
16.536575999999997,8.647669689277613,0.06652229860237373
16.541164000000002,8.600569628596048,0.06616152875650533
16.545747999999996,8.549216765104536,0.06579662084752043
16.550336,8.487603568546463,0.06546525545161239
16.554935999999998,8.425046796092113,0.06509541899192128
16.559511999999998,8.350186452247613,0.0647716812910301
16.564096,8.273771608936107,0.06443502056189607
16.568683999999998,8.195557896729307,0.06409659604653195
16.573272000000003,8.118487988398446,0.06373930048294478
16.577863999999998,8.040640830334082,0.06337232089653025
16.582451999999996,7.96357092200322,0.0630036289528621
16.587032,7.881881656719974,0.06264200969940194
16.591639999999998,7.799170772274934,0.062280675020083824
16.596227999999996,7.712739965325158,0.061923968775777445
16.600836,7.625409723927732,0.06156182201474655
16.605427999999996,7.543476089216195,0.061183387378927256
16.610016,7.46231970423816,0.06080218125422438
16.614620000000002,7.386682110660158,0.06039914329365811
16.619208,7.318117807949192,0.05998405908076205
16.623800000000003,7.255727361657615,0.059560089876839854
16.628388,7.196568099014193,0.05914145737945267
16.632987999999997,7.150367472780278,0.05868181466573976
16.637576000000003,7.106376411032723,0.058237250208045675
16.642176,7.075466170408822,0.05774869088348085
16.64676,7.046398940128844,0.05729440342065988
16.651359999999997,7.030290346258373,0.05680304383210021
16.655948000000002,7.014470263264821,0.05633796115541146
16.660539999999997,7.007766709461895,0.05585679960851387
16.66512,7.0059710234882715,0.055393754319268525
16.669711999999997,7.00944975948639,0.054930766888074176
16.674312,7.017547852436895,0.05445939984669201
16.678904000000003,7.038238027654469,0.05397842705109869
16.683492,7.06959923152967,0.053497395096486974
16.688076000000002,7.110609844900707,0.05302029796994189
16.692664,7.156406141386903,0.052570240285140644
16.697263999999997,7.203512567911812,0.05214591431444235
16.701852000000002,7.260512773360848,0.0517181679091059
16.706448,7.319844728010389,0.0513102638979381
16.711044,7.381752801288728,0.05091293948109906
16.715624,7.443538689852923,0.0505271336837151
16.720208,7.509699565941211,0.05015018496265399
16.724795999999998,7.57357283427762,0.04980362121550023
16.729383999999996,7.63630229873809,0.049468355011991455
16.733976,7.693024232941945,0.04916781438173497
16.738563999999997,7.750523416879301,0.0488743573482237
16.743176,7.802015070560041,0.04861277286042363
16.74776,7.8553055931360785,0.048352515404035255
16.752359999999996,7.904509639064941,0.048119031079439906
16.756956000000002,7.950115947203214,0.047887996843253414
16.761552000000002,7.98971472508487,0.04768513070952707
16.766156000000002,8.024083222443414,0.04751649693809576
16.770747999999998,8.04909082118304,0.04736609710277702
16.77534,8.062039217960807,0.04723219543134605
16.779927999999998,8.07036825778619,0.047104171241272856
16.784528,8.069702953135094,0.04697500319463974
16.789116,8.062741607350466,0.04684491837352087
16.793715999999996,8.042821625156328,0.04672932142154887
16.798304,8.012641309895628,0.04662780746030712
16.802903999999998,7.970401792673067,0.04653983661897271
16.807488,7.91970081127924,0.046465610544379046
16.812084,7.856818443209408,0.04641022367885869
16.816671999999997,7.784697361234806,0.0463628266917539
16.821267999999996,7.713065018116788,0.04629048562751612
16.825871999999997,7.6369355027605295,0.04621514110767873
16.830464,7.551445088785355,0.04615435242473977
16.835043999999996,7.4595364489625,0.04609733027418818
16.839627999999998,7.359166344968378,0.046054398138571026
16.844215999999996,7.244938170117102,0.04602567197143899
16.848808,7.12020529277097,0.04602530736686326
16.8534,6.991874677634246,0.046025862034627475
16.857984000000002,6.85749239079228,0.04601148216252256
16.862575999999997,6.717346943121988,0.046015969732035644
16.867156,6.576302061004049,0.04601966778406379
16.871747999999997,6.424874661105401,0.04605100402653032
16.87634,6.272547826759107,0.04608204327337368
16.880927999999997,6.1174005043557225,0.046117717096858614
16.885536000000002,5.962130997238191,0.046162671654914514
16.890124,5.8116030317871905,0.046193703214142685
16.894716000000003,5.6608306969079,0.04624427418815925
16.899307999999998,5.509158927580961,0.046294936114486096
16.903895999999996,5.358386592701668,0.04635081509934976
16.908499999999997,5.2094131267176715,0.046407605806054256
16.9131,5.051489457705825,0.04652222305505732
16.917704,4.892421984818041,0.0466568803307016
16.922283999999998,4.7364193694156365,0.04676967126903076
16.926876,4.585280480393908,0.046853411947432054
16.931464,4.436062644981621,0.04693202525562569
16.936064000000002,4.295184089026455,0.047000383659695166
16.940652,4.161989747509056,0.04703610636336181
16.945251999999996,4.032759697924685,0.04703714113694082
16.949835999999998,3.905084147807318,0.04705951473037182
16.954423999999996,3.7785524015658902,0.04706510870731117
16.959016,3.6536973395056127,0.04708618708024554
16.963611999999998,3.535627057435453,0.04706639989095476
16.968207999999997,3.421398882584176,0.047011960265958885
16.972808,3.3108906302376355,0.04693840753765954
16.977399999999996,3.207044973167068,0.046821180827850195
16.981991999999998,3.1022998816488525,0.04668941526695537
16.986579999999996,3.002174147083022,0.04655267265523242
16.991172,2.904991085288425,0.046370582676960974
16.995759999999997,2.8115279459985665,0.0461714697206724
17.000355999999996,2.7149999492233263,0.046019076899082405
17.004951999999996,2.627177786047646,0.04578529074627992
17.009543999999998,2.537556753976669,0.04554108125798465
17.014136,2.449734590800989,0.045272760540325974
17.018720000000002,2.3597470045875757,0.045037641137660456
17.023311999999997,2.2688599839265144,0.04477902094610272
17.027892,2.176051909656012,0.04452486437548738
17.03248,2.084387639261449,0.04416900086408073
17.037087999999997,1.9905579458291527,0.043839878854489055
17.041668,1.9006925443298845,0.04339940949482857
17.046256,1.8162237495165041,0.04294427616749131
17.050852,1.7331431280073542,0.04230492736215457
17.055439999999997,1.6491630720505566,0.04154522643486644
17.060035999999997,1.5628954083418802,0.039258815367216815
17.064616,1.4735628871478235,0.03699334490601782
17.069212,1.3765461515160013,0.034764093756073124
17.0738,1.2809617306370378,0.03255980321285838
17.078400000000002,1.187542732795807,0.03034305992259243
17.082991999999997,1.0953116802791436,0.028173280469867334
17.087595999999998,1.006800550267217,0.02601158459450329
17.092188,0.9271174385689952,0.023804254142056166
17.096784,0.8461683382806886,0.021645648627549453
17.10138,0.7753573863447997,0.019485644854718858
17.105972,0.7031582611046804,0.01736203689340852
17.11056,0.638398980874035,0.015230772116818786
17.115156,0.5781368728816291,0.013124114024120313
17.11976,0.525314609898697,0.01101397275001986
17.124360000000003,0.4689387505738018,0.009020157037920393
17.128948,0.4179594979347938,0.007028985877658905
17.133544,0.36616476665209285,0.005137955943755171
17.138132,0.31616890426468763,0.0032652047523602725
17.142719999999997,0.26940422552543686,0.0015630820910216608
17.147308000000002,0.22955083858375067,0.0
17.151904000000002,0.1963600469180365,0.0
17.156495999999997,0.17253015387123782,0.0
17.161088,0.15691735556741543,0.0
17.165684,0.1443694147489737,0.0
17.170271999999997,0.1315771045022406,0.0
17.174867999999996,0.11816954359147779,0.0
17.179456000000002,0.10463979796656933,0.0
17.184044,0.09074349819922387,0.0
17.188651999999998,0.07966768648896758,0.0
17.193239999999996,0.06667082116926995,0.0
17.197843999999996,0.06323940954145235,0.0
17.202432,0.05596589069475204,0.0
17.20702,0.053966793819793135,0.0
17.211616,0.051967696944834246,0.0
17.216203999999998,0.05495451116469729,0.0
17.220807999999998,0.058307879526997355,0.0
17.225403999999997,0.06570791018114469,0.0
17.229996,0.071431256654142,0.0
17.234583999999998,0.07625516867949145,0.0
17.239184,0.07854277643136982,0.0
17.243768000000003,0.08275143779268959,0.0
17.248371999999996,0.08221855748747878,0.0
17.25296,0.085772153829442,0.0
17.257559999999998,0.0884263157237574,0.0
17.262152,0.09480040012280988,0.0
17.26674,0.10804163487079887,0.0
17.271327999999997,0.12218230406643568,0.0
17.275923999999996,0.13632297326207252,0.0
17.280520000000003,0.14559991607703307,0.0
