Time,Force,Position
14.828428,0.8671885853298062,0.020732395216386118
14.833023999999998,0.7981765022892131,0.01848505128148302
14.837608,0.7294529301255394,0.016322676341335187
14.842216,0.6690686374189876,0.014131250103147426
14.846808,0.6172679935978491,0.01192486191418176
14.851412,0.5653451650625652,0.009761112849004498
14.855992,0.5177973240513749,0.00765748972060415
14.860588,0.4739694055449215,0.005574364387575307
14.865168,0.43427210513427034,0.00357194729160856
14.869772,0.3939638811528909,0.0017211917240469296
14.874356,0.3549657872102245,0.0
14.87896,0.31829944246806446,0.0
14.883544,0.28690751969764594,0.0
14.888136,0.2560484772324383,0.0
14.892732,0.23046385673897207,0.0
14.897324,0.20475705153136015,0.0
14.901916,0.17688482328601554,0.0
14.906508,0.15285470225955367,0.0
14.9111,0.13753041483265083,0.0
14.915684,0.12911309211001132,0.0
14.920272,0.12453787660625454,0.0
14.924872,0.1209842802642913,0.0
14.92946,0.11959610696006076,0.0
14.934052,0.11988461783698023,0.0
14.938648,0.11326616400963643,0.0
14.943228,0.11126706713467753,0.0
14.947828,0.11196627360266219,0.0
14.952416,0.11344272980414902,0.0
14.957007999999998,0.12092671626225134,0.0
14.961604,0.1326193640816734,0.0
14.966192,0.1474990541006217,0.0
14.9708,0.16364473270965485,0.0
14.975388,0.17541542379459443,0.0
14.98,0.18637496332914247,0.0
14.984592,0.19534564562047044,0.0
14.989184000000002,0.22077099666122862,0.0
14.993776,0.26861440525940433,0.007347981398310266
14.998360000000002,0.3236737687022404,0.015296754196566066
15.002960000000002,0.39579872446523506,0.022856247673808415
15.007544,0.47444042860490543,0.030649631347228774
15.012144,0.5626637386066322,0.038550524008924864
15.016732,0.6648436419945086,0.04645136003881164
15.021328,0.7800807043208872,0.05430725638938358
15.025908,0.9109510442145657,0.062046408676506175
15.0305,1.0612967688944268,0.06970617219280226
15.03508,1.2199581108462596,0.07747053688706394
15.039672,1.3874238089266464,0.08528029041571489
15.04426,1.566636535906822,0.09304907720231971
15.048852,1.7495455232065842,0.10093497085422708
15.053436,1.93848252002644,0.10896876994120494
15.05802,2.1366345685659156,0.11702854371079725
15.062608,2.3459227224344517,0.12511172680396582
15.067196,2.57133289272687,0.13313893006033828
15.071788000000002,2.812155633343448,0.14098130851214813
15.076364000000002,3.0636730648028063,0.14857917105145255
15.080948,3.2985253599013324,0.1560959088213607
15.085524,3.5111598254221046,0.1562904070844062
15.090112,3.7158791296302316,0.15574227956403688
15.094708,3.8982142780978304,0.15557632637207086
15.099291999999998,4.072722548150041,0.1550971585452304
15.103888,4.236339082301481,0.15448611095380319
15.108484,4.387098685494083,0.15380944680773004
15.113072,4.522469380547676,0.15318657794619842
15.117664,4.637010419327744,0.15269862632548362
15.122243999999998,4.732031931873002,0.15232359789820224
15.126848,4.818204946841079,0.1517837469684075
15.131436,4.893241856480092,0.15118374273254118
15.136032,4.9521567496952255,0.1506837730464043
15.140612,5.002345330047323,0.15001922399360915
15.145216,5.046095205288258,0.1491140296102808
15.149808,5.080097148504364,0.14811263288704743
15.154404,5.105372778857433,0.14699166093111854
15.158984,5.119634488595588,0.14584272852370073
15.16358,5.122604006473644,0.14480644434603784
15.168176,5.114291572123345,0.1440300961511367
15.172768,5.1051679862226536,0.14337637492576644
15.177356,5.097232345646527,0.14273415740799122
15.181947999999998,5.081290077938828,0.14235355868520325
15.186524,5.06976693920385,0.14195258327723445
15.191108,5.055589638574558,0.14165841398575302
15.195696000000002,5.042600283269832,0.14138256481357525
15.200276,5.028389080823651,0.1412107760070504
15.204864,5.019207930920918,0.14096910821960937
15.209447999999998,5.018043647781501,0.14064395576414357
15.214023999999998,5.019621809433656,0.14032245260173923
15.21862,5.015725321134403,0.1401702491644415
15.223208,5.012117343712072,0.14005433729545386
15.227792,5.01521610301434,0.13984389724134488
15.232388,5.020568568251596,0.13968385243889894
15.236972000000002,5.02739748969034,0.13958223434277317
15.241575999999998,5.035047802311217,0.13953337969882057
15.246156,5.041598452504781,0.13957944071611045
15.25076,5.047049440271034,0.13971837690065392
15.255348,5.050379146448184,0.1399746106514255
15.259944,5.05886108988293,0.1401565023462244
15.264524000000002,5.071718020841767,0.14027035051127695
15.26912,5.092425492401147,0.14026625431878767
15.273708,5.1251921659223845,0.14003169093621645
15.278304,5.155671231691743,0.13986710612669292
15.282892,5.1902809155569045,0.13965586657226892
15.287484,5.222847361098477,0.13949300046764704
15.292072,5.259011544430643,0.1392679098282653
15.296668,5.293665369744431,0.13911289164915175
15.301256,5.32525433757284,0.1390369404875414
15.305848,5.363628085391367,0.13882286138278307
15.31044,5.414549774028338,0.13835543720899734
15.315032,5.4712346234936335,0.13778329849669257
15.319608,5.528530396529656,0.13718160714127697
15.324203999999998,5.585782028117052,0.13653675461224346
15.328796,5.639680291342147,0.13593455161686022
15.333372,5.690347370919086,0.13536152918509828
15.337955999999998,5.742524808514403,0.13473825891584326
15.342536,5.79273705105165,0.13410099544135656
15.347112,5.843271706282706,0.13338552352425628
15.351708,5.887099624789161,0.13274675753727552
15.356296,5.927696359647462,0.1321377387932211
15.360884,5.962363607514664,0.13160426817641832
15.365480000000002,5.988935945353037,0.13119634634434
15.370072,6.018162445085727,0.13070076339767353
15.374668,6.043092000559837,0.1302054534252819
15.379256000000002,6.070675717928266,0.1296229747012218
15.383852,6.0952726210768295,0.12905061191014697
15.38844,6.117249264147968,0.12845835031558056
15.39304,6.134562408818092,0.12788414630754047
15.397624,6.144025012887678,0.12741153516840342
15.402212,6.141917153851986,0.12709561119390814
15.406792,6.132080938929898,0.12686363312936835
15.411383999999998,6.1152936178549195,0.1267094560928273
15.41598,6.098095601188875,0.1265308803169246
15.420559999999998,6.081752877521851,0.1262916118741106
15.42514,6.064222208530259,0.12603184222656455
15.429732,6.037697195062186,0.1258889921550532
15.43432,6.010517116574758,0.12573945743575338
15.438908,5.98219323421139,0.12561709797968473
15.4435,5.956689839905113,0.12544989567176917
15.448084,5.929876315560121,0.12527048733748958
15.452672,5.901386107033981,0.12510538020488415
15.457260000000002,5.872363018202628,0.12492548409352304
15.461852,5.841418875761835,0.12477537607745454
15.466436000000002,5.813050851949839,0.12459517856280351
15.471024,5.785704447299637,0.1243904386661446
15.475616,5.76130071542067,0.12413121393245644
15.480208,5.739595286884645,0.12383583008497331
15.484792,5.723653019176946,0.12344444775555939
15.489387999999998,5.71208573899334,0.12300442481412098
15.493984,5.703094577438532,0.12253651675897868
15.498576,5.693736861741288,0.12209143916234277
15.503163999999998,5.68671089524455,0.12163563240816826
15.50776,5.6744546482247,0.12128866522517466
15.512348,5.660032978167116,0.12098947887535105
15.516948,5.651907349243068,0.12061036012665442
15.521536,5.653264803652082,0.12008137848134529
15.526132,5.656176757528101,0.11954673693391711
15.530715999999998,5.661909199461208,0.11897161679072411
15.535308,5.668541075841963,0.11838777641920285
15.5399,5.679303570318522,0.11777617539700602
15.544496,5.695462671480966,0.1171012355083629
15.549091999999998,5.715752390739214,0.11639901571764814
15.553692000000002,5.737840978892757,0.11567803843861502
15.558284,5.762505685675098,0.11494521445520402
15.562884,5.785904403867354,0.1142567082597321
15.567472,5.806893329593587,0.1136364083238662
15.572056,5.828781689767466,0.1130135380421787
15.576643999999998,5.852757429713559,0.11241296853697584
15.581236,5.872768877726627,0.11187723426018305
15.585819999999998,5.893435390759049,0.11134902414446271
15.590408,5.919742879905651,0.11074856422242692
15.594995999999998,5.9489930418234875,0.11010636025304109
15.599584,5.9809415070842675,0.10942802691350269
15.604176,6.016243340707347,0.10873042711133638
15.608768,6.0434944057502245,0.10816952334392957
15.613347999999998,6.067314059165285,0.10769306098247039
15.617956,6.092932581475641,0.1072020717562586
15.622536,6.1147089965671135,0.10676586985922701
15.627123999999998,6.135219423068501,0.10636544709796733
15.63172,6.154830415122241,0.10597806355349486
15.636312,6.171620919118893,0.10562928618846353
15.640904,6.186734738934393,0.10529215394056121
15.645496,6.199805320426306,0.10498932107233218
15.650092,6.2053138721945995,0.10477952969339582
15.65468,6.209145739781745,0.10457923938779257
15.659272,6.211423107901883,0.10437937207614556
15.663864,6.210635618536642,0.104229297054803
15.66846,6.205595326361454,0.10410536474753793
15.673044,6.201698838062205,0.10395677464171298
15.677636,6.199845588086543,0.10377617242253476
15.682236,6.196193469215584,0.10361265651382541
15.686827999999998,6.186000939782799,0.10352060992254888
15.691427999999998,6.179894886997189,0.10336495362078779
15.69602,6.17235651945872,0.10320163263222819
15.700596,6.169926247729219,0.10295917302341238
15.705192,6.1697835837515935,0.10267063069770015
15.70978,6.166820431716881,0.10241365765580544
15.714376,6.164878898843963,0.10214014647807693
15.718956,6.164325539275274,0.10182830882653568
15.723532,6.166181972172609,0.10146521757118196
15.728128000000002,6.16983727396524,0.10108877168519692
15.732716,6.170916457129073,0.10072569557016432
15.737308,6.1722400097211985,0.10034648250556524
15.741892,6.178549473408145,0.099897947599666
15.746479999999998,6.184858937095092,0.09944896440664154
15.751088,6.192190019943833,0.09898348600097952
15.755676,6.197722233897279,0.09853021037846893
15.760280000000002,6.2042760670125165,0.09806214777069294
15.764868,6.214794192060782,0.09754454120506464
15.769455999999998,6.218649721833076,0.09709929387966634
15.77406,6.219684763548282,0.09668348180040792
15.778648,6.232001757491846,0.09615313594767165
15.783256000000002,6.240721013644817,0.09565460912041698
15.787852,6.246375412312406,0.0951986887149078
15.792452,6.250230942084701,0.09475751414180325
15.79704,6.248323311028672,0.09437990013766068
15.80164,6.24678223411508,0.09397837518773236
15.806232,6.247406580239218,0.09354072879295824
15.810828,6.249052545525153,0.09309164129190652
15.815416,6.246489849449766,0.09270840723381885
15.820011999999998,6.242494838621521,0.0923165733377701
15.824604,6.244018619193309,0.09188008502174147
15.829196,6.24656401892689,0.09143001884018702
15.833787999999998,6.248209984212824,0.09098761159882583
15.83838,6.251654818394054,0.09053386630205798
15.842976,6.258042325346517,0.09004936835345155
15.847568,6.269415743393805,0.08950632983467065
15.852156,6.2786237384033585,0.08899660285914564
15.856748,6.282968007032236,0.0885398029800013
15.861339999999998,6.295118674813025,0.08799987742410341
15.865924,6.309312580917399,0.08743354639200586
15.870516,6.31132510034577,0.08697159870510274
15.875112,6.314114869507643,0.08651163758447332
15.879704,6.317681888403018,0.08605024554175524
15.884284,6.323169960907834,0.0855714331317149
15.888884,6.334421194240975,0.0850369864325532
15.893472,6.34722692704112,0.08450793686901549
15.898056,6.363386028203565,0.08397972766562459
15.902652,6.372638164661747,0.08352332410366395
15.907232,6.3807464972439885,0.08308503115768485
15.911836,6.38554560291256,0.08269794953121852
15.916424,6.3871576663816025,0.08235771031131739
15.921012,6.386482122098769,0.08205626675969761
15.925616000000002,6.384418404511705,0.08178894393584456
15.930212,6.383009751943996,0.08153242801185688
15.934808,6.3802129260720575,0.08131092764363834
15.939384,6.3751284924482405,0.08112833600029387
15.943984,6.373763981329161,0.08091962500072418
15.948564,6.375997208000673,0.08069230552979359
15.953164,6.3769644460820984,0.08049295636780755
15.957752,6.377320760592797,0.0803292049815592
15.962352,6.385649800418181,0.08013110585007753
15.966944000000002,6.394389535834629,0.07995752069411455
15.97154,6.408892432079402,0.07973698606496397
15.976132,6.424583273648742,0.07954505947960885
15.980724,6.43864157248556,0.07940091568857584
15.985328,6.453599305770026,0.07925410600252455
15.98992,6.462793878226168,0.07915466893787555
15.99452,6.482903848768229,0.07899933379100238
15.999112,6.5086547954244685,0.07880684861533578
16.0037,6.5380034798713,0.07859701695358681
16.008292,6.569517587355865,0.07836039965815786
16.01288,6.604629432631021,0.07810743184052286
16.017468,6.6426839506774105,0.07782993547678616
16.022064,6.67906178454265,0.07755617159303198
16.026652,6.7146623686743885,0.07728141834162076
16.031236,6.75128457196792,0.07699775118148361
16.035824,6.783942483328424,0.07675054137140505
16.040416,6.8158231449554245,0.07650383638756739
16.044999999999998,6.847948176010718,0.07624793292375676
16.049588,6.882360814817888,0.07595971398769413
16.05418,6.913542269976905,0.07566848822438
16.058768,6.944557398973148,0.07534312190116316
16.063352,6.973118594054737,0.07502085808221705
16.067952,6.997915725182963,0.07467846243417578
16.07254,7.0206254765389735,0.07431341577241797
16.077144,7.040759109266185,0.07395396379056654
16.08174,7.059338242526391,0.07358644078238033
16.086344,7.068390151004912,0.07323871949378907
16.090932,7.073311441387628,0.072890180362061
16.095528,7.081786328112308,0.07249063799668705
16.10012,7.086663477046395,0.07210420221457164
16.104712,7.092395918979506,0.07167627457081341
16.1093,7.093875558102663,0.07125046382053546
16.1139,7.091757459435232,0.07083442375660923
16.118492,7.091682599091388,0.07040142714912574
16.123084,7.0889094354046,0.06997661015888476
16.127676,7.090589302507422,0.06949679102188484
16.132268,7.09161410459089,0.06900850177374664
16.13686,7.0851990616648814,0.06855221852102622
16.141452,7.07440903121478,0.06810226256150645
16.14604,7.065662239088266,0.06763452981521788
16.150631999999998,7.0529511550287225,0.0671934483501348
16.15522,7.0372973981979445,0.06677143564222318
16.1598,7.023442510262463,0.0663430559102153
16.164384,7.0146957181359495,0.06587203926829491
16.16898,7.009013783494815,0.06537638304958712
16.173572,7.005497271891415,0.06485546562362278
16.178152,7.003779629183309,0.06432680899167671
16.182744,6.998874944275678,0.06382675785892072
16.187328,6.985264425768489,0.0633761502401605
16.19192,6.972553341708946,0.06292165901372923
16.196528,6.959475703506966,0.06248772726485844
16.201116,6.951916856705021,0.062036397797257725
16.205704,6.950121170731397,0.061554779835668205
16.210292,6.9435839430912445,0.061093980320772456
16.21488,6.93819051932703,0.06061743110006879
16.219476,6.930753857239229,0.060157996276299086
16.224052,6.920130152951902,0.059726384260200896
16.228644,6.919644597016992,0.059265192065965984
16.233232,6.9227567788726745,0.05879760391542763
16.237836,6.923825722404769,0.05834604787115548
16.242424,6.930413457336895,0.057879415523964625
16.247024,6.939821680326114,0.05740302424927076
16.251616,6.947719545296954,0.05695904238176544
16.256212,6.950264945030534,0.05656603409725087
16.2608,6.94872386811694,0.056202787567818505
16.265392,6.949636725118,0.05584947503769404
16.269996,6.953003516033713,0.05550531517179428
16.274588,6.963932336673044,0.055135494830964124
16.279176,6.978458895102967,0.05475949345328913
16.283772,6.994007072694684,0.05437729216282159
16.28836,7.006734762229311,0.054005707046158424
16.292948,7.0152537904026175,0.05366962915466729
16.297524,7.018786907481105,0.05336198471107934
16.30212,7.026162131778474,0.053039051008073025
16.306704,7.03611347470464,0.05272147037124622
16.311288,7.044921013754867,0.05241704033064553
16.315884,7.057448475309831,0.05210376998990631
16.320472,7.063313341588823,0.05181445451192122
16.325064,7.068156588706022,0.051532705551470666
16.32966,7.071078782213778,0.051256878094316505
16.334236,7.06631676128377,0.05100745118581249
16.338832,7.058489882868382,0.05077703908246995
16.343428,7.047187451376548,0.05054028170490432
16.348016,7.033963966275272,0.050308551295195916
16.352619999999998,7.018575058136264,0.050094278736349376
16.357208,6.996767924149575,0.04988724008571756
16.361804,6.972262486819941,0.04968019694231367
16.366388,6.9383961508713945,0.049492922717915264
16.370988,6.899543903828024,0.049330412067789584
16.375576,6.857504614585127,0.04919184413028692
16.380176,6.808558360637967,0.04908486185406956
16.38476,6.754337684719066,0.04897127786405712
16.389356,6.699095389638371,0.04886294702671043
16.39394,6.636946129853414,0.0487865841450035
16.398536,6.565435971449541,0.04872950937459198
16.403124,6.487263217769695,0.04869261969270427
16.40772,6.4007511846327265,0.04866899836752953
16.412308,6.310519228991022,0.048651922346570724
16.416904,6.215301362254495,0.04866154366481721
16.421492,6.11893969164203,0.04868352182302292
16.426084,6.025520693800799,0.04869121931861448
16.430664,5.928259588740686,0.04871434810542258
16.43526,5.830998483680572,0.04873563141807334
16.43986,5.730017456115721,0.04876708012805006
16.444452,5.627359744369721,0.048793380367669115
16.449044,5.522536609585987,0.04884308276947956
16.453632,5.411828129259783,0.04892734309635714
16.458228,5.300997464219434,0.04902037196314639
16.462808,5.193598210806903,0.04906112123191456
16.467392,5.0836228387655735,0.04909302936857367
16.471988,4.97376965143839,0.049123382739805245
16.476576,4.86187322578762,0.049173940107014896
16.481164,4.749321735117494,0.0492032680096028
16.48576,4.637914048323306,0.04921464914435873
16.490344,4.529082480157915,0.04923830855656488
16.494952,4.4240930192114085,0.049242467122977744
16.499544,4.319880807998402,0.049260007050917994
16.50414,4.213991912604246,0.04926627299585882
16.508724,4.103605844971852,0.04928100448454278
16.513324,3.993464146767749,0.04926789145016973
16.517912,3.8808685146489936,0.04921947966744876
16.522512,3.7683950672443847,0.049161592490990356
16.527096,3.6540005662303336,0.049111342146294576
16.531696,3.5434481724351663,0.0490340081236678
16.53628,3.432895778639998,0.048954569788097174
16.540872,3.321321765683036,0.04890009859910995
16.54546,3.2110137413161595,0.04880535245120189
16.550056,3.0986624786256955,0.048750553517617354
16.55466,2.98300198902156,0.04875972481749512
16.559252,2.865176076379691,0.0488322088503779
16.56384,2.7511922709567047,0.04887206638404971
16.568428,2.6418278224861043,0.04890275613014858
16.57302,2.5301757662636244,0.04902189194303956
16.577608,2.4137821683746146,0.049209720384561936
16.582196,2.2958340710186005,0.04937327904249308
16.586788,2.174166051157849,0.04958010426671423
16.591384,2.056584507944272,0.04965354133033994
16.595972,1.9423563330929952,0.04979646148205998
16.600564,1.8309486462988074,0.047324847959733775
16.605144,1.7163539173050932,0.04488026617848583
16.609736,1.6011482647406508,0.042478645946020105
16.614324,1.4877414810715037,0.04007692328916542
16.618911999999998,1.3780546199070938,0.03767507031665149
16.6235,1.2693893779044776,0.035289796640257345
16.628096,1.1627673742254485,0.03290514120038745
16.632684,1.0637074002700393,0.03048433083148853
16.637276,0.9680007946769298,0.02808188683226172
16.641856,0.8762584810168489,0.02563699209926972
16.646448,0.7872144706997116,0.02316705566479917
16.651028,0.7039336212108985,0.020642467487694625
16.655628,0.6220850864749442,0.01813789502592221
16.660216,0.5430570397960789,0.01562852719556167
16.664816,0.47042894818795034,0.013051590412392308
16.6694,0.40897889487097694,0.010416165851473452
16.673996,0.35164118887286205,0.0077917915668861935
16.678588,0.3026610331088128,0.00513508295304964
16.68318,0.2567898762787725,0.0025971354325161427
16.687776,0.21271758834402782,0.0
16.692368,0.17661802572396804,0.0
16.696956,0.14693668895158896,0.0
16.70154,0.12391794745518186,0.0
16.706132,0.10190255434362441,0.0
16.710728,0.08246327986086485,0.0
16.715316,0.06692852482256,0.0
16.719892,0.0556465725942031,0.0
16.724488,0.04448680507999188,0.0
16.729068,0.03447084144171983,0.0
16.73366,0.030628734222837083,0.0
16.738248,0.030873103651128428,0.0
16.742836,0.03267197254642413,0.0
16.74744,0.03880168751718526,0.0
