Time,Force,Position
14.423180000000002,0.5858650846824787,0.016305876634239477
14.427768,0.5167749583763681,0.01396808644200738
14.43236,0.4505053201273465,0.011634370304044642
14.436948,0.39245277662130135,0.009307361673739134
14.441536,0.3415957086964389,0.0069506566654997295
14.446132,0.292293140238581,0.004639035227749987
14.45072,0.2494087976284036,0.002292690481924016
14.455308,0.2078703453071837,0.0
14.459912,0.16992963077655523,0.0
14.4645,0.14192497818532615,0.0
14.469104000000002,0.1222596050512191,0.0
14.473684,0.10247204720296638,0.0
14.478280000000002,0.0883254654688921,0.0
14.48286,0.08161872874429198,0.0
14.48746,0.07916479482963978,0.0
14.492048,0.0783875450961376,0.0
14.496648,0.0765886762008419,0.0
14.501232000000002,0.0805529681338703,0.0
14.505828,0.09166859419945338,0.0
14.51042,0.10200697053153429,0.0
14.515004,0.11234534686361519,0.0
14.519604,0.12178428874804825,0.0
14.5242,0.1318782956518378,0.0
14.528788,0.14005124894618598,0.0
14.533372,0.14654751805938415,0.0
14.537964,0.154842656067878,0.0
14.542560000000002,0.16211617491457833,0.0
14.547148,0.1743398446058561,0.0
14.551744,0.18464246068769252,0.0
14.556336000000002,0.1905278062301623,0.0
14.560912000000002,0.19257104455374938,0.0
14.565508,0.1898727412108058,0.0
14.570092,0.1880738723155101,0.0
14.57468,0.1854977536867122,0.0
14.579284,0.18034551642911648,0.0
14.583872,0.1725748775274498,0.0
14.588484,0.16582585778757664,0.0
14.593068,0.15638691590314358,0.0
14.597672,0.1471686812618513,0.0
14.602264000000002,0.15182899674119138,0.0
14.606844,0.16521562508356802,0.0
14.611436,0.19681164962204242,0.009708422273857327
14.616016000000002,0.24289714785187758,0.019051781473103345
14.620616000000002,0.3012625552867126,0.02813298733707858
14.625196,0.37100843747889956,0.03717605952881363
14.629796,0.45417803275202556,0.046030139309890285
14.634384,0.5489724722107949,0.05484972680751006
14.638984,0.6501614753320943,0.06374260828049477
14.64358,0.7664508757154828,0.0724884792700491
14.648172,0.9006611614180495,0.0809772042500388
14.652768000000002,1.0485395296298465,0.08936081607533247
14.65736,1.215604771750907,0.09759265298264555
14.661952,1.3951942925052585,0.10576816278065158
14.666548,1.5870637224646098,0.1138825266808712
14.671136,1.7922346807907554,0.12196802870712907
14.675732,2.0157353615937894,0.12990973926050492
14.680308,2.248817648258879,0.13791094165435763
14.684904,2.4922843111380333,0.14580503824286578
14.689488,2.7383948962797655,0.15355249929488737
14.69408,2.9640423792904116,0.1613787458786864
14.698664,3.183373341904044,0.1690985113732393
14.703244000000002,3.3860052663399562,0.16707365774997784
14.707836,3.574470129778316,0.16535231561865446
14.712424,3.748201150097024,0.16392856590821894
14.717012,3.9119398689626106,0.16249811244570475
14.721612,4.06670790553687,0.16113361263186537
14.726196000000002,4.21303814012501,0.15973429419903337
14.730808,4.348065943221317,0.15824356973904244
14.735400000000002,4.4682377184838264,0.15692536878546384
14.740004,4.571754597017242,0.15586069021086052
14.744596,4.662869381631512,0.15487914887193585
14.749188,4.737739965107754,0.15408618319672815
14.75378,4.802373877702582,0.15326892258188504
14.75836,4.852029577749466,0.15253818696420346
14.76296,4.888505934143701,0.15184360213306092
14.767548,4.907472100809823,0.15134099096841072
14.772148,4.91967714967098,0.15071240128891517
14.776728000000002,4.920223452529603,0.15022028718131983
14.781336,4.915617518130628,0.1498272681124122
14.785928000000002,4.921193873532698,0.149262574131256
14.79052,4.926936555097544,0.1487524455451179
14.795116,4.93206831309166,0.14829569541872806
14.7997,4.94137483063021,0.1478429722535164
14.804296,4.955955770140496,0.14729457783183603
14.808892,4.972624089422999,0.14675250678578033
14.813492,4.983451204611661,0.1464175738894716
14.818088,4.997631688162623,0.14604453289724303
14.822676,5.016475670114599,0.14563699315550463
14.82726,5.042515127647757,0.14510330039729044
14.831844,5.06806584632433,0.14460756541704187
14.836436,5.093127826144324,0.14415330672143328
14.841028,5.12256479348841,0.14362711764789013
14.845604000000002,5.15024703338583,0.143195660841516
14.8502,5.182304260807345,0.1426947548196776
14.854776,5.21603817241001,0.14217205987447754
14.859372,5.25349200651741,0.1415724622606283
14.863964,5.288003167853577,0.14104877058342438
14.868552,5.326356436408625,0.14044389468630855
14.873148,5.362788651354234,0.13988655928699162
14.877736,5.396156008814462,0.13941743625395223
14.88234,5.428091051521832,0.13895863298941677
14.886932000000002,5.461947147838643,0.13845975985051973
14.89152,5.490651006897859,0.13803659837583476
14.896128,5.518577616223573,0.13762798479481786
14.900708000000002,5.543150857186986,0.13726226815126186
14.905304,5.57332093281595,0.1367358576119309
14.90988,5.592575610358993,0.13639749550455674
14.91448,5.606800235358586,0.13612067366677794
14.919068,5.61317431975764,0.13595807247703443
14.923672,5.623102000498658,0.1356868982798719
14.928252,5.636583277581639,0.13531003210012632
14.932848,5.649898228501846,0.13489688008370548
14.93744,5.662269603525775,0.1344463072274725
14.942032,5.6723092293491995,0.13401274443916764
14.946636000000002,5.681038725133909,0.13357029533541612
14.951232,5.688458090879909,0.13312058224666798
14.95582,5.698409433806076,0.13259214337760186
14.960412000000002,5.703741419779859,0.1321400166822167
14.965,5.7055978526771955,0.1317287418423503
14.969584,5.707287959411758,0.1312768934467801
14.974172,5.708078631698671,0.13083958360604098
14.978768,5.709480227556311,0.1303591601170934
14.98336,5.712802877023393,0.129842708314069
14.987952,5.712405603985737,0.12938709839485182
14.992544,5.715073188433464,0.12886747729017384
14.997128,5.714020850376451,0.1284096242014281
15.001712,5.720530542043058,0.12782125671420055
15.0063,5.729860721766754,0.12718617211095667
15.010884,5.740745400957456,0.12654016209332222
15.015488,5.747543603500982,0.1259825658861865
15.02008,5.749355894949686,0.12552550203787707
15.024668000000002,5.748103328913012,0.12513372745000723
15.02926,5.748283077629194,0.12474477468920667
15.033848,5.7485850110595225,0.12434750085293199
15.038452,5.75338411672809,0.12389372664711482
15.043032,5.756017799358926,0.12348937869439879
15.047636,5.757385493399677,0.12312586763199626
15.052228,5.761940229639954,0.12269235282611772
15.056824,5.772913191727911,0.12216883453823005
15.061404,5.785196283854581,0.12166115540846445
15.066008,5.796091202677021,0.12119943383670884
15.0706,5.80535357876694,0.1208037141717322
15.075196000000002,5.812939270675709,0.12042131450903895
15.079776,5.823467635355714,0.11998781899993965
15.084372000000002,5.830686773122048,0.11963285342123271
15.088972000000002,5.84125927925068,0.11925321313085376
15.093564,5.84774530873214,0.11895253496784111
15.098164,5.8538647840711615,0.11867928355635526
15.10276,5.861660943591334,0.11839307858156889
15.107348000000002,5.875753144245042,0.11803385373332029
15.11194,5.89037822520396,0.11768686211324016
15.116532,5.905414001753944,0.11736263255158896
15.121128,5.920205408875636,0.11705711072302749
15.125716,5.9351631421601025,0.11679348193199476
15.130308,5.946567279102605,0.11662449882548369
15.134900000000002,5.9632458380168485,0.1164021375648789
15.139488,5.980335092522157,0.11620486021218528
15.144084,6.001310595694978,0.1160032214180543
15.148676000000002,6.0230633486012986,0.1158053095345828
15.153268,6.042650678469889,0.11565253307595197
15.157852000000002,6.065957930843216,0.11545315989683806
15.162444,6.089020813788251,0.11526938076830787
15.167052000000002,6.117113749276737,0.11505371237962006
15.17164,6.147538433965729,0.11483837386352105
15.176248,6.183726279483046,0.11454575283189418
15.18084,6.218892505838569,0.11427568586360094
15.185444,6.2617429466318555,0.11390493194750745
15.190036,6.305981560729375,0.11349955322813439
15.194628000000002,6.354428836188213,0.11302992972159562
15.199224,6.397479504961165,0.1126196859152617
15.203812,6.445760454257228,0.11212466315979686
15.208416,6.497350630466964,0.1115702359931299
15.212996,6.547508491923841,0.11101096530800982
15.217596,6.59827727695145,0.1104172927872442
15.222172,6.647325236349277,0.10978857241770748
15.226776,6.692242577651303,0.10918613550455204
15.231368,6.732374235838169,0.10859467575700556
15.235964,6.766043526728729,0.10803241502833852
15.240548,6.793783330628188,0.10750891486588261
15.24514,6.82262279695496,0.10692054131993486
15.249748,6.845777145718923,0.10635279886624324
15.25434,6.867865733872466,0.10575525083237144
15.258936000000002,6.885945888644353,0.10517278567825535
15.26352,6.896297687529846,0.1046397814203138
15.268108000000002,6.898798945814799,0.10416488983060704
15.272692,6.895737271251091,0.10369927652974295
15.27728,6.88494724080099,0.10328290905107618
15.281876,6.86773898450321,0.10292572459414584
15.286460000000002,6.841414199014803,0.10265008977995076
15.291048,6.813002033754182,0.10235830296813977
15.29564,6.777516577626523,0.10211650224319105
15.30022,6.736101634507765,0.10190133990341936
15.3048,6.696319234121533,0.10163099268195962
15.309396,6.652161846211205,0.10138713065826595
15.313984,6.60673846971079,0.10117032598575114
15.318568,6.562703266514607,0.10091242003203789
15.323164000000002,6.524675593575041,0.10057056491439689
15.327752,6.483827432578385,0.10025381185455573
15.332356,6.445677574924672,0.09991256083480922
15.336952,6.405240109519081,0.09961115732399176
15.341544,6.366601513008787,0.09929175449429961
15.346124,6.32604186288905,0.09899110535287577
15.350724,6.286626016645253,0.09866439583416453
15.355312,6.25465001541093,0.09826431119167861
15.359908,6.222674014176605,0.09786007765464735
15.364496,6.194828631038084,0.09743999840614172
15.369096,6.165350705167041,0.0970692194145473
15.373688,6.140247766820093,0.09666838804583326
15.378284,6.120785804587322,0.09620655687116592
15.382876,6.10161235323147,0.09577227992734301
15.387472,6.087468954419069,0.09531725005257802
15.39206,6.073491881769442,0.09489810050175597
15.396652,6.05878170083494,0.09452488832821376
15.40124,6.045626019367444,0.09415038715447754
15.405836,6.0363124451188295,0.09373080084245657
15.410424,6.027287381747134,0.0933437506184776
15.415008,6.013687102871683,0.09304589065957139
15.419596000000002,6.0072822995774136,0.0926930515993432
15.424192,6.0015325613025015,0.09234957112868954
15.428784,5.997337322494593,0.09200760841386746
15.433372000000002,5.997394886496632,0.09164942653156043
15.437956,6.00759059885109,0.09120849137067837
15.442536,6.018974256530115,0.09079641636860489
15.447124,6.026393622276112,0.09043447268916996
15.451720000000002,6.042562963070297,0.0900300511794438
15.456304,6.060286803331484,0.08963146550322561
15.460916,6.082630000545056,0.08919357532237399
15.465504,6.108693120263367,0.08872995348198845
15.470088,6.132879327820863,0.08833455841397925
15.474692,6.163483761226041,0.08789346387974438
15.479288,6.194088194631219,0.08745777763408531
15.483892,6.235197330531252,0.08693127026216652
15.488472000000002,6.27696153145064,0.08641621004118467
15.493068,6.326043392665358,0.08585784171360401
15.497648000000002,6.377701372508874,0.08530141361229097
15.502244,6.427316114028801,0.08477129206107345
15.506828,6.4770530402628745,0.08422997499119401
15.511428,6.52642341235451,0.08372038604061958
15.516012,6.57771483805559,0.08320112863833083
15.520608,6.629905698204316,0.08267928600695314
15.525196,6.681852188924749,0.08218075518640382
15.529788,6.724071226883831,0.08177840760239884
15.534388,6.764735765375909,0.08137525420131318
15.53898,6.805400303867987,0.08097243444917515
15.543568,6.838092117045381,0.08060857402131705
15.548156,6.8692294307557695,0.08024295227673545
15.552744,6.901754917770388,0.07985006411737525
15.557344,6.927617809509035,0.07950977773364101
15.561928000000002,6.956134863141997,0.07911578610372484
15.566524,6.982197982860306,0.07872645384462346
15.57112,7.0058071686639645,0.07833864317040114
15.575708,7.018256586953411,0.07802289968502883
15.5803,7.027597006308849,0.0776961463018375
15.584888,7.029741950083103,0.0774028306449171
15.589484,7.024691418276176,0.0771400888375456
15.594076,7.021928494221127,0.0768437135339271
15.598664,7.022352612365605,0.07650991483255638
15.603276,7.015703439643044,0.07619828602191804
15.607852,7.000837172177508,0.07592492724399862
15.612456000000002,6.983639155511465,0.07564196169248164
15.617044,6.961288901587825,0.07536685248489643
15.621632000000002,6.941714994272648,0.07503004154527713
15.626228,6.9175217300050855,0.07471522827512722
15.630804,6.894472269613461,0.07438233762924587
15.635408000000002,6.873099493402988,0.07404699298738929
15.639996,6.850949467459014,0.07370708154016169
15.644596,6.8289216262291825,0.07336027627847086
15.649172,6.8075047085700815,0.07297756398845331
15.653772,6.7820013142638045,0.07263336227457771
15.658356,6.75956277744291,0.0722599556223406
15.662952,6.73442593727907,0.07189260835805501
15.667532,6.713131204334116,0.07149740036523877
15.672124,6.694534774732104,0.07109084225004692
15.676712000000002,6.677981583453678,0.07066347839749096
15.681308,6.66514831467999,0.07021530989550165
15.685896,6.647817873668062,0.06977942519587556
15.690484,6.630487432656135,0.06934365625839915
15.695072,6.622762259691414,0.06884770473128901
15.699664000000002,6.62272130116446,0.06830202305007142
15.704248,6.626522449856386,0.06773402489394
15.708828,6.63326627131955,0.06714420176979055
15.71342,6.643363461145012,0.06656147374814342
15.718,6.66282154958939,0.065937197093203
15.722592,6.681502388300266,0.06531051543473113
15.727188000000002,6.705169138105963,0.06465203337337755
15.731776,6.731778560682896,0.06397869864622964
15.736372,6.7553231257744475,0.06333489505482569
15.74096,6.786063166447183,0.06268066382458905
15.745548,6.8219113029288865,0.06198902019248452
15.750144,6.848931421096885,0.061354337488694774
15.754736,6.8841686340078585,0.06070177369019917
15.759332,6.916585358861744,0.06006087049951204
15.76392,6.953621440668013,0.059413827536609086
15.76852,6.993478010531372,0.05876362694006165
15.773108,7.0360328837376755,0.05811551648488564
15.777708,7.0869270364011,0.057448443431511495
15.782288,7.1403973076933225,0.05679318614703727
15.786888,7.184140126224194,0.056191118534281846
15.79148,7.224818087269683,0.055615601980151884
15.796076,7.262309006115647,0.0550715367780817
15.80066,7.298656121085671,0.054542941166681784
15.805256,7.327196836903784,0.054052380753730894
15.809844000000002,7.345477219655333,0.053590954460032744
15.81444,7.366089351607388,0.05314713827684263
15.819032,7.380161072997618,0.052723283069691027
15.823624,7.386304210521791,0.05233938376540069
15.828204,7.389382490560584,0.051973231047301394
15.832792,7.386042544751695,0.05161921078216779
15.83738,7.376939438114482,0.05128619351591197
15.841972000000002,7.368857950639063,0.05094293360572627
15.84656,7.346674022878198,0.05063414682927241
15.85114,7.326411148726773,0.050316092607653407
15.855732,7.292823084023406,0.050037222279786325
15.860320000000002,7.250529185720481,0.049788592335098615
15.864908,7.196953335189198,0.04956446158537131
15.869512,7.130951728553619,0.04937653800138816
15.874092,7.0526465505278875,0.04921931796660082
15.878684,6.972420318892716,0.049065867176078894
15.88328,6.890395218362251,0.048907639915534845
15.887868,6.8065712489364865,0.04874587328216404
15.89246,6.716084684234752,0.04859984168475189
15.897048000000002,6.628540792304251,0.04843755171847705
15.901652,6.544594638164343,0.048269991558401046
15.90624,6.447567662900782,0.04812730572785438
15.910836,6.345310407114107,0.04802133456839171
15.915424000000002,6.244074770489227,0.047905686034240315
15.920024000000002,6.143327872720929,0.047756262545734715
15.924616,6.037472879143663,0.047636471532544876
15.929212,5.926876343899866,0.04752350668006827
15.933804000000002,5.814114385618337,0.0474291020876861
15.9384,5.708670087632138,0.04732474022517136
15.942996,5.600815997179912,0.04725282784539198
15.947592,5.496804013946571,0.04716415181459334
15.952184,5.393569280446731,0.047080101841186946
15.956776,5.292910665575689,0.047003475117934984
15.961356,5.195727603781093,0.046935232526305784
15.96594,5.100465595595939,0.04685806750372718
15.970528000000002,5.008923509915522,0.04676977148026676
15.975128000000002,4.9121511437119905,0.046731022859492016
15.979716,4.810515051127782,0.04671551057952199
15.984304000000002,4.712476696334167,0.04669987857851919
15.988896,4.61251728793111,0.04668692748100812
15.993484,4.509615206756818,0.04668755518205213
15.998068,4.419016696972675,0.04664109254233093
16.002656,4.330461425512121,0.04657728398068796
16.007244,4.240762350175627,0.04653120040155658
16.01184,4.150452351268405,0.04652873069467182
16.016428,4.062063405970624,0.04651769745676679
16.02102,3.979848317092233,0.04651677084770133
16.025612,3.8987770320897805,0.04649336550133709
16.030192,3.814640889601948,0.04650380848624124
16.034796,3.7249859557140823,0.04653124677371376
16.039384000000002,3.635208837112071,0.04656773597106227
16.04398,3.5435106649006185,0.0466193450537647
16.048564,3.4527119271368134,0.046678625684696155
16.053164,3.3593370707442105,0.046728609042714093
16.057744,3.2707037560181385,0.04674577342161838
16.062344,3.1791277685208312,0.046789513546276154
16.066936000000002,3.089595019347111,0.04682200327222874
16.071528,3.002760573516335,0.046864610390921144
16.07612,2.915926127685559,0.046907995140903554
16.080712000000002,2.828070062692989,0.046963450762957326
16.0853,2.736371890481536,0.047067304440839786
16.089896,2.636212254098816,0.047209237363244484
16.09448,2.539894724934978,0.047302630017624005
16.099076,2.445742618808873,0.047332117370446646
16.103664000000002,2.348892209339825,0.04737555903455973
16.108248,2.250242930975481,0.04741785556668043
16.112836,2.14337655786816,0.04749273768355021
16.117424,2.0353663808849003,0.047625135135584376
16.122008,1.9287443772058712,0.04764462169996045
16.126596,1.8299287726787532,0.047500180939581575
16.131188,1.7311131681516352,0.04733633839427677
16.135772,1.6352402363957523,0.04497043653638098
16.140364,1.544353215734691,0.04258945776451572
16.144956,1.4571861175783674,0.040209408807986506
16.149544,1.3679757810984559,0.037864252550751674
16.154132,1.28170811738978,0.03550352270148867
16.158728,1.1985053111664843,0.0331256533526953
16.163316000000002,1.1183673624285693,0.030728810874390527
16.167908,1.0383515984048,0.028332046599926972
16.172488,0.9583358343810303,0.025935388233204605
16.177088,0.8897242072997634,0.02349177373550855
16.181676,0.8272864366378858,0.021044225896488515
16.18628,0.7626832429382757,0.018648078613301325
16.190864,0.6995123639915242,0.01630669263841708
16.195464,0.6419824611589511,0.013940764152510079
16.200048,0.5945907066787958,0.011578099007262553
16.20464,0.5563154813892645,0.00918328606190014
16.209236,0.525602285823353,0.006746465997538023
16.213832,0.49619922029615465,0.004398056282442231
16.218420000000002,0.4634869278552843,0.002188600462181698
16.223016,0.4342501884908598,0.0
16.227596000000002,0.4092662519363831,0.0
16.232188,0.3858368148489108,0.0
16.236776,0.3649834963902365,0.0
16.241368,0.3478501004362991,0.0
16.245956,0.33407007284466184,0.0
16.250548000000002,0.32172236000588333,0.0
16.255144,0.30888590831052204,0.0
16.259732,0.3021011283204043,0.0
16.264332,0.2987919014067324,0.0
16.26892,0.2892307748081537,0.0
16.273512,0.279669648209575,0.0
16.278104,0.27472787856338116,0.0
16.282684,0.27068554336483525,0.0
16.287272,0.2665210234521436,0.0
16.291864,0.2555717235493344,0.0
16.29646,0.24450023893237943,0.0
16.301056,0.2333065696012788,0.0
16.305656,0.2224794544126152,0.0
16.310248,0.21639388089048225,0.0
16.314828,0.2113299265301428,0.0
16.319428000000002,0.19972556160797705,0.0
16.324008,0.18538061032759467,0.0
16.328612,0.1710356590472123,0.0
16.3332,0.1565685230526843,0.0
16.3378,0.1413241373246541,0.0
16.342384,0.12710137075841743,0.0
16.346976,0.11492184251576777,0.0
16.351564,0.10016619564432025,0.0
16.35616,0.08643216793466625,0.0
16.360756,0.07588518242453848,0.0
16.365352,0.06635981607620425,0.0
16.36994,0.055935015280222156,0.0
