Time,Force,Position
15.148327999999998,0.036437992640092974,0.0
15.152907999999998,0.030386320934849356,0.0
15.1575,0.024456833943751404,0.0
15.162088,0.022125084743244865,0.0
15.166676,0.025067757514479764,0.0
15.171288,0.02866549530507117,0.0
15.175876,0.03476706679499071,0.0
15.180476,0.0425453224660603,0.0
15.185072,0.04733100558121904,0.0
15.189659999999998,0.05019563508693642,0.0
15.194264,0.05498131820209518,0.0
15.198855999999996,0.06198232413966258,0.0
15.203456,0.0657463880930278,0.0
15.208056,0.06848883288459949,0.0
15.212648,0.07531775432334528,0.0
15.217224,0.08538361774629327,0.0
15.221824,0.09737053477868263,0.0
15.226411999999998,0.1074363982016306,0.0
15.231007999999996,0.11558120801513715,0.0
15.235604,0.12168277950505671,0.0
15.240196,0.1286837854426241,0.0
15.244792,0.13142623023419583,0.0
15.249384,0.1313481869686783,0.0
15.253972,0.13037070925551292,0.0
15.258568,0.1330351107815671,0.0
15.26316,0.14715803033049082,0.0
15.267752,0.17401569612410767,0.0
15.272344,0.21642859621950689,0.00751110348758215
15.276936,0.27672847981719506,0.015317260711598276
15.281524,0.3536493583270872,0.023159276427534858
15.28612,0.4442044175293205,0.031084654135025848
15.290711999999996,0.5496596460139797,0.03902225335684743
15.295287999999998,0.6734905968575103,0.04689658280459504
15.299884,0.8125102278603864,0.05479374084404409
15.304472,0.97084915711841,0.06259339325307935
15.309063999999998,1.1440102123933422,0.07043640680323118
15.313652,1.334281001437061,0.07821214732353424
15.318239999999998,1.5462808812019513,0.08592298669815857
15.322843999999998,1.7784553522210096,0.09359614510413469
15.327432,2.0308044144942348,0.1012475187046292
15.332024,2.300507579964538,0.10887008897158733
15.336619999999998,2.5910404017083657,0.11650447867709804
15.341204,2.901381260563924,0.12414059035833441
15.3458,3.2289540379024144,0.13177594899043774
15.35038,3.565164845206687,0.13939962352437243
15.354984,3.8964236432330273,0.14701951532449634
15.359564,4.2124937611000215,0.15464503690266895
15.364164,4.512475764360023,0.15473042952863364
15.368743999999998,4.8023771832696465,0.1544242320559822
15.373343999999998,5.074225292514208,0.15406448231269682
15.377928,5.333216470799931,0.15359572449793385
15.382519999999998,5.582171206183903,0.15302930931056136
15.387112,5.813116773351441,0.15252358927796553
15.391704,6.028218595340276,0.15197260939059712
15.396295999999998,6.218726697102222,0.15155878835581915
15.400884,6.39052642417975,0.15109383875599935
15.405471999999998,6.541085799392689,0.15070361560072382
15.410056,6.669994127149974,0.15036273554798574
15.414644,6.781504210261551,0.15000581108861574
15.419244,6.8740615492604205,0.14963447684594972
15.423832,6.945622905822989,0.14928831440648763
15.42842,6.997820822681782,0.1488984883648355
15.433012,7.029633680675007,0.14848738017138294
15.437592,7.041594360107872,0.14806502594966264
15.44218,7.036078751629512,0.14765494787087738
15.446764,7.022702362918874,0.14721554096405942
15.451356,7.006583529416665,0.1467707616139536
15.455947999999998,6.989765489446471,0.1462795678519379
15.46054,6.964686213284673,0.14586820269046544
15.46514,6.935720688455363,0.1454785654391526
15.469732,6.8998821007386795,0.14512357535937584
15.47432,6.853616853792658,0.14489718369460447
15.478923999999996,6.804731346769212,0.14465609809170904
15.483516,6.751304526058897,0.14443357902443313
15.488108,6.702819474994777,0.1440640070393362
15.492688,6.655844781949033,0.14363428450842497
15.497288,6.606904893845218,0.14319073360863316
15.501875999999998,6.554489452664958,0.14278758769267633
15.506475999999996,6.496799589512958,0.14244986913297092
15.511068,6.434612554122717,0.14217470286448133
15.515664,6.375490376217858,0.14182564818065557
15.520248,6.317634186903081,0.1414266923139032
15.524836,6.257856943978865,0.14105751630602498
15.529431999999998,6.196935897178709,0.14071536981559016
15.534027999999998,6.136669915397908,0.14037354008555686
15.538616,6.073994141151085,0.14009973213316915
15.543207999999998,6.012872866371264,0.1398120560264993
15.547796,5.945499691906538,0.13966646473235286
15.552383999999998,5.879070093338089,0.13955410118565634
15.556972,5.818569981760735,0.13936219884270196
15.561572,5.762611183870248,0.13914664019495754
15.566164,5.714747296008594,0.1387984303959017
15.570752,5.674245209890895,0.13837041748669301
15.575344,5.6389395024794196,0.13792245648138673
15.579935999999998,5.60180102435576,0.13760570799527408
15.584528,5.5670384368812345,0.1373189895939252
15.589116,5.542091585065317,0.13693743466638636
15.593704,5.5279820880698045,0.1364429375168693
15.598304,5.520990023389956,0.1358984622028802
15.602887999999998,5.523324955512133,0.13530083175821203
15.6075,5.523827116922125,0.13483775133813544
15.612092,5.523928822372792,0.1345101968876137
15.61668,5.531680840444334,0.13414835775239126
15.621276,5.548593529155129,0.1336972166261554
15.625863999999998,5.57147984630565,0.13323143478229024
15.630468,5.606591691580803,0.1326173658178102
15.635044,5.653562510838153,0.13189605815015135
15.639648,5.70842801214467,0.13111617675043463
15.644232,5.771799119071083,0.1302547977915397
15.648828,5.835869432465483,0.12946168051537119
15.653415999999998,5.9074237323179855,0.12861901256223646
15.658015999999998,5.9777561850290315,0.12787648791795492
15.6626,6.044412856683969,0.1272513608493373
15.667196,6.113523462253558,0.12661877029111074
15.671784,6.187131240061388,0.12593172079919515
15.67638,6.260372463726781,0.12527842920787058
15.680967999999998,6.326584537973763,0.12476512169600426
15.68556,6.3889545050018635,0.12432830775610595
15.690148,6.451080102601672,0.12391620544413258
15.694743999999998,6.515082612362296,0.12344729361642129
15.699336,6.586603010397908,0.12283350555310936
15.703932,6.6638424278132184,0.12209607429803213
15.708515999999998,6.742836572675197,0.12131472256120147
15.713112,6.818477349174875,0.12057828308797866
15.717704,6.892397300044774,0.11982105363104699
15.722284,6.958222340885842,0.11917055559706681
15.72688,7.011699668888133,0.11865104141040841
15.731467999999998,7.065499409584232,0.11807459879048714
15.736064,7.112714598269876,0.11754428001518359
15.740656,7.159108395773391,0.11698054940136747
15.745247999999998,7.1973631417994435,0.11646306003685106
15.749843999999998,7.235818115805161,0.11589453141747864
15.754432,7.275494936952335,0.11525908868278718
15.759019999999998,7.309486640536702,0.11465051491326979
15.763608,7.33677160739647,0.11408206819506406
15.768199999999998,7.363357367788251,0.11347150605364674
15.772795999999998,7.3901433561596965,0.11280361294048541
15.777376,7.41418689973957,0.11212202510242451
15.781975999999998,7.433034064613219,0.11143621679212215
15.786552,7.441332385543387,0.11083715039275963
15.791147999999998,7.4432124806258715,0.1103061964876891
15.79574,7.4392852734314046,0.10980550358072272
15.800332,7.42636372176046,0.10938166245682937
15.804923999999998,7.410210986441362,0.10896748514481923
15.809516,7.390827067474107,0.10856147432854202
15.814104,7.366657465391696,0.10816411721396138
15.818695999999996,7.341055548556425,0.10775834056849157
15.823288,7.311978078644708,0.10737386383302777
15.82788,7.28044667481834,0.10699516898781869
15.832468,7.246216967649028,0.10663625039410325
15.83706,7.20904458770848,0.10631079412465579
15.841647999999998,7.168152285263194,0.1060192127905668
15.846244,7.120719572256081,0.10579040413147173
15.850823999999998,7.076351716734349,0.10551449685884523
15.855412,7.03414928425035,0.10519997263111582
15.860008,6.987860375119177,0.10493947692213934
15.864588,6.9433703348833,0.10466047140094552
15.869179999999998,6.8967148716096895,0.1044143164614233
15.873772,6.856111080041323,0.10412662605593441
15.87836,6.81963790656876,0.1038209161017034
15.882955999999998,6.781121494772608,0.10354196234250204
15.887548,6.742771409139232,0.10329502848870178
15.892151999999998,6.7089184957440935,0.10300944977297005
15.896744,6.67547627794002,0.10274335375415028
15.901331999999998,6.645798124089312,0.10248181552843676
15.905924,6.623726141410852,0.10218239046915799
15.910503999999998,6.608483080171139,0.10184600918670073
15.9151,6.597126267598936,0.1015097318009512
15.919688,6.5904329534277455,0.101173230171784
15.924288,6.586604268762273,0.10085153953458272
15.928868,6.593446612754431,0.10045537043764181
15.933468,6.604297390128245,0.10005320700988311
15.938052,6.623531588407809,0.0996170534570266
15.942648,6.645263862050654,0.09922169859655279
15.94724,6.673458502989807,0.09881986591072682
15.951831999999998,6.709381499815354,0.09838138136765652
15.956431999999998,6.747391876413117,0.09796298480721916
15.961031999999998,6.793130608897272,0.09750928420591691
15.965624,6.838913482830056,0.09710586042859044
15.970216,6.8876831709827036,0.0967137934650905
15.974796,6.940705661945298,0.09630401974485767
15.979383999999998,6.995937717394256,0.09590371797865622
15.983968,7.056199825386661,0.09549570387098254
15.988563999999998,7.121081290331451,0.09505540629760277
15.993156,7.187761624171539,0.09461104733103862
15.997744,7.253298154135687,0.09419280618820551
16.002344,7.319367564405044,0.09379646390002391
16.006923999999998,7.384537540226756,0.09341216280463241
16.011511999999996,7.449707516048466,0.09303174476879744
16.016092,7.514588980993257,0.09262939206790802
16.020671999999998,7.572397155071011,0.09227313552906066
16.025259999999996,7.630694068005347,0.09189708455570215
16.029856000000002,7.68768085090097,0.09151264968654703
16.034444,7.741925189005023,0.09111022959915224
16.039051999999998,7.792527647869855,0.09069917055814418
16.043644,7.8382222389053835,0.09029841171409227
16.048235999999996,7.881951634882843,0.08988054083361026
16.052816,7.922039151621082,0.08945079964702016
16.057415999999996,7.9568081049389505,0.08900811896012709
16.061999999999998,7.989856232627042,0.08853501399163208
16.066603999999998,8.02016191552356,0.0880407657764684
16.071196,8.048868957504448,0.08750889064242662
16.075792,8.066127721094205,0.08702399121935969
16.080384000000002,8.077579182407007,0.08654859664611844
16.084975999999997,8.08154665726171,0.08608340327046449
16.089568,8.082771687324836,0.08559489381756172
16.094160000000002,8.076879285072302,0.08509756070234677
16.098751999999998,8.062603461914017,0.0846101720902073
16.103347999999997,8.041210206440065,0.08411068304056252
16.107936000000002,8.014786898422663,0.0836156452842321
16.112519999999996,7.983333537861812,0.08312312612400444
16.117112,7.945828505595717,0.08264464291104624
16.121707999999998,7.901616736605022,0.08217119112429895
16.126295999999996,7.852130545642585,0.08171109991899611
16.130884000000002,7.795981759404177,0.08129242185565194
16.135475999999997,7.73840065841291,0.0808584298428527
16.140064000000002,7.677221819631052,0.08043450418052125
16.144655999999998,7.611301439182664,0.08003606161153716
16.149243999999996,7.546402677896068,0.0796208334296921
16.153832,7.478805613266529,0.07921074804841378
16.158428,7.408920940885113,0.07882690731738405
16.163007999999998,7.336870845465961,0.07846277779596814
16.167603999999997,7.272382779770431,0.07804547181121237
16.172199999999997,7.210593017417844,0.07761121318533284
16.176788000000002,7.152278808141704,0.07716270800861222
16.181392000000002,7.092820794989623,0.07672372210043739
16.18598,7.036960519628133,0.07626341958984507
16.190584,6.990094588743124,0.07576279709742177
16.19516,6.9537775018015955,0.07523020501556724
16.199756,6.919669979346428,0.07470723642364756
16.204335999999998,6.893412997491802,0.07416338532021369
16.20894,6.870509383999474,0.07361466341816864
16.213524,6.854801246088329,0.07303724879494591
16.218116000000002,6.847843083225374,0.07244034133689962
16.222696,6.8470587767818065,0.07182517715876659
16.227288,6.849505653986393,0.07121672818618702
16.231879999999997,6.855061530124987,0.0706198736837102
16.236472,6.8665468932546805,0.07002053474644851
16.241059999999997,6.87922020170894,0.06944763304361812
16.245647999999996,6.896268497687294,0.06886884703827172
16.250236,6.922555507570418,0.06825404351277886
16.254832,6.954239124139429,0.06762607334288362
16.25942,6.989520478499032,0.06699813936220891
16.264015999999998,7.024190909287906,0.06640431701634855
16.268611999999997,7.064013577334376,0.0658152714610207
16.273192,7.110010101800234,0.06522105555096507
16.277783999999997,7.161036678809544,0.06464085831682467
16.282372000000002,7.212718320838209,0.06408026349976396
16.286963999999998,7.261212920667349,0.06355960197969879
16.291559999999997,7.317025180791816,0.06302387987239404
16.296148000000002,7.37463630981158,0.062493411590798166
16.300748,7.439565099126671,0.061952335492604184
16.305327999999996,7.5047823993186835,0.061447740769031936
16.309916,7.569222449777192,0.06094929235244727
16.31452,7.635050673539933,0.06043428841223876
16.319108,7.700756712588527,0.05993035314367119
16.323712,7.768628174674856,0.059412001434469945
16.328291999999998,7.836988375617764,0.058878705808845994
16.332892,7.908291249331909,0.05833594739020983
16.337471999999998,7.974730396665377,0.05781960019132702
16.342072,8.032053014808222,0.05732694313420483
16.346655999999996,8.086799514322268,0.05683833538520939
16.351256,8.131940745789107,0.056390688630516585
16.355843999999998,8.17667128166488,0.055923961825524456
16.360436,8.21342909222597,0.05546361278800033
16.365024,8.240826004168145,0.05502912848644232
16.369619999999998,8.25616371414846,0.054621926014952624
16.374207999999996,8.265982632728742,0.054226191283852844
16.378804000000002,8.269627694889634,0.05382975286791503
16.383392,8.262479543678753,0.053442642347996186
16.387976000000002,8.245193244115454,0.05307254837716671
16.392556,8.214826123428502,0.052732493342628715
16.397143999999997,8.17546465826507,0.05239632885756613
16.401736,8.124821240873285,0.05208526295231086
16.406323999999998,8.067270858777231,0.05180135301767683
16.410924,8.006244923604736,0.05151067965562047
16.415512,7.935858089813324,0.05123615623661942
16.420104000000002,7.858686476031796,0.05098175609921909
16.424692,7.769455660288406,0.050744001335698175
16.42928,7.6763827373261355,0.050515186600051804
16.433872,7.580000587450193,0.05031141457964846
16.43846,7.478876895907718,0.0501137752811456
16.443064,7.376853769917595,0.04991259412845222
16.447651999999998,7.2707441672802995,0.049729846232127825
16.452247999999997,7.161447522443478,0.04956606904626688
16.456851999999998,7.0559929848255365,0.0493845316654449
16.461444,6.954136184998189,0.049198092932772906
16.466051999999998,6.849092342971315,0.049033159499213115
16.470647999999997,6.738940405135474,0.04889681978507181
16.47524,6.629076978176553,0.0487876641736739
16.479824,6.519990800951132,0.04868011887390558
16.48442,6.409883004563919,0.04857639644001714
16.489012000000002,6.30018590376777,0.04849818454708115
16.493612,6.194741605781568,0.04843192974939614
16.498199999999997,6.084067027272255,0.0484108249539033
16.5028,5.969183787401621,0.04842287272158123
16.507384000000002,5.861251653683879,0.04844561840494231
16.51198,5.753075150537846,0.04848120055874256
16.516584,5.651316873239493,0.04850498986547604
16.52118,5.555199572055318,0.0485105096805951
16.525768,5.462924378090025,0.04850036297823075
16.53036,5.368117206944565,0.04853792710831082
16.534951999999997,5.276008339142047,0.04857307334640059
16.539540000000002,5.181856233015943,0.048625877651524985
