Time,Force,Position
18.93904,0.03287396304500676,0.0
18.943628,0.03462869049167431,0.0
18.948236,0.030742441824163417,0.0
18.952824,0.02403570509956329,0.0
18.957412,0.022070510041493765,0.0
18.962004,0.016918272783897997,0.0
18.9666,0.022148553307011282,0.0
18.971196,0.027134464401833223,0.0
18.975776,0.036489263394840564,0.0
18.980376,0.047642931283143605,0.0
18.984964,0.058674414457300976,0.0
18.989564,0.06958371291731268,0.0
18.994144,0.08253624970091142,0.0
18.99874,0.0993308937033929,0.0
19.003324,0.1160033529917287,0.0
19.007916,0.12997750893712098,0.0
19.012508,0.14407384959665892,0.0
19.0171,0.15931399413213607,0.0
19.0217,0.173410334791674,0.0
19.026292,0.1877510448795033,0.0
19.03088,0.20029898569794508,0.0
19.035476,0.20732813511635406,0.0
19.040064,0.22167494483009154,0.0
19.044647999999995,0.23884224260091821,0.0
19.049236,0.2533112370288014,0.0
19.053832,0.265081928113741,0.0
19.058423999999995,0.2701900239227086,0.0
19.063008,0.2791402269505589,0.0
19.067604,0.2813056499882916,0.0
19.072184,0.27783009691184585,0.0
19.076775999999995,0.2745989132636915,0.0
19.08136,0.27418821767262636,0.0
19.085948,0.27185646847211986,0.0
19.090536,0.2618405048338478,0.0
19.095127999999995,0.2520689106238671,0.0
19.099716,0.24385181588089078,0.0
19.104312,0.23551253642376874,0.0
19.108892,0.2238640300529748,0.0
19.113488,0.21503601173927012,0.0
19.118075999999995,0.2058414392831284,0.0
19.122676,0.19370419405575182,0.0
19.127264,0.18492031719067525,0.0
19.131864,0.16984039919206378,0.0
19.136448,0.15165758188535178,0.0
19.14104,0.1360889250301576,0.0
19.145632,0.12730504816508106,0.0
19.150224,0.1204422249094459,0.0
19.154812,0.10703899109198442,0.0
19.159408,0.09657843004575783,0.0
19.163996,0.0911037800943532,0.0
19.168584,0.0856291301429486,0.0
19.173168,0.07513052727400207,0.0
19.177768,0.06450973969090985,0.0
19.182356,0.060178893615444415,0.0
19.186948,0.05752473172112901,0.0
19.191536,0.05805761202633985,0.0
19.196124,0.06051154594099206,0.0
19.200724,0.06729632593110971,0.0
19.205312,0.07456984477781003,0.0
19.209904,0.07902287556742113,0.0
19.214492,0.08539695996647362,0.0
19.21908,0.09009436018437605,0.0
19.223676,0.09659062929757421,0.0
19.228256,0.10157044076648795,0.0
19.232848,0.09997179985085544,0.0
19.23744,0.0951922163616049,0.0
19.242032,0.09179470655067667,0.0
19.246624,0.09673647619687047,0.0
19.251204,0.1037214841666513,0.0
19.2558,0.10486528804259052,0.0
19.260392,0.11260388356072293,0.0
19.264992,0.1327384733720927,0.0
19.26958,0.16024510455915789,0.0
19.27418,0.19627368062376585,0.0
19.278763999999995,0.2404074063489432,0.007965870008369114
19.283356,0.28647242531530076,0.016268677717044253
19.287948,0.3332027489327537,0.025169730798102485
19.292544,0.3875494833541933,0.03383186023347684
19.297124,0.4447710869130891,0.04279150582790066
19.301708,0.518192750161385,0.05130854212571169
19.3063,0.6021734969849026,0.059760467304832705
19.310888,0.6924605245736939,0.06829203225020865
19.315476,0.7918743209848481,0.07676287823999484
19.320068,0.9043791781513938,0.08501727231864632
19.324652,1.0327955841304202,0.09307238585638893
19.329244,1.1703326593059011,0.10111221774637072
19.333836,1.3103841491023096,0.10939619353759884
19.338415999999995,1.4527776277309632,0.11774259437424128
19.343004,1.6020102674301016,0.12605918084475376
19.3476,1.76886504193976,0.13407396537332622
19.352188,1.9316570019873949,0.14191776587942184
19.356776,2.0815139878106734,0.1497794469914524
19.361372,2.2246098558289846,0.15756022688194246
19.365956,2.3511730118323486,0.16544631825500158
19.370548,2.464234411489255,0.16548881856240255
19.375128,2.5773297129630515,0.16510908165861876
19.379728,2.6943790667381373,0.16389669571614013
19.384308,2.796372164699763,0.16307802776410035
19.388904,2.8938137093427816,0.16189586083834562
19.393492,2.9738672489718336,0.16125403416699577
19.398092,3.045771497491687,0.1605801924326575
19.402684,3.1103478460844736,0.15987313910612444
19.40728,3.170538967521428,0.159077171595196
19.411868,3.221891831012939,0.15847387341390992
19.41646,3.2611752529108524,0.1580979844177534
19.42106,3.2920650142712766,0.15767234950560063
19.425652,3.3186475917413856,0.156965491382573
19.430232,3.338879746997593,0.15611539020245824
19.434816,3.3494522531262265,0.15530623772212612
19.439404,3.348898893557538,0.15474472046185928
19.443996,3.3436481337709476,0.15444077659817537
19.44858,3.3413841882042195,0.15410272899295993
19.453171999999995,3.34055255739035,0.15375925080369293
19.457768,3.3445066096916394,0.15332124875632913
19.462356,3.3524249539259574,0.15271296612316929
19.466947999999995,3.3537587461498206,0.1522546793910514
19.471536,3.3496959316877972,0.1519713655281484
19.476124,3.3545052769881067,0.15142825044732935
19.480732,3.359236579022898,0.15098810176100852
19.485312,3.3709189872105823,0.15035854441571755
19.489916,3.3808025265029698,0.14978951201591922
19.494504,3.391952054385443,0.149143343592376
19.499092,3.395783921972587,0.14873165040644576
19.503696,3.3972840403592244,0.1483536478156458
19.508284,3.3977625395840687,0.14801553979682264
19.512876,3.396730680790536,0.14778512400261226
19.517464,3.3970089520357165,0.1475651470676407
19.522064,3.396554114996023,0.14744203563943234
19.526652,3.396998712403977,0.14729174238248094
19.531251999999995,3.3957666256307815,0.14717959163693825
19.535836,3.398376646076469,0.14692862283345912
19.540428,3.3999650473603626,0.14671985278383687
19.545012,3.3978335261395194,0.14663409642069644
19.549608,3.3973786890998263,0.14651112264128088
19.554196,3.4012988395842267,0.14627719982486598
19.558792,3.412536650363955,0.14582809711466813
19.563392,3.4217312228200965,0.14546186863144656
19.56798,3.4275724269139385,0.14517065396395978
19.572556,3.435412727882739,0.14472245099064066
19.577148,3.439655291060948,0.14437373005477297
19.581736,3.4443085498302226,0.144061610355091
19.586336,3.4497390583329994,0.14374304693231144
19.590924,3.461221238541019,0.14328817055078297
19.595512,3.4756460915202743,0.14273772629057743
19.600104,3.496078474756145,0.14198137060901372
19.604684,3.518676281029748,0.1411351194597939
19.609276,3.5426622606075817,0.14022273289740897
19.613864,3.565993175166059,0.13929979004170528
19.618452,3.5883024705627427,0.13841201175241458
19.623044,3.61163338512122,0.13749414745670183
19.627635999999995,3.6335319849268384,0.13658815088395307
19.632224,3.6574738230560437,0.13561094062167442
19.636807999999995,3.6823150956328967,0.1346020793132419
19.641408,3.7083001720856896,0.1335567060860344
19.646004,3.7286442724243036,0.1326883103368078
19.650592,3.744613385238824,0.1319306647385538
19.655187999999995,3.7596830636056966,0.13118569482841966
19.659772,3.7738533075249214,0.1304621852490725
19.664372,3.7867575628540613,0.12981388426476942
19.668952,3.8008056220591415,0.12911795950539634
19.673552,3.815630930997722,0.12841758675842074
19.678135999999995,3.832377293545744,0.1276763002581309
19.682732,3.847813526055054,0.12693100105982216
19.687324,3.8582638474695425,0.12633502093907686
19.69192,3.8627066386274147,0.12592480429425693
19.696508,3.8676823100904976,0.12554008483123194
19.7011,3.8683271354781157,0.12530959358010388
19.70568,3.869749210599235,0.1250736111272042
19.710263999999995,3.8752577623675295,0.12471382153910696
19.714852,3.8798668796881755,0.12437420661088537
19.719452,3.886152681189972,0.1240159083995091
19.724048,3.894237351587064,0.123629070174409
19.72864,3.9050203253270994,0.12319333654021428
19.733232,3.9151482340477783,0.1227558428342787
19.737812,3.9225778394255135,0.12236193624503726
19.742404,3.925021533708427,0.12210083680250329
19.746996,3.927587412705486,0.12182384631594353
19.751584,3.931585606455404,0.12155171025045063
19.75618,3.931741692986439,0.12137494592282447
19.760764,3.9306317909273893,0.12125517557140769
19.765376,3.930010627724922,0.12108322676602427
19.769968,3.9266911611795114,0.12096312507878014
19.774548,3.9204290218628657,0.12091906279818579
19.779148,3.9181311744792486,0.1207681806701995
19.783748,3.920697053476308,0.12049431236230754
19.78834,3.9209311832728604,0.12023248473627421
19.792919999999995,3.925496159144878,0.11982636554336726
19.79752,3.9323487427687747,0.11933930427603322
19.8021,3.934215415297849,0.11898717320181076
19.8067,3.9339166647891903,0.11870455966572276
19.811288,3.931452491242799,0.11849379360129614
19.815888,3.9250240257633795,0.1183854415308894
19.820471999999995,3.9178183105504587,0.1182795148981746
19.825068,3.906281749262072,0.118311804589084
19.82966,3.9014077832496565,0.11819617854464937
19.834256,3.904995281408509,0.11790145075221638
19.838852,3.9142237556815407,0.11749152042135015
19.843452,3.9231637190776523,0.11703665749093761
19.84804,3.9367230394261483,0.11649167051542032
19.852636,3.9502823597746453,0.11594316496908835
19.857216,3.9626978762472023,0.11543924501247708
19.861799999999995,3.9748690232914687,0.11496154326382312
19.866388,3.988716854516884,0.11446328566765926
19.870984,4.0053851737993895,0.11391918394218256
19.87558,4.018577940005449,0.11342788851214347
19.880164,4.032670140659157,0.11292277128310005
19.884756,4.045496352722779,0.11247603332491028
19.889336,4.057956010643965,0.11207356255639717
19.893927999999995,4.072214537460446,0.11164085165864747
19.898524,4.087616868152866,0.11116541494364865
19.903112,4.104529556863663,0.11061875641753666
19.907703999999995,4.125528722221634,0.10997366915890784
19.912292,4.144729018684308,0.10935909092962492
19.916868,4.170059030117744,0.10859200669464518
19.921464,4.188482076846917,0.10797921891030181
19.92604,4.202407951337851,0.1074413949052859
19.930644,4.209426861124521,0.10705694840294239
19.935224,4.216856466502256,0.10670912739170876
19.939824,4.221709953251194,0.1063897589484396
19.944408,4.227585059161925,0.10604521390984994
19.949008,4.235625588110389,0.10564366431964652
19.953592,4.2430110520394955,0.10523082837364313
19.958188,4.24769821262566,0.10485274735066678
19.962779999999995,4.246500027669353,0.10459900693516397
19.967372,4.2457125383041125,0.10437925097758126
19.971972,4.245824483386519,0.1041477780860419
19.976572,4.244259744287776,0.10392935947756232
19.981164,4.238320017664939,0.10375996470328432
19.985764,4.233646279632186,0.10354350849157523
19.990352,4.230893595208876,0.10329129223848155
19.994944,4.224054434138392,0.10313252275205666
19.999531999999995,4.2134953505631705,0.1030318050048616
20.004124,4.2047351358832445,0.10290680435584178
20.008716,4.190089575660848,0.10289604522576558
20.0133,4.180674295961566,0.10275824040478224
20.017892,4.171136831548138,0.10263129383116604
20.02248,4.16580802849603,0.10239917666879968
20.027072,4.159824160424565,0.10215564179773472
20.031659999999995,4.156538595696043,0.10187784229150192
20.036252,4.155418454005255,0.101544296127135
20.040859999999995,4.151233454829086,0.1012789153842166
20.04544,4.148969509262358,0.10098028065731753
20.050044,4.1524687245239535,0.10058297472407376
20.054632,4.15735611308978,0.10012675490382879
20.05922,4.164653294121631,0.09959536886677049
20.063824,4.169129987096393,0.09910713940917207
20.068416,4.174383929804658,0.09861924138917079
20.073008,4.1841350447511605,0.09807828369182782
20.077596,4.190943486926429,0.0975919512218575
20.082192,4.197751929101697,0.0971093025160554
20.08678,4.210323532105289,0.09653216943760543
20.09138,4.224816188718323,0.09592593909250473
20.09596,4.23726560700777,0.09536351312231225
20.100548,4.255478186125541,0.09470856581391217
20.10514,4.275367449424461,0.09405695800021868
20.109732,4.2989766352281205,0.0933615558494413
20.11434,4.321808571298276,0.09267212901241496
20.118936,4.342719453758989,0.09201093900157445
20.12354,4.356312675924375,0.09143106192409518
20.128132,4.368762094213822,0.09088967695031049
20.132732,4.377491589998531,0.09038862360097799
20.137324,4.3843000321738,0.08991875218091899
20.141912,4.388410171006124,0.08948072018945362
20.1465,4.39305319014366,0.08906626624169647
20.151088,4.3956529709576095,0.08869397398095345
20.155676,4.4020948589904405,0.08826671388429495
20.160267999999995,4.4096805508992105,0.08781168148272389
20.164856,4.413546320303244,0.08740157407832633
20.169448,4.420354762478511,0.08694518244787469
20.174036,4.427407574082071,0.0864713789105864
20.178632,4.429963213447391,0.0860397648860747
20.18322,4.42867674559383,0.08565945777242687
20.187808,4.430577319939793,0.08521492817566091
20.192404,4.430801210104606,0.08477965877973177
20.196992,4.426283558602889,0.08440283132245248
20.2016,4.418412538738872,0.08403498019466266
20.206192,4.411196583894212,0.0836808642457871
20.21078,4.405901682658993,0.0833013122349511
20.215376,4.408946060880895,0.08283700892018195
20.219964,4.411213189369297,0.0823711616978623
20.224568,4.424884454800201,0.08177758929332009
20.229164,4.438433535516959,0.08119289315250162
20.233756,4.448917758748336,0.08065628887715662
20.238344,4.456170798331558,0.08011148241265133
20.242944,4.462524403467134,0.07957333445471582
20.247536,4.46797857415506,0.07904685721535473
20.25214,4.4726554951094855,0.07851939034259797
20.256727999999995,4.48129670799694,0.07793833343059266
20.261328,4.489038486436744,0.0773666090783107
20.265912,4.497557514610052,0.07680515030718106
20.270508,4.5066094230885705,0.07626547675023077
20.2751,4.518481819624178,0.07569593819013024
20.279692,4.528433162550344,0.07515301309589335
20.284284,4.5353196479911295,0.07465710570763218
20.28888,4.545148806203151,0.07412510695176505
20.293468,4.556288094453884,0.07362393937553181
20.298052,4.568571186580557,0.07310346881836763
20.30264,4.581875897869024,0.07257132457446124
20.307227999999995,4.596324413033429,0.07202667950462008
20.31182,4.610772928197835,0.07148469802240123
20.316412,4.614838925581531,0.07103547092820528
20.321008,4.621070346002959,0.0705501234065907
20.325588,4.638050838347535,0.06996050276790097
20.330184,4.6612051871115,0.0693529609191726
20.334772,4.682560666980169,0.06875060451341333
20.339352,4.700318409058246,0.06816498488832604
20.343956,4.717709596993887,0.06761024687676657
20.348544,4.733956981053589,0.06708442718908984
20.353156,4.751103799560938,0.06655888602042269
20.357744,4.765430130011198,0.06605644123435231
20.362348,4.783965121822777,0.06549870335207536
20.366944,4.806464405567384,0.06490895155976895
20.371531999999995,4.828963689311991,0.06432263070789329
20.376135999999995,4.851462973056601,0.06373249172791211
20.380728,4.873062822353561,0.06315003822122048
20.385332,4.892330922450015,0.06254955166078702
20.389908,4.905713677003999,0.062002322895369215
20.394508,4.921261854595714,0.061430634574310077
20.399096,4.930025252197315,0.06091620426452443
20.403692,4.9377670306371195,0.060413605554220144
20.40828,4.94845148184816,0.05988193952990351
20.41288,4.957992129183261,0.05937354493053811
20.417463999999995,4.957927508471156,0.0589386382002716
20.42206,4.959251061063281,0.05847353189695431
20.426652,4.966215589769585,0.05798112938096296
20.431239999999995,4.979598344323569,0.057470737346636235
20.435828,4.993103283591698,0.05695281625190263
20.44042,5.004032104231029,0.056431925362956846
20.445008,5.014838740156216,0.055923058331054196
20.449596,5.023724322471958,0.055422855712997564
20.45418,5.027623993692882,0.05496616335507605
20.45878,5.023839450476039,0.054554524560265716
20.463364,5.01801166893561,0.05416096465162528
20.467956,5.012306072109326,0.053756033093050506
20.472548,5.007255540302398,0.05336781971210397
20.477136,5.00502549655256,0.05296751847126033
20.481728,5.010235297812195,0.0525426049371509
20.48632,5.011114252996366,0.052174625543960046
20.490904,5.015590945971128,0.05180216668112431
20.4955,5.023010311717123,0.051412223252908215
20.500088,5.030962557768331,0.05104686629046572
20.50468,5.039814238267185,0.05068240971819355
20.509272,5.047522114890103,0.05033269568714856
20.513864,5.049100276542258,0.05003928583382942
20.518468,5.0468363309755295,0.04976594055619565
20.523064,5.03958647431398,0.049529150500557284
20.527656,5.029516129595342,0.04930017131344703
20.532244,5.01613655796303,0.049111341500529614
20.536843999999995,4.998914879111836,0.04893946910049364
20.541432,4.982470449994146,0.0487741153368911
