Time,Force,Position
19.497844,0.08368766609699481,0.0
19.502424,0.09530075812770736,0.0
19.507024,0.10703603487256558,0.0
19.511604,0.11889349633156945,0.0
19.516196,0.12703103528583626,0.0
19.520792,0.13144865173536602,0.0
19.52538,0.1379095065084828,0.0
19.529976,0.14211816786980255,0.0
19.534556,0.1407654089056534,0.0
19.539148,0.14031208438915208,0.0
19.54374,0.13601665265376803,0.0
19.548332,0.13057741704244477,0.0
19.552932,0.12583587537591417,0.0
19.557512,0.11871995558344088,0.0
19.562112,0.11332334889755379,0.0
19.5667,0.10440856020978477,0.0
19.571304,0.09651539068380931,0.0
19.575892,0.087722786710186,0.0
19.580492,0.0799518018983562,0.0
19.58508,0.07128138263887854,0.0
19.589672,0.0608120944841052,0.0
19.594252,0.04919900245339265,0.0
19.598848,0.037463725708534436,0.0
19.603436,0.02560626424953055,0.0
19.608024,0.017468725295263738,0.0
19.612612,0.013051108845734006,0.0
19.617208,0.006590254072617227,0.0
19.621796,0.0021726376230874925,0.0
19.626396,0.0021726376230874925,0.0
19.630984,0.0021726376230874925,0.0
19.635576,0.0021726376230874925,0.0
19.640172,0.0021726376230874925,0.0
19.644752,0.0006976939447926563,0.0
19.649336,0.0006976939447926563,0.0
19.653924,0.0,0.0
19.658512,0.0,0.0
19.663108,0.0,0.0
19.667696,0.0,0.0
19.672288,0.0,0.0
19.67688,0.0,0.0
19.681472,0.0,0.0
19.686068,0.0,0.0
19.69066,0.0,0.0
19.695256,0.0015632265755511406,0.0
19.699836,0.015117851479182627,0.0
19.70444,0.0391093752438901,0.0
19.70902,0.06945132122249945,0.0
19.71362,0.11268409997683702,0.008374729014163996
19.718216,0.16643182085776806,0.016242386529749117
19.722816,0.2233768235699642,0.02446456579985381
19.727408,0.286994661189871,0.03270103479731646
19.732,0.35397610680381675,0.04139428362111073
19.736588,0.4316388207071298,0.049841694987772814
19.741184,0.5185946295955796,0.058292572320721145
19.745776,0.6152100876116032,0.06665828764661075
19.750368,0.7210744991641356,0.07489811922879985
19.754956,0.8345111800720262,0.08309861512582889
19.759544,0.9538434461541259,0.0913281895229064
19.764132,1.0815252313250863,0.09950432424708017
19.768728,1.2219315231090007,0.10746993556529529
19.77332,1.371220214286987,0.11542679338271894
19.777912,1.5275924359637492,0.12343972715102763
19.782504,1.6919476225869352,0.13147287436642094
19.787096,1.8577263968544329,0.1394679958550515
19.791696,2.009915131878218,0.14740344465442276
19.796276,2.1476585346592705,0.15542434515970258
19.80086,2.2808062426730884,0.16329529491608377
19.805456,2.3971768692436677,0.16285918628623
19.810036,2.5045870531546575,0.16290268926073556
19.814624,2.612808388616039,0.16250858353055742
19.819212,2.715500693045649,0.16203768065025662
19.8238,2.8153181283378026,0.16104408272120516
19.828392,2.9013452964065807,0.16034585372948768
19.832984,2.9761141744321518,0.1596315225629335
19.83758,3.0406905230249386,0.15898104603196886
19.842164,3.0970395372430097,0.1584100695350908
19.84676,3.1477373357151643,0.1578039987911481
19.851348,3.1958929173754096,0.15708982216304856
19.855952,3.23696496853688,0.15635349547038022
19.860544,3.2619591447230953,0.15590458216148803
19.86514,3.2766386067623805,0.15547083373532727
19.86972,3.282680038835885,0.15500427998432634
19.874308,3.2829039290006987,0.15441163682904263
19.878908,3.2820620585550904,0.15378628165643285
19.8835,3.2810199601298193,0.15327488938851047
19.888088,3.281287991743261,0.15276174136737194
19.892676,3.2772251772812373,0.15246796580339125
19.897264,3.278192415362664,0.15204356514795983
19.90186,3.2750290353482887,0.15171678089342325
19.906448,3.267324341647045,0.15145075648791972
19.91104,3.2574542249080696,0.15129433460714883
19.915636,3.250570922388957,0.15110368123940443
19.920228,3.2457749996420593,0.1509095230651016
19.924828,3.2437215216867337,0.15071601058778433
19.929416,3.240524239855468,0.15058514802841352
19.934008,3.23348485080532,0.15060840685931912
19.938592,3.2226033545362895,0.1507861018930496
19.94318,3.2064474362955173,0.15112486182942714
19.947776,3.190047148626455,0.15148889444322508
19.952364,3.179942902090927,0.1516466687644314
19.956964,3.176012511974788,0.15161557779772855
19.961552,3.1736366213256533,0.1515612162049809
19.96614,3.164231581258109,0.1518128260610879
19.970732,3.151883868419331,0.15218382963266586
19.975324,3.143011708656999,0.15245649834591374
19.979928,3.1404355900282006,0.152525920054173
19.984516,3.1404355900282006,0.152525920054173
19.989116,3.1401912205999096,0.15255982511015043
19.993696,3.139580297029181,0.15264644492564403
19.9983,3.141178937944813,0.15271297743042858
20.002892,3.144576447755741,0.15272007910762483
20.007488,3.143598970042575,0.15285685172852187
20.012076,3.147485218710086,0.1527980442266035
20.016668,3.1518602062341796,0.15267361632272228
20.02126,3.1561130090441276,0.15256349870131608
20.025856,3.1633084846253112,0.15232893427096897
20.030452,3.1733244482635827,0.15198649673568737
20.035048,3.1873047038348834,0.1514745226169268
20.03964,3.198220101920803,0.15110036462315865
20.044228,3.2070922616831363,0.15082801345962496
20.048808,3.2093018261694968,0.15081025364921277
20.053404,3.214331878712947,0.15069309526546168
20.057992,3.2263910806748055,0.1502738667221259
20.062584,3.239594086512604,0.1497899179041242
20.067176,3.252264212045192,0.1492921961489254
20.07176,3.2653008917202166,0.1487672857917392
20.076352,3.2784597561093864,0.1482269541589915
20.080932,3.2908413707650546,0.14770027247823905
20.085524,3.3109071998584882,0.14690361762372828
20.09012,3.3294185294849172,0.14613451133512184
20.094708,3.348296413253783,0.14532577137826017
20.099308,3.370116969793884,0.14441451811672648
20.103896,3.3871959846674544,0.1436744989733028
20.108484,3.403375565093377,0.14296839027553743
20.113092,3.4250739369193326,0.1421080201428716
20.117684,3.4476717431929353,0.14122976437924972
20.122292,3.4715355380566235,0.14029745062903143
20.126892,3.49462208318681,0.13939176905127149
20.131496,3.522816724125963,0.13830116500016348
20.13608,3.5494568655981125,0.13722971135605114
20.14068,3.578262430107994,0.13605918192712801
20.145268,3.6026930070937824,0.13499799279977956
20.149868,3.625080345755984,0.13402521838305334
20.154456,3.649388738027626,0.1330050811829827
20.159056,3.6747187494610625,0.13196749468802216
20.163648,3.699027141732705,0.13099910987463717
20.16824,3.7252565876137886,0.129987222939494
20.172836,3.754550890980253,0.12889208467585272
20.177428,3.7784485876608307,0.12793473455921264
20.182016,3.802468469055554,0.12696722166611135
20.186616,3.8227684279455403,0.12608637506735512
20.191204,3.8384490298831415,0.12531412447474824
20.1958,3.854251816534888,0.12452365105778417
20.200388,3.864702137949375,0.12391404727027383
20.204976,3.8696336679638303,0.12343832753470095
20.209564,3.8745651979782854,0.12296606547933986
20.214148,3.8774534896691533,0.122562329734589
20.21874,3.8790757927699366,0.12221946088232015
20.223328,3.874934935042395,0.12202723431950038
20.22792,3.8727151309242953,0.1217849662661726
20.2325,3.872172010987346,0.12152144806071255
20.237092,3.875104444126842,0.12120076177696508
20.241676,3.8799579308757797,0.12083435173465497
20.246264,3.879825506529895,0.12060752966879333
20.25086,3.877649843860424,0.1204427520473442
20.255452,3.8681565208956235,0.12042837961015511
20.260052,3.8530222218166457,0.12054482342308667
20.264644,3.835722499699934,0.1207278870678265
20.269236,3.821121080926167,0.12085725394814444
20.27384,3.806275292724108,0.12101164945085936
20.278428,3.7929840039890528,0.12116268001347065
20.283032,3.785455876082323,0.1211717269492323
20.287612,3.7809926056609733,0.12109078985553542
20.292208,3.787522776591061,0.12071343221661292
20.296788,3.7999382930636183,0.12019167763178924
20.301388,3.814274863145617,0.1196342082048455
20.30598,3.8287336179417615,0.11906590130327448
20.310576,3.8425373077185494,0.11848710516397108
20.315164,3.8619819736095153,0.11779050248582237
20.319756,3.8801606509103967,0.11715235237572566
20.32436,3.898461512925424,0.11651248808788112
20.328956,3.9170067443687424,0.11585928452261395
20.333536,3.9346525413644127,0.11522977394756392
20.33812,3.956629184435549,0.11446600350444286
20.3427,3.97566315473545,0.11376350287973534
20.3473,3.999971547007093,0.11297582831959509
20.351888,4.031841969002355,0.11203411335266991
20.35648,4.060891902940528,0.11114799854303588
20.361076,4.088020783269259,0.11031349498636137
20.365656,4.115516217740428,0.1094448716275703
20.370256,4.1479975633064186,0.1084656591750241
20.374844,4.179090735568179,0.10757075149935683
20.379436,4.206996865630413,0.1067733606626047
20.384032,4.227096596540735,0.10615747546096188
20.38862,4.239512113013293,0.1056963442003895
20.393212,4.245387218924025,0.10534926003733451
20.397792,4.253061193730051,0.10497968182842356
20.402384,4.2624118527172286,0.10459756376450753
20.406988,4.267143154752019,0.10429180912543164
20.411576,4.27109720705331,0.10398624884759332
20.416168,4.270309717688068,0.10376620538551351
20.420748,4.264658501942152,0.10364327775513088
20.425348,4.260028905358028,0.10349627271710723
20.42994,4.255154939345613,0.10337218234589395
20.43454,4.256288503589812,0.10311955251479869
20.439128,4.256889187528802,0.10284507367775317
20.443728,4.252626145087116,0.10266384570003735
20.44832,4.24860747207372,0.10245850490325797
20.452916,4.244833168488616,0.10223010947319268
20.457496,4.24081449547522,0.1020243759103652
20.462092,4.232054280795294,0.10189745490364448
20.46668,4.220840132200717,0.10178062861229029
20.471276,4.211669221929727,0.10161892184970292
20.475864,4.203642115534674,0.10142286803914567
20.480452,4.2013781699679456,0.1011257351445158
20.48504,4.202179081886598,0.10075785019860596
20.489628,4.19938225601466,0.10043478548438693
20.494216,4.196951984285159,0.10007899499776057
20.498804,4.197586570041038,0.0996564035844861
20.503396,4.199487144387001,0.09918890452514668
20.50798,4.200854838427754,0.09869095997017366
20.512576,4.205287389953888,0.09812254136953834
20.517156,4.203179530918195,0.09765151609325841
20.521744,4.198495553253705,0.09720095113958727
20.526352,4.187804045332599,0.0968731503932313
20.53094,4.17801197185914,0.09653400462708579
20.535532,4.166543214204532,0.09620253590047126
20.540128,4.157894944607014,0.0958259818133066
20.544716,4.146304002238259,0.09550243750044371
20.549316,4.136878482907237,0.09512290123398129
20.553908,4.129496201899803,0.09469899351663477
20.558504,4.122113920892369,0.09427326806417527
20.563092,4.113832205437287,0.09385808748168767
20.567692,4.106572109143999,0.09342008817079273
20.57228,4.094570471184179,0.0930538634633256
20.576876,4.085267136567303,0.0926575728816149
20.581464,4.078784290007516,0.09221951727229886
20.586064,4.0709132701435005,0.0918372165281275
20.59066,4.062553511422901,0.09150113267788539
20.595252,4.055748252169306,0.0911697006346978
20.599832,4.0552390340492455,0.0907744772474389
20.604428,4.055507065662687,0.09038296479061798
20.609016,4.059006280924284,0.08998394005373543
20.613612,4.064715060672241,0.08960262237197604
20.6182,4.074510317067372,0.08913791416195363
20.622788,4.081118531262978,0.0887457243586394
20.627376,4.093489906286907,0.08826710880750924
20.631972,4.107537965491986,0.08778991655164942
20.636564,4.125961012221158,0.08727953154734429
20.641156,4.140297582303156,0.08685123331097493
20.64574,4.155533586832803,0.08642126654956776
20.65032,4.169625787486511,0.08601944085919781
20.654916,4.183717988140218,0.08561959517622394
20.659504,4.199609057689221,0.08520883846301251
20.664092,4.219220049742962,0.08475394682335251
20.668696,4.235888369025466,0.08434892206342966
20.673284,4.251290699717887,0.08398757213022515
20.67788,4.26718176926689,0.08358430294898578
20.682468,4.281518339348889,0.08317543272987937
20.68706,4.295977094145033,0.08276260802283927
20.691656,4.3047948728269985,0.08241694312397234
20.696244,4.3125910323471714,0.08209101742525197
20.70084,4.324840222656954,0.08166462962871306
20.70542,4.336023652356316,0.08118978294514248
20.710016,4.348228701217471,0.08070401537321895
20.714604,4.362721357830504,0.08016089916298917
20.719208,4.374271341672303,0.0796652629139793
20.723792,4.378381480504629,0.07924077894821939
20.728384,4.379382620402946,0.07880057693027148
20.732976,4.380505945015407,0.07834621885784689
20.737572,4.379830400732573,0.07790714241106789
20.742168,4.38221971393512,0.07741746875925709
20.746764,4.386530080747107,0.07690839247490212
20.751352,4.388797209235508,0.07643496569506512
20.755948,4.392208141599848,0.07593945290495517
20.760536,4.396518508411837,0.07543766604226175
20.765124,4.3983749413091715,0.0749294878346628
20.769708,4.398965385616422,0.07445767753136981
20.774296,4.399555829923672,0.07398449293547035
20.778888,4.395404732564393,0.07355880811275367
20.78348,4.396117361585789,0.07307464897975768
20.788076,4.396052740873683,0.07258492434487748
20.792664,4.393045447390343,0.0721349118361195
20.797248,4.393391522269303,0.07168797015924779
20.801828,4.3897733052152335,0.07129093683546986
20.806416,4.387176707322958,0.07088025831875845
20.811012,4.38662334775427,0.07044277299324056
20.8156,4.3956752562327885,0.06991289775512873
20.820188,4.407958348359461,0.06939752086813639
20.824784,4.424982982152664,0.06884430452036672
20.829376,4.43996437762228,0.06831873857778549
20.833972,4.453924153930103,0.06781057467162752
20.838568,4.464164007733189,0.06732996437743326
20.843172,4.474526046250421,0.06684060497172369
20.847748,4.483744280891713,0.06637960056625879
20.852348,4.496271742446677,0.06586526953231267
20.856936,4.513296376239881,0.0653343542836058
20.861544,4.529421575585436,0.06480433994531494
20.866128,4.548611632416372,0.06424013814789403
20.870728,4.568701123694956,0.06366742883059147
20.87532,4.5884240608311035,0.06313154799175187
20.879916,4.609290801843189,0.06257555292477003
20.884504,4.629913173426985,0.062041079686398326
20.8891,4.645916188058394,0.06153449128589725
20.893688,4.66486187546104,0.061001246352279444
20.898276,4.6826637589877445,0.06049399735958278
20.90286,4.694702481686127,0.06003096848127176
20.907448,4.697258121051447,0.05963214696921363
20.912036,4.696460392054466,0.0592243854811405
20.916624,4.693985978876337,0.05881538252470892
20.921216,4.693432619307648,0.05839144680184041
20.925808,4.6940230636149,0.05794837203943695
20.9304,4.696412376817446,0.05750021495342521
20.934992,4.6961033866770485,0.0570557167397022
20.939576,4.692196658746061,0.056617164335589706
20.944164,4.681260781396665,0.056245866920349885
20.948752,4.666727166256676,0.055880465987494424
20.953352,4.654114604726127,0.05550068173073972
20.95794,4.639214435443701,0.05516136729461613
20.962528,4.628156373380158,0.054797255005262294
20.96712,4.6155438118496095,0.054418131656391505
20.971712,4.601543077014832,0.05407573537781359
20.976312,4.5876645268942,0.05372358313922418
20.980908,4.576362095402366,0.05337612010060257
20.985504,4.56313861030109,0.05303919505858774
20.990084,4.549792940485669,0.05271091041092339
20.99468,4.539922823746692,0.052385377899399156
20.999268,4.531729391188866,0.05206214339639691
21.003868,4.526112077259838,0.05174454858280326
21.008464,4.518207155578932,0.05146583449279968
21.013064,4.506582311393289,0.05119717344392339
21.017648,4.491648240293974,0.050976665168210394
21.02224,4.475692550032866,0.05076505282525954
