Time,Force,Position
20.72676,4.301588748235181,0.04982481832721295
20.73134,4.257726927911839,0.049989702871369175
20.73594,4.212931771323958,0.05031831644174937
20.740528,4.17673050325323,0.050828244358464406
20.745124,4.148756569557217,0.05153834315360777
20.749716,4.127211101340624,0.052439149015142246
20.754316,4.111072479441656,0.053536465672389205
20.7589,4.108147103012226,0.054754946546772446
20.763492,4.112793995938154,0.05612332077069886
20.768084,4.125790407952944,0.057632433478099
20.77268,4.148935207951889,0.05925473166895962
20.777276,4.177609038982607,0.06103102316772049
20.781876,4.216675627425771,0.06289183125976992
20.786464,4.259105823862975,0.06493272844401939
20.79106,4.307309420760242,0.06707306463232854
20.795648,4.3690928172694825,0.0692358841848427
20.800232,4.441024601762879,0.07148750824413529
20.804824,4.521183720630993,0.07384713093151095
20.809416,4.611080531892196,0.07626391211788514
20.814012,4.706750743613463,0.0787783831774236
20.818604,4.814856951070764,0.08133702164693787
20.8232,4.928648276090873,0.08386390783180744
20.827788,5.044849393577005,0.08628444978725844
20.83238,5.1531116875653415,0.08855576872894055
20.836968,5.252491582159607,0.09063574465164276
20.84156,5.3464646304362455,0.09251767799338162
20.846164,5.434497952090048,0.09419656655381396
20.850752,5.513160135493196,0.09575240803529389
20.855348,5.587437091740511,0.09712331357278557
20.859936,5.651032779698459,0.0983697058195558
20.864524,5.698306223252861,0.09956550952158681
20.869128,5.738862690450926,0.10059907451018932
20.873716,5.765795216588386,0.10157620971773831
20.87832,5.790507938607748,0.10235748837643563
20.8829,5.802251784585863,0.1031079714490123
20.887496,5.79694027787556,0.10390439923158713
20.892076,5.778904264552302,0.10466482786377418
20.896676,5.75402909015856,0.10529928649230001
20.90126,5.724524319180694,0.10581427295993283
20.905864,5.688713267437553,0.10623263438124719
20.910456,5.645574315767347,0.10657136520558608
20.915052,5.594907236190409,0.10690647095398009
20.919648,5.540842646802542,0.10721478500925914
20.92424,5.486245177109464,0.10751427584328825
20.928828,5.432424957149889,0.10781735837833459
20.933428,5.374762629971432,0.1081837328182455
20.93802,5.315467760060452,0.10862264014205023
20.942612,5.256827955168829,0.1090754108614996
20.9472,5.197577226706477,0.10957376090188177
20.951792,5.14155768189228,0.11006865459337635
20.956372,5.09518754657392,0.11047346014012382
20.960964,5.052703659923068,0.11087394666449284
20.965556,5.011285533882639,0.11132819622277494
20.970144,4.964925638196016,0.11194618697015175
20.97474,4.926949163415143,0.11250828573805444
20.979332,4.899399347863608,0.11296943728209621
20.983924,4.881743311236198,0.11330058385767888
20.988508,4.861965993019684,0.11375061694353376
20.993096,4.834670786528178,0.11439858717624
20.9977,4.811139643990036,0.11504872653080007
21.002288,4.788796446776463,0.11572936187022227
21.006876,4.770706052372839,0.1163734987410742
21.011472,4.753148538274425,0.11704160589547859
21.01606,4.73395848144349,0.11780140252047665
21.020656,4.714279685755971,0.11861342300980081
21.025236,4.6988536928784,0.11938540513399741
21.029832,4.688047056953214,0.1200803271047731
21.034412,4.675319367418586,0.12082271857399082
21.039012,4.658993940093366,0.12163293015981896
21.043604,4.645489000825237,0.12238685368501115
21.0482,4.630429562090104,0.12313998294284244
21.052784,4.613571254459674,0.12392303214010109
21.05738,4.605540965142948,0.12451017971157653
21.061972,4.6013086415964795,0.1249619344845876
21.066568,4.590491766039553,0.125479847281338
21.071152,4.574356327062259,0.1260113413606858
21.075748,4.546283870837251,0.12676722618122505
21.080324,4.522253749810789,0.12736006521512178
21.084912,4.507007505649404,0.12768805681313586
21.089496,4.483500025296414,0.12811457039429128
21.094084,4.458271719313647,0.12849958663140257
21.098664,4.431078218272809,0.1288629228350722
21.103252,4.403718391069197,0.12917529948078127
21.107836,4.3844873757113065,0.1291947955171405
21.112416,4.367255457228374,0.12909212005784737
21.117004,4.345237855630284,0.12902996165260291
21.121596,4.321377243688269,0.1289297114637423
21.126184,4.296450871135831,0.12879466302607823
21.130768,4.272501976296559,0.1285638227237511
21.135364,4.245033386932215,0.1283149342981765
21.139952,4.208937007233828,0.12820457749059416
21.144548,4.1718970516391645,0.1280406050348101
21.149132,4.123408817653371,0.12807981196311904
21.153732,4.074509888076513,0.12807968389337204
21.15832,4.02994180457512,0.1279299345975314
21.162916,3.983574852178431,0.12781913048488405
21.1675,3.9442370492001517,0.12750634478942602
21.1721,3.903222562040722,0.1272058018300097
21.176692,3.8564449140529677,0.12704748308958141
21.181288,3.818250914950627,0.12666561723149364
21.185868,3.7805897961534973,0.12630224828533795
21.19046,3.741907058194573,0.12596819200609777
21.195056,3.7011810819120625,0.12570040776364097
21.199652,3.652937217354561,0.12569560422886425
21.204236,3.6043267986546215,0.1257216587794819
21.208824,3.5611129866405697,0.12563082859071711
21.213412,3.5135683285510524,0.12570782300074862
21.218004,3.4729747766144263,0.12565074881080746
21.2226,3.4363896580594573,0.12554745920757018
21.227196,3.3996043115248242,0.1255542341682239
21.23178,3.3733678089336747,0.12535480701627663
21.236368,3.3502403052765337,0.1251291780942545
21.24096,3.3347189727916406,0.12478339757503235
21.245548,3.32026340091717,0.12448386722777943
21.250128,3.306629220224828,0.12426068974027304
21.25474,3.3008455801330268,0.12388757335802664
21.259328,3.2970271350992943,0.12354514780966158
21.26392,3.29492951569534,0.12326215649338228
21.268508,3.2977397641206907,0.12292079150894113
21.273104,3.2995725348328753,0.12270016347216395
21.277696,3.306679727516802,0.12238358099309937
21.282296,3.3215152760871223,0.12194983075240298
21.286888,3.341380877200893,0.12144511398347285
21.291468,3.3701186380769963,0.12077274735680683
21.296068,3.4018432131729623,0.12010669881182419
21.300656,3.4357773527552897,0.11946326434181256
21.305252,3.478583652099949,0.11865087957559602
21.30984,3.5174256595115807,0.11796368560865786
21.31444,3.5576999816760715,0.11729976310108056
21.319032,3.601572041631153,0.11656151334179934
21.323624,3.6414798096532057,0.11594493140691285
21.328212,3.6829420771422634,0.11533893188801343
21.332808,3.724404344631321,0.11473966454110644
21.337396,3.765866612120378,0.11414039719419945
21.341988,3.8057743801424313,0.1135472533199426
21.346568,3.8399189873361603,0.11310197883061868
21.351152,3.8745523333864718,0.1126159583780498
21.35574,3.908774983845718,0.1120950411309648
21.36034,3.9427091234280445,0.11153565737131219
21.364932,3.976354752133452,0.11092992914186922
21.369524,4.003704339705324,0.11043712548211432
21.374116,4.022426136943156,0.11006285622771216
21.378704,4.042780476913508,0.10960844047302579
21.3833,4.056672449587553,0.1092011895810146
21.387888,4.06487930469879,0.10882831143856814
21.392464,4.065602173351925,0.10851801494665013
21.397076,4.0597404899946055,0.10825663719160009
21.401664,4.056410783817456,0.10789302218228107
21.40626,4.048295394525148,0.1075479680466488
21.410848,4.035516506831827,0.1072070581959879
21.41544,4.025924661338032,0.10677633098290486
21.420032,4.011302763300787,0.1063870649406827
21.424632,3.997169604120124,0.1059480365644378
21.429236,3.984546802957838,0.10543415822325078
21.433812,3.973067805671491,0.1048814931130421
21.438416,3.9647758505846706,0.10424067025297934
21.443004,3.952108907973756,0.10364838288351572
21.447604,3.939564150076987,0.10304287313741584
21.452196,3.923177284961336,0.1025075205595594
21.456792,3.905890985398037,0.10198151177361979
21.461384,3.891302989177681,0.10141617963535227
21.46598,3.8771256885483907,0.10088178301990383
21.470564,3.858984095986072,0.1004328533111226
21.475156,3.839454330119522,0.10004120904916522
21.479764,3.8253211709388584,0.09957268576434827
21.484352,3.8189163676445905,0.09903045666823024
21.488952,3.8158649327126217,0.09846270359140144
21.493548,3.810525890028774,0.09796899093170446
21.498136,3.8103390846025227,0.09743000138961384
21.502728,3.8158373967390777,0.09687148503085388
21.50732,3.818393036104398,0.09637479441659551
21.511904,3.8231582399560793,0.09589006824649157
21.516492,3.8266574552176755,0.09545651544935913
21.521068,3.830445181356191,0.0950776364695082
21.52566,3.8365646566952134,0.0947064891305423
21.530248,3.843461381767738,0.09434139507703537
21.53484,3.856165409117215,0.09395421335276218
21.539428,3.8685028823242553,0.09360426532973487
21.544008,3.8870142119506843,0.09319797339141771
21.548604,3.9087567252252677,0.09279199545880089
21.553192,3.932420292109293,0.09235981423131917
21.557792,3.962868638983435,0.09181563174980874
21.562384,3.9929504317151405,0.09130392623326254
21.566972,4.029328265580381,0.09072760146882895
21.571564,4.064440110855537,0.09020593005600294
21.57616,4.0970980222160405,0.08970330761267936
21.580756,4.131554802471839,0.08919409777042989
21.585336,4.170630939680024,0.08863824422940161
21.589928,4.2079082079929115,0.08811225229576854
21.594516,4.247473084057678,0.08754525435629308
21.599116,4.292678936236623,0.086920788553413
21.603708,4.337474092824502,0.08626154029920453
21.6083,4.385211922183617,0.08556884903620744
21.612884,4.429596383180433,0.08488875200024566
21.617476,4.469850226081445,0.08422106711112104
21.622068,4.507650135067806,0.08356360941298513
21.62666,4.540419991510716,0.08292564352626737
21.631252,4.573800771524354,0.0822401350711463
21.635836,4.601907129566252,0.08159313338845871
21.640424,4.627148858102431,0.08092000213751518
21.645016,4.6481377838286635,0.08026251711904525
21.649604,4.667694394802036,0.07960279220162732
21.654196,4.6860630604508415,0.07890049961062873
21.658792,4.697724989375048,0.07821072854642115
21.663372,4.70243581214636,0.07754193126680117
21.667964,4.701872212945933,0.07689600486676083
21.672544,4.695379126754409,0.07626096577757696
21.677136,4.682956553571785,0.0756370490268284
21.681748,4.666036808150923,0.07503789946262304
21.686336,4.640899967987085,0.07449792429359511
21.690932,4.606113718327412,0.07399211717081687
21.695528,4.571449653381885,0.07347032001619755
21.700132,4.529590112855174,0.07298420959180649
21.70472,4.488996560918547,0.07245502068579023
21.709312,4.449424628143715,0.07190321154668516
21.713904,4.410752129816531,0.07133982435241465
21.718484,4.3719574467752,0.07078001372858986
21.723088,4.333040579019723,0.07022367014009372
21.727676,4.294245895978394,0.0696502268311344
21.732264,4.256761342975777,0.0691031725210853
21.736848,4.22569501582084,0.06851160506582524
21.741448,4.192341080914025,0.06796555974977579
21.746044,4.165283187140745,0.06738949954631136
21.75064,4.145054214806211,0.06681142107792727
21.75522,4.134063956376446,0.06617200313691307
21.759816,4.128103750490132,0.06553622283846766
21.764412,4.126151977985474,0.06491980202931268
21.769012,4.126409769967178,0.06433056763461002
21.7736,4.134107406958354,0.06369576467311194
21.778196,4.147201650635419,0.06304089677342539
21.78278,4.165203762141788,0.06240164169021534
21.787376,4.186681426724602,0.06176739447635909
21.791956,4.214455132440952,0.06111173711715409
21.796548,4.245582206519603,0.060474710613428455
21.80114,4.279285399227049,0.05984747578117195
21.805728,4.313521472239708,0.059253961634337965
21.810328,4.356219009423633,0.05862259945576155
21.814916,4.402147730255713,0.058023007711578284
21.819508,4.453595242487826,0.05741162266304918
21.824096,4.50696380832938,0.0567986171902671
21.828684,4.553303224752526,0.056263569470728164
21.833288,4.59772158756623,0.055742722400129174
21.837876,4.636376789551611,0.055268536123914094
21.842464,4.671556438460545,0.05480010372459741
21.847056,4.704815033760038,0.0543536544892008
21.851644,4.7374185640401745,0.053894131875108144
21.856248,4.76924484458681,0.053429937006821186
21.860836,4.802214929009383,0.05295020251855509
21.865432,4.826479179832397,0.05252753028117137
21.870012,4.845102454541232,0.05212982443277626
21.874608,4.8627041100882735,0.051741916752337226
21.879196,4.870822682302256,0.05139797073015427
21.8838,4.872156474526121,0.051095637799174115
21.888392,4.864906617864571,0.0508364172186597
21.892976,4.852137969802987,0.050589529782223974
21.897556,4.8329510958937245,0.05035453409488491
21.902152,4.79953959698487,0.05018379344395203
21.906748,4.753413831094799,0.05002892770668705
21.911348,4.698704416319315,0.04991338215102146
21.91594,4.631691430153681,0.04985184332467267
21.92054,4.565944432578131,0.04975819908631486
21.925128,4.493657024440754,0.04968782179924054
21.929712,4.4185491282462905,0.04962750548352797
21.9343,4.337555886509356,0.049609076404551665
21.938896,4.248878430334655,0.049634800018837744
21.943488,4.156481051655218,0.049662222214721365
21.948076,4.0584426968616025,0.049710815521350274
21.952668,3.9518206931825737,0.04980576356640776
21.957248,3.846586862807775,0.04984982125017337
21.961844,3.7404535979853284,0.049889591362863056
21.966428,3.6299453456387885,0.049916811274969164
21.971016,3.5252002541205725,0.04990190528173762
21.975608,3.4245416392495307,0.04982835361718563
21.980188,3.32580407798793,0.04974366787766615
21.984776,3.224778908974451,0.04971138552125168
21.989372,3.1265742280180615,0.04966040040653495
21.993968,3.0313122198329063,0.04957916347116177
21.998564,2.942346252781287,0.04949430669124637
22.003144,2.8551791546249627,0.04940748899032335
22.00774,2.775696270906405,0.0492545193385505
22.012328,2.692371279968963,0.04912110812256601
22.016932,2.6175077532027893,0.04893034262334126
22.021516,2.5436658455984094,0.048712349868326774
22.026116,2.4707233724416766,0.04849519764483927
22.0307,2.402155886809038,0.04830383367392353
22.035292,2.332078043158023,0.048206345461865495
22.03988,2.2636768836881584,0.048130963512266964
22.044476,2.2016939500659745,0.048035236728560374
22.04908,2.141143331196649,0.04798204254884962
22.053676,2.083168830956121,0.04794208469185355
22.058264,2.0314903718491286,0.047887320217505594
22.062848,1.9786681088661968,0.04786491663757672
22.067428,1.9227809883978844,0.04789200940336117
22.072028,1.868814921539013,0.04789062439502809
22.076616,1.8197125810608183,0.04782502877623658
22.081216,1.7703658711543322,0.04780580894753837
22.085808,1.71950880322947,0.04793831868408788
22.090396,1.6713500386475508,0.04807087845019324
22.094988,1.6234356434939234,0.04813899492884874
22.099576,1.5769535630931546,0.04828164629548
22.104168,1.5311265477117424,0.048511228220216515
22.108764,1.4841557284543911,0.04878517378238665
22.113352,1.4418042661494244,0.04900400085129268
22.117944,1.401496042168045,0.049171428976742135
22.122524,1.3598776881479526,0.049215274588729506
22.127116,1.320424757165593,0.04918870168540368
22.131712,1.2837923142403225,0.04913566377139322
22.136304,1.242540514362667,0.04668811593237319
22.140908,1.2002670953232177,0.04423947382151649
22.145496,1.1570942418361208,0.04178968691811661
22.150092,1.108280412234845,0.03936706688341359
22.154676,1.05946658263357,0.036943897272558465
22.159276,1.011430002765797,0.034519547862647056
22.16386,0.9642928573456716,0.032123727498126045
22.168456,0.9143352238684571,0.02975738000188819
22.173052,0.8661764592865382,0.02736172981710292
22.177644,0.8279895168942634,0.024832219810877784
22.182228,0.7851832175496034,0.022302709804652637
22.186824,0.7409887449007131,0.01983769561876426
22.191424,0.6951175880706727,0.01733755684866676
22.19602,0.65603121123075,0.014752710458854554
22.200612,0.6140021616195925,0.012164779386576837
22.205212,0.5660877664659647,0.009656422501824045
22.209804,0.520871674655281,0.007182409028129118
22.214388,0.48387267758757335,0.0047880590546969465
22.218976,0.4507157877387485,0.0023939807006714345
22.223572,0.41780326731821493,0.0
22.228164,0.38938791913592075,0.0
22.232752,0.36289362456306784,0.0
22.237344,0.3389754486190129,0.0
22.241924,0.31710051099854497,0.0
22.24652,0.29318233505449,0.0
22.251108,0.2738835160628199,0.0
22.255696,0.2525414587475629,0.0
22.260292,0.23773981199413213,0.0
22.264872,0.22036204661190342,0.0
22.26946,0.19685456625891362,0.0
22.274052,0.18000968118189578,0.0
22.27864,0.1670069033237607,0.0
22.283236,0.15490355991327345,0.0
22.287828,0.14280021650278624,0.0
22.292424,0.13453898031118178,0.0
22.297004,0.12975329719602305,0.0
22.301604,0.12280219104313156,0.0
22.306192,0.11041219518907995,0.0
22.310792,0.09687839545908915,0.0
22.315388,0.08399966074845484,0.0
22.31998,0.07214254519961404,0.0
22.324576,0.0611848640984211,0.0
22.329172,0.05068016160356638,0.0
22.33376,0.044550446632805246,0.0
22.338356,0.0461049460998096,0.0
22.342948,0.04304008861442903,0.0
22.347548,0.04651564169087477,0.0
22.352136,0.04488309895835289,0.0
22.35672,0.048647162911718125,0.0
22.361312,0.05469883461696173,0.0
22.365904,0.05666402967503126,0.0
22.3705,0.05850704001895512,0.0
22.375092,0.06047223507702464,0.0
22.379688,0.05658784484286886,0.0
22.384276,0.05270345460871308,0.0
22.388868,0.05299196548563257,0.0
22.393448,0.05802201802908267,0.0
22.398036,0.06374941860716231,0.0
22.402632,0.0667785158422984,0.0
22.407224,0.06677851584229838,0.0
22.411812,0.06677851584229838,0.0
22.4164,0.06677851584229838,0.0
22.420992,0.06644772195010586,0.0
22.425584,0.06431805916261762,0.0
22.430164,0.05834628915624664,0.0
22.43476,0.05519500720696489,0.0
22.43934,0.04832380275294605,0.0
22.44394,0.04361802133665993,0.0
22.448524,0.037113371025078105,0.0
22.453124,0.030364351285204944,0.0
22.45772,0.025658569868918825,0.0
