Time,Force,Position
20.920124,4.470611512930899,0.04951498916912809
20.924716,4.421431129187187,0.049586770602551386
20.929304,4.370329691834033,0.04966898908217341
20.9339,4.31526396254785,0.049781452267905896
20.938496,4.259709494405086,0.049942303690954586
20.943096,4.207308166644958,0.05023330485666358
20.947688,4.162312782077415,0.05066609963264064
20.95228,4.121946994093995,0.051320879858701485
20.956868,4.0850669988187605,0.05220528377049507
20.961452,4.0547376537370905,0.05326931010057775
20.96604,4.038520988572606,0.05445632713655061
20.970636,4.026811735278099,0.05583100834191391
20.975228,4.024595804948393,0.057331383859867614
20.979824,4.032283893174551,0.05899673598627929
20.984416000000003,4.045256643004189,0.0608374143965697
20.989004,4.067600531084482,0.06279916155146407
20.9936,4.097638873234279,0.0648740382710117
20.998188,4.137825603368233,0.06705178725959401
21.002776,4.190570513952366,0.0692904184248323
21.007368,4.25142057419707,0.07166360087379972
21.011956,4.318699099921192,0.07415023670320589
21.016568,4.394204960020031,0.07675108418647364
21.021156,4.481902446426613,0.07939178908972866
21.025744000000003,4.576272767740906,0.08212112755294447
21.03034,4.678537771104365,0.08483088466105326
21.034932,4.790940922820242,0.08740306745417316
21.039528,4.899169314991689,0.08985586249678393
21.044116,5.001335795826154,0.09208782256723703
21.048716,5.097851060914702,0.09413515620049145
21.053304,5.187815675809684,0.0960125247102189
21.0579,5.265710849111069,0.09778515550557777
21.062484,5.335256503323593,0.09942668341165001
21.067084,5.3940428459812315,0.10100794756964603
21.071668000000003,5.444724038978301,0.10245358337163227
21.076264,5.491020004819539,0.10372431067955189
21.080856,5.531664754914858,0.10486316873684565
21.085452,5.565514485388322,0.10590782798843004
21.090048000000003,5.588072024001689,0.10690939733433613
21.094648,5.602935108545552,0.10783686422374027
21.099236,5.614312400381232,0.10860730897775898
21.103832,5.615541304232755,0.10932852728295714
21.10842,5.611363361766652,0.10993358362473421
21.113008,5.591928935507425,0.11059559168397934
21.117596,5.564677870464547,0.11122226740569141
21.122192,5.52707818945785,0.11189157024546416
21.126784,5.477863903897248,0.11264392635288037
21.131376000000003,5.430159976355022,0.11334149077194
21.135972,5.385687232460951,0.11402546237167684
21.140556,5.341214488566879,0.11471959412813981
21.145152000000003,5.294454136920931,0.1154851728244399
21.14974,5.250025534475488,0.11625669075773086
21.154328,5.205596932030045,0.11704901350074101
21.158936,5.162434318174687,0.11781938313339167
21.163516,5.121070573214625,0.11857402725446278
21.16812,5.07496528658803,0.1194254968236199
21.172708,5.027183315780287,0.12029727250501338
21.1773,4.979401344972544,0.12118269256871636
21.181892,4.934029166630825,0.12200539970876263
21.186484,4.89106678075513,0.12275118948596436
21.191076,4.846549895412431,0.12349887721590191
21.195668,4.806119486716906,0.1241633683330497
21.200268,4.767199436039758,0.1247593017602037
21.204856,4.73273241615222,0.12524213490196742
21.209456000000003,4.698221254816054,0.1256764818125495
21.214036,4.665587005640701,0.12602041773695022
21.218636,4.635606918359664,0.1262680896090936
21.22322,4.600841147963467,0.1265515812687563
21.227816,4.562311313613907,0.126844423465503
21.232408,4.521816284206275,0.12712404603149724
21.237,4.4834425363877495,0.1272783120535709
21.2416,4.442326343777651,0.1274213096202225
21.2462,4.4038643130618675,0.12745459427368747
21.250792,4.368178628954547,0.12735855593524076
21.25538,4.330649934503301,0.12722644693140756
21.259968,4.2929549138892815,0.12704652299305544
21.264556,4.251906524912962,0.12691570386129222
21.269144,4.211835613649808,0.12668283188159543
21.27374,4.17021020291965,0.12645751002288902
21.278332,4.120245512732369,0.12642623684011078
21.28292,4.065006400573348,0.12650069996890384
21.287516,4.009356592823261,0.12652984480694418
21.292104,3.9470441897972024,0.12673989266911478
21.2967,3.885753405932937,0.12690738696069187
21.3013,3.8275274795540524,0.12696871911356045
21.305892,3.7672583148515804,0.1271049024098557
21.310476,3.7069891501491083,0.12723891387045508
21.315068,3.649173919361289,0.1273474585048591
21.319676,3.593934807202267,0.1274063985045447
21.324268,3.5394729447767475,0.12746861427210582
21.328856,3.4814574860092646,0.12770725857446566
21.333444,3.424752157280495,0.12798178254495643
21.338044,3.3705007624663774,0.12820055552024998
21.342640000000003,3.3146168249197374,0.12851979490000656
21.347216000000003,3.2591435829641635,0.12888387025682183
21.351816,3.2116430663232745,0.1290590424649207
21.3564,3.17043859081592,0.12908733226401073
21.361,3.126702138128396,0.12925523354420235
21.365588,3.085175249927233,0.12942472521857656
21.370188,3.0572620631549334,0.12924704783791865
21.374772,3.0389982858784688,0.128857664581432
21.379368,3.0197570308888384,0.12859332947108265
21.38396,3.009632305089833,0.12808898251624856
21.388552,2.9979972212724504,0.12768484171305058
21.393144,2.9880829630848464,0.12734272255555082
21.397736,2.9840981918883407,0.12689334371922864
21.402324,2.9818342463216125,0.12650574211641627
21.406912,2.9819020499553917,0.12609987688477484
21.4115,2.984179418075531,0.1256955233516568
21.4161,2.9911202845966836,0.12525515624650918
21.420688,3.008199299470254,0.12454243471832391
21.425284,3.0324737899250076,0.12366335188568155
21.429876,3.0542163031995915,0.12292941834690754
21.434464,3.078945630694038,0.12218846751254782
21.439056,3.1093600757512907,0.12138197015428594
21.443636,3.139285781951961,0.12067264868849756
21.448228,3.168844934010194,0.12002392246785783
21.452824,3.2045779424878167,0.11924460921557944
21.457416,3.2457075576513263,0.11836510764454232
21.462020000000003,3.2810740119865116,0.11768458587638582
21.466596000000003,3.3114545552268755,0.11717101934578118
21.471184,3.347476074581418,0.11652111335512509
21.47578,3.379411117288786,0.11601603100856978
21.48038,3.413022844177304,0.11548098081783037
21.484984,3.4439362677228793,0.11500160950810918
21.48958,3.472806452944867,0.11459183795274892
21.494172,3.5051080497946714,0.11404649281597413
21.498764,3.537531831358622,0.11349425064029736
21.503364,3.5663578751319815,0.11301375143521682
21.507952000000003,3.595672657761923,0.11248597304847519
21.512552,3.616648160934744,0.1121519185557751
21.517144,3.6312054382598835,0.11195511889173994
21.521744,3.6480503233369013,0.1116684384274114
21.52634,3.66293001335585,0.11134825603179697
21.530932,3.6757223236025824,0.11101498402196447
21.535528,3.6859385152205184,0.11072012415609642
21.54012,3.696399076266745,0.11040126701932036
21.544708,3.7014630306270844,0.11017558993192786
21.549304,3.6965110213491514,0.11013394857013722
21.553896,3.6871840245471255,0.11015828036845822
21.558488,3.678467951315828,0.1101135098673876
21.563068,3.661779152769845,0.11019797562933117
21.567656,3.6462341580998014,0.11023929404794564
21.572244,3.6321995214481344,0.11019238791681142
21.57684,3.618653623653049,0.11008945383949699
21.581432,3.6050635844093364,0.10990321478897644
21.58602,3.590574110717976,0.10972882786638226
21.59062,3.5736307031119625,0.10957059103814046
21.595208,3.558852718543683,0.10933942694692293
21.5998,3.5413764306324587,0.10915109811097227
21.604392,3.5287638691019114,0.1088455490572974
21.608984,3.522036653113834,0.1083971423841194
21.613576,3.5173526754493434,0.107896600786386
21.618164,3.5144675666801484,0.1073683422243044
21.622764,3.5076181659779246,0.1069335298143295
21.627356,3.499092081094551,0.10651108937204176
21.631948,3.48798987758238,0.10611488621549414
21.63654,3.482773019612679,0.10558238663617253
21.641132,3.4858954411000993,0.10489557197855351
21.645724,3.4982565764922895,0.1040460817475502
21.650304,3.51229439606563,0.1031865648261502
21.654904,3.5334055065060075,0.10222799462301298
21.659492,3.5564376705558267,0.10123856550826478
21.664092,3.5789810957490626,0.10031376556710557
21.668688000000003,3.60038071706636,0.09942427449464267
21.67328,3.625011522031811,0.09853643414051105
21.677864,3.6466996542260275,0.0977208547585697
21.682456,3.6743172734113423,0.09686886819324149
21.687044,3.7024677729018673,0.09605042549753309
21.69164,3.7331943910211907,0.09521516287597934
21.696228,3.764698258874016,0.0944023908564061
21.700824,3.789295162022578,0.09374030581263526
21.705412000000003,3.808661784648027,0.09321437806521883
21.71,3.826762418683391,0.09274127659272184
21.714588,3.848582975223492,0.09220857800446967
21.719172,3.873879084840039,0.09164689732565508
21.723768,3.9043274317141816,0.09105308585289087
21.728356,3.934531409160033,0.09050407810652836
21.732952,3.965757005767678,0.08995282613289247
21.737544,3.993018310442294,0.08949042168298212
21.742136,4.0219562992980595,0.08903059439790678
21.746724,4.053959145639206,0.08852968211781848
21.751312,4.087105795856293,0.08801262685811179
21.755908,4.119475196339876,0.08749560206122298
21.760496000000003,4.1585071920994325,0.08689809446108909
21.765084,4.197661372573134,0.08630746736532503
21.76968,4.23975822581807,0.08567826434575622
21.774272,4.275925592071908,0.08507991173019033
21.778864,4.311560078020535,0.08446193819797017
21.783444000000003,4.349359987006897,0.08381422058965406
21.788044,4.385483211812107,0.0831830113755824
21.792636,4.4286355860357265,0.08244711337505642
21.797232,4.475219371887163,0.08162796872513137
21.801824,4.521148092719243,0.08079512349481376
21.806416,4.569242236589057,0.0799336509007321
21.811008,4.612961392934777,0.07909697686730961
21.815596,4.653327180918196,0.07827981641622603
21.820184,4.693037903882259,0.07746621127887632
21.82478,4.730294692931669,0.07666949521436135
21.829368,4.768284590265953,0.07582382795441218
21.833964,4.804187107828023,0.07495936631817408
21.838556,4.830850911485323,0.07417694499573772
21.84314,4.854572042371388,0.0734384566760703
21.847736,4.8789040968281805,0.07265719725690556
21.852324000000003,4.896695740723148,0.07193694075804204
21.856916,4.908069158770435,0.07125934069892739
21.861508,4.917765892636571,0.07058674285732776
21.866104,4.929261495398003,0.06990495119102699
21.870692,4.94087928287358,0.06921665440845115
21.875292,4.944402160320326,0.06856659097264878
21.87988,4.942528431081185,0.06793670023028725
21.884476,4.931415987937276,0.0673621147416155
21.889064,4.917727426164569,0.06678756910000792
21.893656,4.906204287429593,0.06617753645395287
21.898264,4.888385107561082,0.06558944778324031
21.902844,4.87567402350154,0.06493673621145633
21.907436,4.8565447135943165,0.06430719444949595
21.912032,4.827932320354033,0.06373948764407629
21.916624,4.790736278228335,0.06322885775232381
21.921232000000003,4.74675545611252,0.0627687816135499
21.92582,4.697910907616028,0.062341779898289235
21.930428,4.647267490224241,0.061911423488174445
21.93502,4.594414508346093,0.06144018219463949
21.939612,4.539273918716066,0.061004160267130056
21.944192,4.483356079352537,0.06055230360800689
21.948792,4.4314025319220365,0.06005007536726913
21.953368,4.377405746167949,0.05956479888487021
21.957968,4.3198112226232706,0.05907896074370171
21.962552,4.257475157412061,0.058613387354306115
21.967148,4.19963626443909,0.05812344141149152
21.971728,4.144495674809063,0.057614613545740594
21.976324,4.091809019093689,0.057108472899236255
21.980912,4.0376120053599385,0.05664700699942906
21.985504,3.9813717533026,0.05620003426874681
21.990092,3.927829804588206,0.05573396035563198
21.99468,3.8707342595318486,0.05533831711107457
21.999268,3.821200744199112,0.05488666952356871
22.003864,3.779229258589994,0.05438213245948628
22.008456,3.743431629400266,0.05386934002298924
22.013048,3.712008987734631,0.05335114623367547
22.01764,3.6839397144312964,0.052840784130368926
22.02222,3.6593459942044073,0.05232583855201984
22.026812,3.62993268904547,0.05192006288979466
22.031396,3.598476145562946,0.0515333937388144
22.035984,3.5667752326521307,0.05116187824412534
22.04058,3.5307434736658503,0.05086036910145942
22.045168,3.492790661070128,0.05056560338009975
22.049772,3.457413967103203,0.05027105653713444
22.054356,3.4255128262127243,0.0499781971211509
22.058944,3.388381404799132,0.04976025248607583
22.063540000000003,3.351782863690751,0.04957477840802668
22.068116,3.314284888134722,0.04938406133510205
22.07272,3.273966424521604,0.04920638033386911
22.0773,3.229683668975457,0.04906493924743178
22.0819,3.1849121745727276,0.0489706450374732
22.086484,3.1366651270935524,0.04886090265121071
22.091084,3.082043995215324,0.04886354636658455
22.095668,3.0233363866899228,0.04892179680740952
22.10026,2.964995332306958,0.04892745899716297
22.104848,2.9055104740480537,0.048963543049500284
22.109444,2.8429607583037697,0.04905083289336454
22.114032,2.777590554502396,0.04915452951838571
22.118628,2.719371684833577,0.049149651929076194
22.123216,2.6621744343265514,0.049125124919629136
22.127804,2.6059988029813193,0.04907323239387809
22.132392000000003,2.5500675410643785,0.048986163547970106
22.136988,2.4940140944332923,0.048910444403588035
22.14158,2.43309692142153,0.048883244914637816
22.146176,2.3723019331239135,0.04882394251763037
22.150772,2.314571802311677,0.04871172144300116
22.15536,2.2512006953852626,0.04864398969702599
22.159952,2.1884846534782043,0.04861493663759769
22.16454,2.1294885340758833,0.048569520273543346
22.169136,2.068449176349975,0.048580552601284605
22.173728,2.0017688425098883,0.048660807535611764
22.17832,1.934966323955656,0.04876518862020164
22.182912,1.870451413153302,0.04878759603320448
22.1875,1.8061808717792394,0.04875864250923692
22.1921,1.7407665265292376,0.04874528266396305
22.196692,1.6749414856881701,0.0485921473842055
22.201284,1.6093608142753946,0.048393409001153166
22.205876,1.5475000653673563,0.04814383749759327
22.210456,1.4835960781357307,0.04790086365724504
22.215052,1.420469340637607,0.04766846478122718
22.219632,1.357753298730549,0.04756952928821506
22.224232,1.2955701371287016,0.04519083104029327
22.228816,1.2332647908127083,0.04281288168702159
22.233416,1.173535563125513,0.04041350750804731
22.238004,1.1097198587911437,0.03805982975863498
22.242600000000003,1.0429614816855397,0.03573027346264357
22.247192,0.9800452117988182,0.03335596596314085
22.251788,0.9192943649498293,0.030956544731961147
22.256376000000003,0.8626299947480146,0.02855711502199334
22.260972,0.8116066006603785,0.026099691121149425
22.26556,0.7663463674010664,0.02357272291125872
22.270144,0.7227628183229042,0.021036352221218087
22.274736,0.6807337687117467,0.018529657076066387
22.279324000000003,0.6430797066246826,0.016054138748872408
22.283912,0.6032602214998859,0.013615375574019309
22.288508,0.5609087591949194,0.011297619655885533
22.293104,0.5214999696611878,0.008986017866100694
22.297692,0.48556673320390187,0.006720640982928896
22.302288,0.4493891273183246,0.004506673334732704
22.306876000000003,0.4093694142138647,0.0023003997512365073
22.311472,0.36724104678505193,0.0
22.316064,0.3280553521274741,0.0
22.320656,0.29258957997463336,0.0
22.325252,0.2602099398593106,0.0
22.32984,0.2324283821442354,0.0
22.334428000000003,0.20926618138154507,0.0
22.339024,0.18984517767572937,0.0
22.343616,0.17185648872277232,0.0
22.348208,0.1497600485705037,0.0
22.352804,0.12856304286588288,0.0
22.357396,0.10814328689476428,0.0
22.361976,0.09054401898073487,0.0
22.366576,0.07396637022849901,0.0
22.371164,0.05648928702861533,0.0
22.375772,0.04285431104761436,0.0
22.380364,0.03408306144728967,0.0
22.38496,0.025966876866321483,0.0
22.389556,0.015152388942409742,0.0
22.394152,0.0062589546279393764,0.0
22.398744,0.0030064964276474626,0.0
22.40334,0.0030064964276474626,0.0
22.407928,0.0030064964276474626,0.0
22.412524,0.0030064964276474626,0.0
22.417112000000003,0.0028630371613642697,0.0
22.4217,0.0028630371613642697,0.0
22.426288,0.005582615056445346,0.0
22.430876,0.0045397213425143,0.0
22.435464000000003,0.002719577895081075,0.0
22.440056,0.0027195778950810756,0.0
22.444652,0.0027195778950810756,0.0
22.449240000000003,0.0027195778950810756,0.0
22.45384,0.0027195778950810756,0.0
22.458416,0.0027195778950810756,0.0
22.463012,0.0027195778950810756,0.0
22.467608,0.0027195778950810756,0.0
22.472196,0.0027195778950810756,0.0
22.476792000000003,0.0027195778950810756,0.0
22.48138,0.0027195778950810756,0.0
22.485968,0.0027195778950810756,0.0
22.490564,0.0027195778950810756,0.0
22.495156,0.0027195778950810756,0.0
22.499752,0.0027195778950810756,0.0
22.504332,0.0027195778950810756,0.0
22.508932,0.0027195778950810756,0.0
22.51352,0.0027195778950810756,0.0
22.518120000000003,0.0,0.0
22.522708,0.0,0.0
22.527312,0.0,0.0
22.531904,0.0,0.0
22.5365,2.1274552137521694e-05,0.0
22.541092,2.1274552137521694e-05,0.0
22.545688,2.1274552137521694e-05,0.0
22.550276,0.0013526791429880598,0.0
22.554872000000003,0.002439714305547256,0.0
