Time,Force,Position
21.554924,5.273479287077453,0.04692323573375943
21.559508,5.202101553019465,0.04698978504330761
21.564100000000003,5.127003896456738,0.04706602148275918
21.568688,5.0471646982274825,0.047159311675227945
21.573276,4.96102945886469,0.04725595824611187
21.577864,4.873872600340103,0.04736404792823667
21.582448,4.791335098767904,0.047463078942465056
21.587036,4.711740269966938,0.047545892754931894
21.591628,4.6314903761466155,0.047614567596985916
21.59622,4.549319428716852,0.04769500535252289
21.600812,4.473688891848915,0.04776134119739747
21.605408,4.396259486085682,0.04782850933684608
21.609996,4.320096068912535,0.04786877950820592
21.614588,4.2478969436724165,0.0478852727177371
21.619168,4.175820003146443,0.04789355368197104
21.623756,4.100023140115732,0.047914294810096125
21.628348000000003,4.022671777618016,0.0479100686663561
21.63294,3.940334504025479,0.047948668339864844
21.63754,3.860695533775886,0.04798807429122937
21.642136,3.7827332477074425,0.048041954772607115
21.646724,3.707835819124379,0.04805557151515849
21.651328,3.635636693884259,0.04807416217638072
21.65592,3.567035306434731,0.04809769824057473
21.660516,3.500232787880499,0.04812641847080758
21.665096,3.4372723765451494,0.04813076303931973
21.669696,3.372513096314504,0.04814048954498489
21.674292,3.301213405522032,0.04817836714512885
21.678892,3.229791530015415,0.04822771151536395
21.683480000000003,3.1574702200611497,0.04827924389982963
21.68808,3.084371660373382,0.048322081300935314
21.692676,3.0076753628950232,0.048366631656852545
21.697272,2.93138976100773,0.04849053098060162
21.701864,2.8547376049779993,0.0486678988239711
21.70646,2.7820938823299253,0.04892330732839952
21.711060000000003,2.7145243536739296,0.049369323992068996
21.715656000000003,2.658124832163884,0.05015596684000517
21.720252,2.6098746017630363,0.0514164294712317
21.724852,2.570550912204888,0.05315924648373285
21.729448,2.5428962082810114,0.05537445798164489
21.734044,2.5290759130291387,0.057936419873853076
21.738632000000003,2.522060877030861,0.06095563591178953
21.743216,2.5301462382946727,0.06416831734508488
21.747804,2.5480575748488317,0.0676044876228458
21.7524,2.5773493861603427,0.07127108255807892
21.757,2.618554552534417,0.07517113246681052
21.7616,2.6766589850658757,0.07917097307287599
21.766192,2.7487200109834844,0.08335577405115677
21.770776,2.8311398924966515,0.08771497354325175
21.775372,2.9321357243483535,0.09211198244607943
21.779948,3.050808072090942,0.0965593253295033
21.784544,3.1811052640191755,0.10111495190883046
21.789140000000003,3.3271137767802252,0.10562715166875183
21.793728,3.4820488303839747,0.11023135956202254
21.798340000000003,3.6458662833817956,0.11480224664321292
21.802928,3.8174562337146383,0.11917261055806484
21.807516,3.988469162293643,0.12319289399775761
21.812108,4.153708690412583,0.12684030044740088
21.8167,4.316562088250652,0.12994877063143562
21.821296,4.468235239311032,0.13259305046215797
21.825888,4.608605958879577,0.13486008611429945
21.830484,4.741149800032735,0.13672259257873884
21.835072,4.857815994190301,0.13845766170472446
21.839668000000003,4.964001148038164,0.13999424016702036
21.844248,5.062115054042345,0.14126232226376453
21.848840000000003,5.150358843307551,0.14231415314419157
21.853432,5.223990974167251,0.14328672072033719
21.858028,5.292738899382797,0.1439531836248819
21.862612,5.352516142307015,0.14443695782913274
21.867208,5.396005042644576,0.14490649204711542
21.871808,5.423205600395481,0.14536667003521347
21.876404,5.440702367570184,0.1457408049918153
21.880996000000003,5.440766988282291,0.14615975064931083
21.885588,5.43186092670307,0.14644501742464996
21.89018,5.41259600952829,0.1466570472631522
21.894764,5.381872574330642,0.14689009956625632
21.899352,5.34566424954985,0.14711314131143946
21.903948,5.3119437605006,0.14718763728253637
21.90854,5.2790785644503675,0.14718242173697815
21.913132,5.244536684218985,0.14720277332102816
21.917724,5.209994803987602,0.14722089072229522
21.922312,5.176841097060448,0.14717928794498644
21.926908,5.149939289818201,0.1469648851406355
21.931496000000003,5.123404036718392,0.14671986213935692
21.936084,5.097890402780376,0.14644388070417644
21.940692,5.074420007165947,0.1461108915172733
21.94528,5.052626295732668,0.14575364953521022
21.949892,5.026379553509777,0.14553413809198745
21.954476,4.998866822696802,0.14536320736094585
21.959064,4.971886972189037,0.145208733896419
21.96366,4.951080978100663,0.14494198079579487
21.968248000000003,4.93244040705002,0.1446070595773437
21.972844,4.921772561314064,0.1441239834381384
21.97744,4.915235333673909,0.14358526746260888
21.982032,4.907842813034734,0.1431193911941869
21.98662,4.900860987986626,0.14267644301297197
21.99122,4.891469370472492,0.14232138052583343
21.995812,4.880689579654128,0.1420277606824147
22.000416,4.867377811655594,0.14183362625611723
22.005008,4.86244946456281,0.14151909699705573
22.009604000000003,4.857687443632802,0.14125145106364564
22.0142,4.853746813884924,0.14103631791238394
22.018792,4.849850325585675,0.14088041045341468
22.023372,4.8508617051157294,0.14066599801388138
22.027968,4.84999617248497,0.1405546925797903
22.032572,4.849052596588695,0.1405129317421322
22.037172,4.8531390732358695,0.14040334530835316
22.041764,4.858535679921756,0.1403019767311319
22.046352,4.871905011922329,0.14006222803144944
22.05094,4.893247069237585,0.13968723793382148
22.055528,4.916798691039203,0.1393164526745042
22.060116,4.939250650413509,0.13903958505109607
22.064712,4.961991120664735,0.1388052890432778
22.069296,4.985264471221173,0.1385922987081807
22.073884,5.014178797891788,0.13826840242926905
22.078488,5.048489731248292,0.13785511579099247
22.083072,5.090895574633626,0.13730309600119034
22.087664,5.1339564830383155,0.13675828464167336
22.092248,5.178327521481718,0.13622593827791926
22.096832,5.22216567961991,0.13570093799655095
22.101436,5.267802706653397,0.13514425223882381
22.106024,5.31188523421988,0.13459545834343598
22.110612000000003,5.353147273729276,0.13410250264657594
22.115216,5.393509878791021,0.1336339948264238
22.1198,5.437836775785797,0.13307882138316698
22.1244,5.484451280532449,0.1324621615277143
22.128976,5.52975565524039,0.13185057061416683
22.133576,5.578857995718585,0.13111784518767983
22.13816,5.624484783120334,0.13045060474039438
22.142760000000003,5.663815529388549,0.12988786645843026
22.147344,5.696195169503872,0.12941600849001442
22.151944,5.733394394551242,0.1288057941012827
22.156528,5.770182924007548,0.12818097488178037
22.16112,5.803740269815699,0.12758427641506362
22.165704,5.834721496995052,0.12702636163033268
22.170296,5.865169843869195,0.12646642582182485
22.174884,5.892631376523474,0.12592086785680612
22.179476,5.92160326719613,0.12532583158593086
22.18406,5.949387212544218,0.1247132440361868
22.188656,5.970508562616335,0.1242105852572613
22.193240000000003,5.993018085992682,0.12366653275443266
22.197832,6.016793597959113,0.1230853859839273
22.202424,6.043878336839217,0.12243010228947082
22.207012,6.069408576252315,0.1217843318725681
22.211596,6.091829816731407,0.1211540143127526
22.216172,6.1102426238288405,0.1205488920105717
22.220752,6.12595712758333,0.11997980962168003
22.225348,6.136152839937789,0.1194862509460002
22.229936,6.141440684462942,0.11902279340737854
22.234524,6.146440018111174,0.11852655946519723
22.239116000000003,6.154748578673082,0.11795498651243415
22.243716,6.1576605325491,0.11745044590704491
22.24832,6.153621380272227,0.1170105966309386
22.252920000000003,6.147494848223139,0.11655746426379172
22.257512,6.139936001421192,0.11609995601557603
22.262092000000003,6.126325482914002,0.11569707100242935
22.26668,6.109361596044511,0.1153164092839968
22.271268,6.0870011024891335,0.11499478226724419
22.275872,6.060632175552099,0.11468780477212845
22.280464,6.033974737738145,0.11434686999820909
22.285064,6.004208300990182,0.1140095143080604
22.289656,5.973131734203507,0.1136547650383513
22.294248000000003,5.938701799054531,0.11331910583470585
22.298824000000003,5.9002634305239,0.11299616969531005
22.303416,5.859371128078616,0.11268189179082444
22.307996000000003,5.818478825633331,0.11236310246914952
22.31258,5.775132589273395,0.11205368395591025
22.31716,5.735628460132341,0.11168218848236507
22.321756,5.698944819048377,0.11126729606661545
22.326344,5.663937862145562,0.1108372947369406
22.330924000000003,5.628442166386165,0.11043830899102504
22.335516,5.596666393131506,0.10998796384005897
22.340096000000003,5.571186661010381,0.10946724893516682
22.344684,5.5504926120044145,0.10892990321057518
22.349272,5.528532574408364,0.10842494120563274
22.353856,5.509803720460468,0.10790504350172969
22.358456,5.494061680732433,0.1073888273661396
22.363048,5.482816813242638,0.10682325465493701
22.36764,5.477501432743942,0.10621619735738118
22.372232,5.479381527826429,0.10553649230793637
22.376832,5.481550133785834,0.1048893218130494
22.381424000000003,5.490669845898131,0.10419509635135996
22.38602,5.501876937782643,0.1035182251524345
22.390612,5.5228556238771365,0.10276010740685852
22.395192,5.552584285019816,0.10194229562109884
22.399784,5.5817020225917675,0.10116325034239565
22.404368,5.617770866316612,0.10033888388409068
22.408968,5.654128220918374,0.09955886920612202
22.41356,5.691673520844705,0.09880956331553249
22.418152,5.733060927989918,0.09802577312679198
22.42274,5.774692704563422,0.09722991310253266
22.427328000000003,5.814159058099194,0.09648442209505119
22.431924,5.8574675188538485,0.09571009883022691
22.43652,5.901020349036794,0.0949309629597771
22.441096,5.947760221419266,0.09410254620607418
22.445680000000003,5.994988832658321,0.09324842214347208
22.450272,6.043849986629897,0.09235154998620408
22.454864,6.093732759763267,0.09145315250925733
22.459456000000003,6.141161598981985,0.09056732106021077
22.464044,6.18192784292473,0.08975733659783036
22.468636000000004,6.22396007545756,0.08892080333109037
22.473216,6.257530843819123,0.08817293359388736
22.477808000000003,6.289014232408471,0.0874073335890816
22.4824,6.313302145416636,0.08669971000497541
22.486988,6.329617333110115,0.08604315353811767
22.491592,6.351529355469146,0.08529547498010996
22.496180000000003,6.36943294444652,0.08455278555988087
22.500788,6.381773600575232,0.08380175635974653
22.505368,6.39202687693173,0.08303010887809249
22.509956000000003,6.395984112154693,0.08229828684039359
22.514560000000003,6.397609598177149,0.08155800396098639
22.51916,6.398824388608539,0.08079367048395959
22.523764,6.390145400115805,0.08008193229466347
22.528356,6.376558543793766,0.07936683306101949
22.532952,6.3623166224523695,0.07864223719527207
22.53754,6.347297451377471,0.07791339536639384
22.542140000000003,6.3286805425119805,0.07720047996708823
22.546724,6.302090908331806,0.07651107704315578
22.551328,6.275867828294067,0.07579610981463163
22.555916000000003,6.2512772909888525,0.07502781773848369
22.560516,6.2260316886642775,0.07424618448195718
22.565108,6.19755490269155,0.07344653436845622
22.569704,6.168300866985323,0.07263577239935048
22.574284,6.1391690159932395,0.07181146705101042
22.578876,6.109137730553508,0.07098134973158175
22.583476,6.073221099571306,0.07019776092376603
22.588068,6.037060099160815,0.06942360990807633
22.592656,6.006173520722063,0.0686308260388551
22.59724,5.9761863767309595,0.06782939244252936
22.601824,5.946976482473358,0.06702492265531727
22.60642,5.922263760453996,0.06620294531767065
22.611004,5.894363996235109,0.06541151503816153
22.61558,5.873537522883258,0.06460051163757681
22.620172,5.8529995604083265,0.06381514821964573
22.62476,5.829807436039081,0.06308362658355546
22.629352,5.80727037668919,0.06236193321824577
22.633944,5.7852661976445106,0.061655775952477856
22.638532,5.7750768511334,0.060912716631655164
22.64314,5.765053830785062,0.06021105277312993
22.647728,5.758139809370734,0.05953158662483421
22.652328,5.756500209928147,0.05885396669381363
22.65692,5.765776008571478,0.05814915092914304
22.661516,5.779060240596467,0.057467125528655835
22.666112,5.793654602660169,0.05681140486117073
22.670712,5.815322255590907,0.056154799664384115
22.675316,5.839321657722152,0.055515600737588315
22.679892,5.863198875139253,0.054885397350873305
22.684488,5.884788484804473,0.05428958132717688
22.689076,5.908709843670202,0.0537165591845901
22.693676000000004,5.933941332574643,0.0531709004377879
22.69826,5.953698171527679,0.052688547049977226
22.70286,5.976031129109514,0.052208765968965
22.707444,5.99157930670123,0.0517631478273732
22.71204,6.009825787635891,0.05131501744631162
22.71662,6.027417203551194,0.05085074938890868
22.721212,6.042598827000473,0.05042417907071804
22.725816,6.058313330754964,0.05001957335989819
22.730408,6.061357708976867,0.049680197411503424
22.734988,6.061581599141681,0.04934812058390796
22.739572000000003,6.057963382087612,0.049032403912174984
22.74416,6.039753985891515,0.0487847066932814
22.748752000000003,6.013860375257651,0.048567059915608224
22.753336,5.978483681290727,0.04837801745300424
22.757924000000003,5.940530868695004,0.04817904115911368
22.76252,5.893094972766221,0.04800790607984354
22.767108,5.840917535170907,0.04784940532719423
22.771688,5.783632001766626,0.04772492276917768
22.776284,5.719683873086371,0.047620916834104514
22.780868,5.646497030501348,0.04752744791456501
22.785464,5.563172039563907,0.047447589700339576
22.790056,5.476493680264165,0.047349861774190795
22.79466,5.3842965295643905,0.04725429383461181
22.799252000000003,5.2900561405410285,0.04717317385689688
22.80384,5.188009352365757,0.04713136220979039
22.808448,5.082897706705103,0.0471092646997274
22.813048,4.970590585463268,0.0470852076109477
22.817644,4.849166935030809,0.04706584026784595
22.822232,4.726721665436554,0.04706244521415834
22.826836,4.600678658051709,0.04705275367998459
22.83142,4.470138478428626,0.047029746881305914
22.836012,4.344584209900364,0.04697019755805878
22.8406,4.21404403027728,0.04695041087560084
22.8452,4.0844032851018435,0.046936203125390874
22.849796,3.9477333905079974,0.04699063714642308
22.854392,3.811185680628298,0.047029454000209865
22.858988,3.671040232958007,0.047068041859324505
22.86358,3.5319164044495097,0.04709882177051795
22.86818,3.3956130639981015,0.047121730929672874
22.872772,3.259842603851904,0.047194666496338314
22.877376,3.1333108576104767,0.04724012325627548
22.881972,3.007678545816697,0.04727436553704011
22.886564,2.8836007334899216,0.047341854526878765
22.891156,2.7614439747725883,0.047401358814780345
22.895744,2.6441509424359304,0.04741727562476872
22.900332,2.5258362909374794,0.04745922992639823
22.904912000000003,2.4129182461249155,0.04750320471475497
22.909504,2.300777451045853,0.04758122563875102
22.914088,2.195421435956909,0.047572551466923955
22.918664,2.0917421050491143,0.04757505867632629
22.923256,1.985652981675296,0.04772050178520296
