Time,Force,Position
25.09952,3.9420106596373166,0.049545681517131186
25.10412,3.9141723332088616,0.0496528723727584
25.108716,3.886588615840436,0.049981832363706125
25.113316,3.868131667294374,0.0505223937321924
25.117908,3.8577798684088815,0.051274996692852036
25.1225,3.853856535002808,0.0522227922477337
25.127092,3.8541962440384214,0.05338723491600583
25.131684,3.868282078848783,0.05468653373048581
25.136288,3.892394116929155,0.05613020257328822
25.14088,3.929763541927693,0.05772990802308311
25.14546,3.973849943282569,0.059510112598670034
25.150052,4.023631701831991,0.06148422030561328
25.154632,4.085116347832574,0.06356432686519731
25.159216,4.151274731865907,0.06581537276939628
25.163808,4.216954616674398,0.06824547022501405
25.1684,4.297568572582204,0.07077306613774181
25.172988,4.390540480960527,0.07339551914964425
25.177576,4.496114711237659,0.076094778808668
25.182168,4.609671906461215,0.078894305055649
25.18676,4.731700805487778,0.08174065866670222
25.191348,4.86910837302161,0.08455291358222905
25.195944,5.015510285031919,0.08724385510605653
25.200528,5.158514687231302,0.08980020713415499
25.205128,5.288960908980503,0.09223726563462714
25.209716,5.410035992479049,0.09451584044325724
25.214312,5.5231281110311725,0.09660983734240891
25.218908,5.629381068512811,0.0985021293743649
25.2235,5.719800520447487,0.10027980779294754
25.228096,5.796551889872933,0.10191842414521486
25.232676,5.860246100359876,0.1033815098243473
25.237276,5.91022808688896,0.10467717793367784
25.241864,5.949684891659714,0.10575373525646463
25.246468,5.972486799701373,0.10672444191681256
25.25106,5.97887818044223,0.10758241978045817
25.25566,5.976665433034197,0.10821630026206329
25.260244,5.954810974677207,0.10875813631151515
25.26484,5.915480228408992,0.10916870174264273
25.269436,5.86406980091544,0.10938505037014298
25.274024,5.8014791266442005,0.109402846341197
25.278612,5.721334121196219,0.10935989023175026
25.283208,5.620814296514408,0.10928864570334866
25.2878,5.503439347123839,0.10921678235158104
25.292392,5.37885868252035,0.10904657675839047
25.29698,5.253779039428539,0.10873259187503984
25.301568,5.125912810096528,0.10832257753353235
25.306156,4.993627451791797,0.10788856402153985
25.310752,4.853980291743108,0.10748797391533245
25.315336,4.713145186369851,0.10705665008788258
25.319924,4.57243226571074,0.1066096831940897
25.32452,4.428532302852102,0.10624466139944537
25.329108,4.289540207822769,0.10583041487766408
25.333696,4.1567661106614535,0.10537713350065686
25.3383,4.027389523311067,0.10497676450138874
25.342884,3.9036200102579692,0.10464692175980274
25.347476,3.784313767626221,0.1043974867193206
25.352068,3.6764219015687143,0.10414987873167103
25.356656,3.5754913812958375,0.10408060342292581
25.361248,3.4769028498552066,0.10426274515387075
25.36584,3.3820886219996793,0.10472488356546175
25.370432,3.300121085471252,0.10520637336274094
25.37502,3.2294898822515488,0.10580700052884495
25.37962,3.173015500397659,0.10645787346790284
25.384208,3.1248125943671115,0.10731569319511872
25.388808,3.087823836931143,0.10826947590990332
25.393396,3.0631930319656915,0.1092727613375828
25.397996,3.0521861680608424,0.11027753745249771
25.402588,3.052760006893008,0.11136403881085646
25.407184,3.0668356020716305,0.1124633761005881
25.411764,3.089138531624968,0.1136639002239995
25.416356,3.124532521933697,0.11482792968649104
25.420944,3.166477162435991,0.1160968184811463
25.42554,3.2099424005884,0.1175277293736553
25.430128,3.2646556891522773,0.11885779359512161
25.434712,3.3275080291936123,0.12009223412520616
25.439292,3.395556747941172,0.12131096907660997
25.443888,3.4637717928515057,0.12257274035541224
25.44848,3.5384050636095186,0.12366266145798996
25.453068,3.619578744929359,0.12456582636535073
25.457664,3.7083924992383364,0.125163800279539
25.46224,3.7937307004708685,0.12579674594412282
25.466836,3.877592445501914,0.12632012892586225
25.471428,3.95637999654088,0.1268112051977263
25.476008,4.036755948863741,0.12710214438194817
25.480604,4.108948708260514,0.127392173755841
25.485184,4.171814470855262,0.12773094914413669
25.489772,4.223676552466832,0.12813959940293357
25.494364,4.2736073408372235,0.1283577470386107
25.498944,4.313145371795166,0.1285855900307075
25.50354,4.349852675064281,0.1286456636527281
25.508116,4.3771888400827415,0.12868908679127294
25.512716,4.396419855440634,0.12866176637573964
25.5173,4.412287262804486,0.12845282643583042
25.521892,4.417106847736534,0.12825712984480944
25.526484,4.412677479132073,0.12803626937807588
25.53108,4.397078103381664,0.12783715474741647
25.535668,4.375827511885336,0.1275415258074209
25.540264,4.3490478893572355,0.12713124711820553
25.54486,4.311631139988398,0.12675604518072875
25.549444,4.260923101884504,0.12653131505049864
25.554032,4.204319478606402,0.12623313169297803
25.558616,4.144807084373954,0.12583873104478568
25.563204,4.083163168920664,0.12534800679657535
25.567804,4.01158133309462,0.12497230331806239
25.572396,3.939055921372298,0.12453040836802654
25.576988,3.867752356791434,0.12393557864576674
25.58158,3.800779638286035,0.12317334360475646
25.58616,3.730086997275899,0.12247267436488311
25.590756,3.662992094056355,0.12168635195411692
25.595344,3.5930767027797215,0.1209443103755451
25.599928,3.5285579181889744,0.12007343281882951
25.604524,3.468947001427532,0.11913228009358874
25.609112,3.4061931839151915,0.11836653142773437
25.613704,3.3476141259472807,0.1176234034898608
25.618288,3.292843273381364,0.11694984519608069
25.622888,3.2478881564740574,0.11616275811123312
25.627492,3.206863429682888,0.11542970717770043
25.63208,3.164538812484745,0.1149328943215307
25.636684,3.1298645079074783,0.11440877703522552
25.641264,3.1063160690275335,0.11380190068088455
25.64586,3.094304191435976,0.1131561245837622
25.65044,3.0862668454091855,0.1126662584544405
25.65504,3.0852688884325428,0.11223591203439216
25.659632,3.100260523533898,0.11160639174061494
25.664224,3.1233131668471943,0.11101143430315598
25.668812,3.1494409072776097,0.11059712862532499
25.673404,3.1765563650529294,0.11034284076121369
25.678012,3.212099385182628,0.11008375931428957
25.682604,3.253982587894489,0.10981330600959714
25.687204,3.3026166687795784,0.10955866514199128
25.691796,3.3545260747614507,0.10939097767417547
25.696384,3.406357437477806,0.10932831673512043
25.70098,3.4696370785852917,0.10909599585636814
25.705568,3.5381911416645186,0.10880299994504807
25.710156,3.6121418114296326,0.10842976132588172
25.714732,3.689323664842901,0.1080738404017508
25.719328,3.768060017723174,0.10771955400656875
25.72392,3.8547249544695035,0.10717918094145247
25.7285,3.9452319984347155,0.10659121575067107
25.733096,4.0316084243041255,0.10604701357519473
25.737684,4.112299732610729,0.10555341559728112
25.742272,4.191514584715846,0.10497474118350188
25.746868,4.271051849514771,0.10432012469321716
25.751456,4.344371116445679,0.10372108074512197
25.756064,4.412860558812801,0.10308047596419265
25.760644,4.480240099120872,0.10232828386958336
25.765232,4.5453659334939545,0.10149390689761381
25.769832,4.604762508855602,0.10063477312837955
25.774424,4.652177925520908,0.09987717500608687
25.779028,4.693864083174779,0.09908142133238004
25.783608,4.728144297636065,0.09826012140806832
25.788208,4.754774199476475,0.09741179788284177
25.792788,4.770156050905417,0.09659846782988771
25.797388,4.774045482494602,0.09582856686607613
25.801972,4.763744190901084,0.09512436591707592
25.806572,4.742194848896098,0.09443689179134666
25.811168,4.715282802022114,0.09365687441875074
25.81576,4.6736912931088455,0.09297505617157098
25.82034,4.620362994927527,0.09233831817219973
25.824936,4.56363718693528,0.09163540866532403
25.829524,4.50249224997031,0.0908827996323232
25.83412,4.433618957118947,0.09016465399037368
25.838708,4.35395245089581,0.08954143729338944
25.843292,4.2613273082631675,0.08907544105788592
25.847884,4.166903296735227,0.08860130732371742
25.852476,4.066427613502043,0.08814419064864998
25.857068,3.964153061373564,0.08768392883558251
25.861652,3.857381337006846,0.08724294845531481
25.866248,3.7572722079161,0.08667650523276448
25.870828,3.6576959591305647,0.0861099157715994
25.87542,3.555221179022422,0.08566412094284381
25.880012,3.4622736236959692,0.08512417221467108
25.8846,3.373623012628093,0.08462699559565548
25.889204,3.2892693458187927,0.08418465815458276
25.893792,3.216119587972331,0.08365291468716678
25.8984,3.147388959098592,0.08315353365008739
25.902992,3.0814449164650517,0.08278021269086325
25.90758,3.029935966442506,0.0823321542140749
25.912168,2.9873433176309216,0.08188003135138894
25.916768,2.95162373170671,0.08147343082844366
25.921372,2.9236766431175214,0.08110677697483994
25.925968,2.90950958211997,0.08066390285348234
25.930564,2.9043810070475247,0.08021690768377325
25.935152,2.9149535131761577,0.07965693773082719
25.939752,2.9280240946680722,0.07918719431931934
25.94434,2.952587095999744,0.07872394039647444
25.948936,2.9845118990753736,0.07827339159693712
25.953528,3.024453568914316,0.07785101389494252
25.958128,3.069958171601919,0.07748126880817387
25.962712,3.1210257071381835,0.07714873582203972
25.967308,3.1837858904938696,0.07671083449735848
25.9719,3.250798876659504,0.07630668534101119
25.976488,3.319610731720434,0.07589230738935748
25.981076,3.3979056701144255,0.07536998649268119
25.985668,3.4785323577089233,0.07489570704546329
25.99026,3.5645556519893082,0.07439633770208684
25.994848,3.65544267265037,0.07383357653510299
25.999436,3.7418325210731918,0.07332629885111036
26.004032,3.829243988657807,0.07282201627678415
26.00862,3.917266379813151,0.07228614412496275
26.013216,4.003978640929782,0.07173532799138037
26.0178,4.087337533684112,0.07121884231382564
26.02238,4.173472773046904,0.0706285124373006
26.026976,4.256743382903979,0.07001986347147938
26.03156,4.338948232150631,0.069354445288387
26.036148,4.412769660491533,0.06869457199948499
26.040744,4.483604274612572,0.06801881420211534
26.045332,4.5497753903325995,0.06731439077053614
26.049928,4.605519846823289,0.0666397744052993
26.054524,4.656845174341257,0.06592074080363639
26.059116,4.6996648962393275,0.06521299159603298
26.063708,4.732835208641564,0.0645405437771086
26.0683,4.763918141271586,0.063835037341093
26.072896,4.783308426082185,0.06318124008406947
26.077476,4.79329367082524,0.06252296158364484
26.082076,4.793507321358317,0.061887132047501896
26.086668,4.784193747109702,0.06125251610881715
26.091272,4.7709939241935775,0.06057872762872677
26.09586,4.74610145345803,0.05993283729329267
26.100452,4.710826464941773,0.05934974727107726
26.105036,4.666434947234893,0.058792304637831264
26.109632,4.617668442003919,0.058231193070847814
26.114236,4.555698930935145,0.05774052470644475
26.118824,4.487844074323903,0.057293575149840195
26.123416,4.41921196797916,0.05682607871440031
26.128008,4.349680427186767,0.05634644179005988
26.132592,4.276306779175492,0.05588358708288827
26.137176,4.202810946450072,0.05541660099026898
26.141764,4.129970178744006,0.054955779687132285
26.14636,4.050999696067182,0.05455219456133011
26.150952,3.973705897571506,0.05414031881510738
26.155548,3.8920812530003652,0.053790395216198474
26.160144,3.8080468159632006,0.05348649229829879
26.164732,3.729408985611923,0.05315958510273479
26.169324,3.656700642251743,0.05284554483039245
26.173904,3.5895110902915963,0.052500349757181215
26.178492,3.5282510253225476,0.052170543155857216
26.183104,3.470999393735155,0.051870405188675514
26.187688,3.4249075296619744,0.05151514006425359
26.192292,3.3834350225411782,0.051136106145573894
26.196884,3.349813056020921,0.05076624312391665
26.201472,3.3146807314822877,0.05044995607703491
26.206056,3.288420566705988,0.05013217452220534
26.210648,3.2639592708249827,0.04980669641010486
26.215244,3.240685920268546,0.04953857871937943
26.219832,3.2215431878079106,0.04930130922605524
26.224432,3.204077139528426,0.04907148773135811
26.22902,3.1871439715541516,0.04887595786586344
26.233616,3.1729091069228215,0.04867578720490102
26.2382,3.1658697178726727,0.048469868918963814
26.2428,3.156420536356501,0.04832813207934223
26.247388,3.1535117654021554,0.0481545549530927
26.25198,3.1486819408383684,0.04799171060106589
26.256572,3.136700782142027,0.04792864540546844
26.261168,3.1208775162268028,0.04789566170629919
26.265756,3.101745023397907,0.04793477670871492
26.270348,3.0781153583307717,0.0479746131481257
26.274928,3.050887955473044,0.04801379290700361
26.279516,3.0149547190157584,0.048125139189489304
26.284104,2.98106472088206,0.04819984496023191
26.288696,2.9425553657959758,0.04829277553771824
26.293292,2.9032687609763896,0.0483749498002945
26.297876,2.8605066030803576,0.048440548659448725
26.302472,2.8146795876989454,0.0485590213891301
26.307052,2.7645997695075857,0.04864839771805418
26.311636,2.707202291020897,0.04876295245060879
26.316224,2.6440416517058836,0.04894181085899897
26.320812,2.5762616554384867,0.04915352024005659
26.325408,2.503862302218704,0.049390470223148596
26.33,2.428231765350767,0.04955560357452294
26.334604,2.351168913729971,0.04967415458511689
26.339196,2.2687094554232883,0.04980033429987585
26.343788,2.1882932354401925,0.04988681884180449
26.34838,2.1105311773514117,0.049823895881896535
26.35296,2.0310924350814816,0.049744392589903964
26.357564,1.9491997588968992,0.049632139855112854
26.362156,1.8632206060651424,0.04966095254758744
26.366756,1.7741765957480053,0.04981734927454362
26.371336,1.6879530734879569,0.04732332946167832
26.375936,1.5958442056854392,0.04487915738685411
26.380528,1.5050013264730058,0.042416595692886486
26.385124,1.4113379592034838,0.03995211932558394
26.389708,1.3147319191627265,0.03750412393467692
26.394304,1.2183702485502605,0.035016690607387546
26.398892,1.1227858276712974,0.03254510767769358
26.403488,1.0318207637447188,0.03004825084041266
26.408076,0.9439205573035208,0.027500431834414495
26.412676,0.8587186542052662,0.024919934288632664
26.417264,0.777114488897603,0.022327748139671
26.421852,0.6956722384474415,0.0198071277344637
26.42644,0.6186049755213737,0.01730676328529346
26.43104,0.5469343192811931,0.0147987701319582
26.435628,0.47783978166981,0.012317006108618926
26.44022,0.4119764277065816,0.009926515239864132
26.444816,0.3506102459815924,0.007536651620293452
26.449396,0.29464067094249025,0.005147673754849178
26.453988,0.24623312562700797,0.0026305618461248703
26.458572,0.20346655642570413,0.0
26.46316,0.1633982905673438,0.0
26.467772,0.12884881610901636,0.0
26.47236,0.09675327556534105,0.0
26.476956,0.0710759608693464,0.0
26.481552,0.050917437573384516,0.0
26.48614,0.0352560865156619,0.0
26.490736,0.023192473248530684,0.0
26.495328,0.01292772887669517,0.0
26.499932,0.006998241885597225,0.0
26.504512,0.006831915722823402,0.0
26.509108,0.00846445845534528,0.0
26.513696,0.011489585797369826,0.0
26.518292,0.011489585797369825,0.0
