Time,Force,Position
21.432696,5.153642533353971,0.04742562451469069
21.437288,5.08708438422803,0.047419790530781984
21.441868,5.021181300121445,0.04743065011731376
21.446452,4.956832715481864,0.04745873632482457
21.451040000000003,4.893383565289933,0.04748482786313639
21.455624,4.832632718440943,0.04751389015124272
21.460212,4.771104621858452,0.04753318497093154
21.464796,4.711619763599548,0.04753716134786685
21.469384,4.647148994245823,0.047577197834333604
21.47396,4.578303237368004,0.04760668962526173
21.478552,4.513177402994922,0.04762886556922896
21.48314,4.451527121698285,0.047662410386125724
21.487728,4.387955786792207,0.047704318021176716
21.492328,4.320542344667247,0.04776614973489986
21.496912,4.256438129455958,0.04778101196915365
21.5015,4.193477718120608,0.04777881729214929
21.506096000000003,4.129495687623465,0.0477885383156024
21.510676,4.063714788231026,0.04779846560149187
21.515276,3.9940917816197046,0.0478304142976667
21.519864,3.921281732808857,0.04790794606462206
21.524464,3.848060988406944,0.04793682289991638
21.529052,3.775739678452679,0.04796617110308244
21.533652,3.6998206307078227,0.04800098638649546
21.538236,3.6241459523912574,0.04801203476472491
21.542836,3.544096286550598,0.04800237514511673
21.547428,3.465845489605235,0.047998261820413245
21.552024,3.3854292696221386,0.04803632008204747
21.556612,3.303991430477249,0.04809197566212946
21.561208,3.2216541568847124,0.04816417621009675
21.565804,3.1394832094549487,0.04834059297613926
21.570404,3.0550246542733075,0.04859871100262665
21.574992,2.976661912245538,0.049018722618926036
21.579588,2.9056270701448357,0.04978918589444239
21.584176000000003,2.844129692457561,0.050962605227505973
21.588768,2.794179115690412,0.05265574050025922
21.593356,2.7605168815099197,0.0547219414227058
21.597948,2.7418328598773707,0.057084245886692635
21.60254,2.7410697235640002,0.05964429313441708
21.607132,2.7543853653509247,0.0624588743230859
21.611724,2.782268524094728,0.06544893692446958
21.616304,2.8197774301492156,0.0687710431884338
21.620896,2.8685446262469094,0.07229602704667537
21.625488,2.9343332732161334,0.07593676887383424
21.630064,3.0125240141045033,0.07971359170223614
21.63466,3.1017286756077884,0.08372802316176678
21.639248,3.2017809315632144,0.08785873576978281
21.643836,3.313458031704284,0.09213350235050588
21.648432,3.4361049110116397,0.09651025725159332
21.653024,3.5780608489424046,0.10084344867769876
21.657628,3.7326191087719782,0.10515531151588126
21.662216,3.898758071338567,0.10946828019904424
21.666812,4.061998502582549,0.11373052601365949
21.6714,4.219509674815097,0.11772877825214474
21.675996,4.373168500197025,0.12135508320929556
21.680576,4.517445947696559,0.12446723211566528
21.685176,4.642692607817866,0.12726487369340836
21.689768,4.752305990371872,0.12984343753726474
21.694364,4.844897922054348,0.13230960758811716
21.698952,4.929296421178998,0.13447709801327004
21.703544,5.002070076118004,0.1364941942390967
21.708144,5.068815721536915,0.13818762403551138
21.71274,5.128267368845651,0.1396294223779848
21.717328,5.175439106949387,0.1409650493159729
21.721924,5.210863816153334,0.14222464723026415
21.726512,5.2401824725716715,0.14329819819848785
21.731096,5.26135183788081,0.14425104584996984
21.735688,5.278458388727924,0.14498181600971427
21.740268,5.2880707134851965,0.1456142755683458
21.744856,5.283115521285591,0.14627111668859955
21.749444,5.269277929691913,0.14689801803568217
21.754036000000003,5.248478992313606,0.1474560584045738
21.758624,5.227836141466333,0.1478880911988018
21.763204,5.2085814639232915,0.1482684518790666
21.767812000000003,5.194557066903362,0.14850088454986032
21.7724,5.1831529299608565,0.14874690834103976
21.776996,5.180298540086878,0.1489241651805242
21.781584,5.1859497558327945,0.1489756476779573
21.786172,5.200228761912754,0.1488893642587855
21.790768,5.215451343888988,0.14884112680828956
21.79536,5.238402281751616,0.14867426837936934
21.799952,5.264340033834109,0.14849598998612934
21.804528,5.291343546527022,0.14834891150064225
21.809128,5.321700427582235,0.14815682131817423
21.813708,5.356432296161542,0.14789290352269216
21.818312,5.3950062719597325,0.14754938477648427
21.822896,5.436034181672574,0.14717932866137928
21.827488,5.479271655871778,0.14681153603991912
21.83208,5.526595606718157,0.1463501712199628
21.836672,5.576495676193333,0.1458528164111229
21.841256,5.62802828840103,0.14528243966347812
21.845852,5.68262575809411,0.14464568973071745
21.850428,5.735913097748475,0.14400454924042932
21.855016000000003,5.791976784011301,0.14326491891424867
21.859604,5.842888233016533,0.14261407729563383
21.8642,5.892733921411342,0.14194175180800772
21.868788,5.939714980300433,0.14127558981366406
21.873376,5.982931975236158,0.14063375090594823
21.877968,6.023284340666166,0.140006767023793
21.882556,6.06064989187631,0.13938933926563696
21.887148,6.091675260504291,0.13882958303536036
21.891728,6.118037130731261,0.13830401635256984
21.896312,6.139857687271362,0.13779970940044767
21.900908,6.159590864039248,0.13729477697470466
21.905496000000003,6.1762150418731245,0.13681153439868896
21.910084,6.189730220772995,0.13635267788038336
21.91468,6.201768943471376,0.13585046662907738
21.919268,6.20873347217768,0.13535723227667967
21.92386,6.212222447807535,0.13491117796697466
21.928448,6.213501858951032,0.13447015549379746
21.933048,6.215025639522821,0.13401410002071773
21.937636,6.210864302531801,0.13360419898597878
21.942228,6.206047900521426,0.13318937573112832
21.946816,6.199799183758191,0.13277589045973698
21.951416,6.190974348366161,0.13238911892497524
21.956,6.181372263240627,0.13200537597669598
21.960592,6.172136732257529,0.13159529054654417
21.965188,6.165188809026311,0.1311273829112565
21.96978,6.153210833251642,0.13070376170291895
21.974368,6.14388701937129,0.13019607764311425
21.978964,6.135707009366873,0.12965777640317633
21.983548000000003,6.1256059457530165,0.12914801061183867
21.988136,6.113706013243864,0.12865769278653583
21.992724,6.101028831001211,0.1281687641465363
21.997324000000003,6.087041518719844,0.1276669998013319
22.001908,6.071377522257328,0.12717885115502303
22.006492,6.051749233861783,0.12676158721989325
22.011088,6.0309771415902995,0.12637010933034384
22.015676000000003,6.0068516809565144,0.12600681679808387
22.020268,5.980272286408076,0.12565967351366247
22.024856,5.95111677323084,0.12533682207444188
22.029444,5.924781748110695,0.12496571171105363
22.034036,5.899712711580633,0.12455369657646037
22.038624,5.871701002279337,0.12419117452093811
22.043212,5.84483309685398,0.12379663454275339
22.047808,5.818986810590416,0.12337875975353362
22.052396,5.7940399587745,0.12294626221113676
22.056992,5.769748171977941,0.12251704331945315
22.061572,5.747788134381889,0.12207626407617674
22.066168,5.721497250710372,0.12172974789521822
22.070756,5.694717628182272,0.12141560365363824
22.075352,5.6725573626065575,0.12103423381455762
22.07994,5.651951596497846,0.12064493260843669
22.08454,5.633677579589641,0.12024635055086862
22.089124,5.619534180777237,0.11981611133986342
22.09372,5.604902043108252,0.11941905012510734
22.098308,5.594644892963359,0.11897252987622377
22.1029,5.585697872857181,0.11853676260747882
22.1075,5.580881470846806,0.11806947094472371
22.1121,5.579662806627021,0.11755463013852721
22.116692,5.578977022712448,0.11705381232146356
22.121284,5.579601368836588,0.11656902346698857
22.125872,5.581535844999442,0.11610053561101669
22.130460000000003,5.583225951734005,0.11564757227394486
22.135044,5.589946111012017,0.11515913390949631
22.139636,5.59719915059524,0.11468898405587596
22.144232,5.60396345132188,0.114255389145253
22.148816,5.602799168182464,0.11395704734266747
22.153416,5.604988253405346,0.113634603649019
22.157992,5.612573945314117,0.113248421938676
22.162588,5.6191380180610935,0.11288003797855974
22.167172,5.625457721379779,0.11253187752490773
22.171760000000003,5.639994519441441,0.11208573914723648
22.176368,5.654531317503103,0.11164281363685774
22.18096,5.666902692527033,0.11124884151158385
22.185548,5.684015609217491,0.11078990568077995
22.190144,5.701006341193805,0.11034339248488068
22.194732,5.720817561227209,0.10986118926035926
22.199336,5.742427650155909,0.10936579571158524
22.203924,5.76395969581909,0.10893091388491387
22.20852,5.788967294558718,0.10847023244272647
22.213096,5.811154405241256,0.10804839024224847
22.217696,5.832564266190293,0.10763231738677898
22.222284,5.859248549111068,0.10717339374466575
22.226888,5.883112343974756,0.10675622622799437
22.231472,5.906853954124299,0.1063504808462567
22.236064,5.932516617883281,0.10592233639615997
22.240656,5.968439614708829,0.10537307375966513
22.245252,6.006405849857963,0.10480086236526906
22.249840000000003,6.045271519454745,0.10422961159998272
22.254436,6.0907997843274995,0.10358378929816188
22.259024,6.14004797170499,0.1029105348731466
22.26362,6.187497290187186,0.10227317858568433
22.2682,6.2340471742217325,0.10164784324593838
22.272792,6.280963612398718,0.10100141680109553
22.27738,6.326081181680406,0.10038004768022132
22.281972,6.371320935676241,0.09975717703029456
22.286564,6.4168050591003665,0.0991286957218701
22.291152,6.45983524860984,0.09851456148635139
22.295752,6.50408728526077,0.09783097869723024
22.30034,6.545230322977691,0.09715200973875063
22.304932,6.587883718712989,0.09643198278492622
22.309520000000003,6.6251405077624,0.0957509335145737
22.314108,6.657489428982506,0.09508658306090695
22.318720000000003,6.688772589592191,0.09439524722802231
22.323304,6.719767239324956,0.09367844621640219
22.327916,6.7475307054095675,0.09296879968956966
22.332504,6.773328976436109,0.09224752186302573
22.3371,6.794219379633346,0.09154038406016915
22.341688,6.81044628442957,0.09082953843521738
22.34628,6.819844267787048,0.09014891734470891
22.35088,6.821758264686424,0.08948690893550931
22.35546,6.816843340147054,0.08884894716988641
22.360056,6.81343877362606,0.08817228065612237
22.364636,6.810767315389939,0.08745514481745989
22.369236,6.808051715705191,0.08669721546443057
22.37382,6.801205497924641,0.08594180268168584
22.37842,6.791372465924227,0.0851725612881117
22.383016,6.777286631113864,0.08440939904884236
22.387612,6.7632007963035035,0.08364800031736785
22.3922,6.7505031347973725,0.08285388956097914
22.396792,6.735107169948298,0.08207044671927616
22.40138,6.720855008975164,0.08126011880221373
22.405976,6.70684721743032,0.08043206730704303
22.410564,6.688875133952448,0.07963612874410222
22.415148,6.669104181579281,0.07884631084239287
22.419724,6.652398086691493,0.07802169715725468
22.42432,6.630950450137176,0.07722955470913495
22.428904,6.612078932211657,0.07643064065245989
22.433492,6.596560782648436,0.07562762108098867
22.438088,6.58235276312393,0.07484032507775536
22.442668,6.570232123371637,0.07407125882897295
22.44726,6.562486471143438,0.07328823396763269
22.451852,6.553719199753447,0.07251735989449246
22.45644,6.544463189506872,0.07177431890095934
22.461048,6.532430832651836,0.0710904429020663
22.465636,6.52657233221619,0.07039051184476058
22.470244,6.522679026838613,0.06972173620175424
22.474832000000003,6.526880631489867,0.06902654700676822
22.47942,6.529816247551036,0.0683570508408604
22.484024,6.535860862546214,0.06770898222019747
22.48862,6.54807933396078,0.0670522074557786
22.493216,6.571457572889559,0.06635303977901909
22.497796,6.599988049075933,0.06565877839832289
22.502392,6.636979989433575,0.06492774997169147
22.506972,6.676548048420015,0.06420069644958758
22.511568,6.716526802997519,0.06350637253687404
22.516160000000003,6.761779979546767,0.06281176849033451
22.52076,6.805767167505929,0.062144066115183486
22.525352,6.849509986036798,0.06149615769765908
22.529948,6.896195477338903,0.06083540813365186
22.534536,6.946723075859891,0.06016155205909859
22.539128,6.996351239933231,0.0594959872252666
22.54372,7.048555522635369,0.05884102309655459
22.548316,7.101537055071009,0.05819684739533384
22.552904,7.156561825830236,0.057539123226189474
22.557488000000003,7.206967239637078,0.05690043399763218
22.562076,7.256717588424563,0.056256047007028354
22.566656,7.302381460564875,0.055648394937631136
22.571252,7.348045332705185,0.055044664038299954
22.575844,7.384226121512436,0.05447672738009427
22.58044,7.41386649975786,0.05393143319340381
22.585024,7.430958937184841,0.05344408649376253
22.58962,7.4386904759929084,0.052982712091430725
22.5942,7.441558288420299,0.05254573345268701
22.598788000000003,7.444426100847689,0.05211081278256118
22.603396,7.4379330146561635,0.051696448154785184
22.607984,7.419014172360342,0.0513210593207985
22.612592000000003,7.391633865893253,0.050963791918002016
22.61718,7.357468779436047,0.05063111884018809
22.621784,7.31382060964578,0.0503231836912595
22.626376,7.2579910531795075,0.05004013746290795
22.630964,7.196276151170764,0.04977906794265732
22.63556,7.120458808876575,0.04954834415455057
22.640152,7.035524937391764,0.04931947394978251
22.644752,6.944950089792773,0.04909823384441827
22.64934,6.8477126469178105,0.04889023219403322
22.65394,6.742668804890936,0.04870918173488649
22.658528,6.6267095647781415,0.04852985517698832
22.663120000000003,6.499346187722845,0.04837905605472187
22.667708,6.370061757058107,0.04823112412003894
22.672308,6.235014165565045,0.04809800723713814
22.676896000000003,6.099067139624336,0.04795952494458108
22.681488,5.962875744255334,0.04783011693325242
22.686076,5.8197773841820695,0.047731501423615805
22.690672000000003,5.663886713862071,0.04769965882320717
22.695268,5.509794912437369,0.04766268399424873
22.699864,5.362243521574493,0.04760850411802772
22.704456,5.218534237930501,0.047531731919432954
22.709044,5.076868192610095,0.04743192296351016
22.713628,4.93712320089913,0.0473135937873826
22.718228,4.79893270865517,0.04720891934472718
22.722812,4.661763835573003,0.047084709647922766
22.727408,4.5308910036243715,0.046957159363528046
22.732000000000003,4.401083932286161,0.04688401317422663
22.736588,4.270010872357865,0.04683531057061987
22.741172,4.145356038277251,0.046767352628760396
22.745756,4.019557400320698,0.046722730809902836
22.750344,3.9027531068406236,0.046672323416248385
22.75494,3.7942880928176703,0.04659936178927555
22.759528,3.6885213821376612,0.046523937995651785
22.764116,3.5882734628576842,0.046432444826398425
22.768712,3.4898244124730025,0.046331788950591264
22.773300000000003,3.3894543084788804,0.04624011341584061
22.777904,3.2898614542182605,0.04616772275074044
22.782504,3.195254511052462,0.0460510196873451
22.787096,3.101424817620166,0.04593971055178359
22.791684,3.0028535825213396,0.04585038591515993
22.79628,2.9041601627083677,0.04575622468467532
22.80086,2.8024018854100143,0.045697501173865306
22.80546,2.702975357312168,0.045682671793573916
22.810048,2.608290370880852,0.04563230137237998
22.814644,2.5114399614118037,0.045623009858065076
22.819224,2.412546313619168,0.045663227661558024
22.82382,2.319782380797294,0.045582284144271054
22.828428,2.229961120746655,0.045452576230388946
22.83302,2.136053384048841,0.04539850788236623
22.837624,2.0479088081793515,0.045280576701397256
22.84222,1.9560443098051252,0.045158300366601185
22.846808,1.8643019961450442,0.044962177288024534
22.851404,1.7764017897038458,0.04468488416188729
22.855992,1.6865805296532066,0.04438763963418973
22.86058,1.5956154657266282,0.04411198660057421
22.865164,1.5111908123618754,0.0437706404145586
22.869764,1.4288093973207106,0.041488990609208694
22.874348,1.3502700894984279,0.03921385605605179
22.87894,1.2708313472284973,0.036943836269171144
22.883532,1.1980552002345388,0.03466251390897505
22.888112,1.125811933545791,0.03240800614600736
22.892696,1.055489720466485,0.030140671344771382
22.897284000000003,0.986311311263118,0.027853779545152477
22.901872,0.9197090206885488,0.025594763672305978
22.906484000000003,0.8547834142951297,0.023320636950398297
22.911068,0.7957431534441802,0.021000035187494957
22.915664,0.7332714809654135,0.018767275989836532
22.920256,0.6732537424012988,0.01657352019812452
22.924844,0.6189991646655082,0.014331579454034305
22.92944,0.5664212711108677,0.01213108604141719
22.93402,0.518096180366175,0.009950123054515406
22.938616,0.46838291631725176,0.007859237883661649
22.943196,0.41752584839238943,0.0058531307057855045
22.947796,0.37026727556899597,0.0038844163530688224
22.952384,0.3276280596979875,0.0019132379275608182
22.956984,0.2857660935604811,0.0
22.961568,0.24840129966121405,0.0
22.966164000000003,0.21349043967659914,0.0
22.970756,0.1839761863778714,0.0
22.975348,0.15511699809850008,0.0
22.979936,0.13009991703801152,0.0
22.984532,0.10958000821576225,0.0
22.989124,0.09073678357466301,0.0
22.993708,0.07189355893356378,0.0
22.998288,0.05779187595899515,0.0
23.002888,0.04434525800378301,0.0
23.007476,0.034862931981599295,0.0
23.012072,0.026402225121209117,0.0
23.016668,0.01847364125515227,0.0
23.021256,0.012343926284391134,0.0
23.025852,0.0065807654560670085,0.0
23.030428,0.0038832194240009436,0.0
23.035016,0.0029845422872305815,0.0
23.039612,0.002984542287230582,0.0
23.044196,0.002984542287230582,0.0
23.048792,0.002984542287230582,0.0
23.053388,0.003272295853272587,0.0
23.057976,0.006624906904695162,0.0
23.062568,0.009200268222615555,0.0
23.06716,0.010754010378742424,0.0
23.071764,0.015250425306104194,0.0
23.076352,0.01962465551932029,0.0
23.080952,0.024653950751892896,0.0
23.085532,0.03046049571796768,0.0
23.090132,0.037410844559981664,0.0
23.09472,0.04538281256378917,0.0
23.09932,0.05335478056759667,0.0
23.103904,0.05658520690487358,0.0
23.108500000000003,0.05593089919639455,0.0
23.113092,0.05478709532045536,0.0
23.117688,0.05401060289783067,0.0
23.122276,0.0553199756256662,0.0
23.126872,0.060593640286530144,0.0
