Time,Force,Position
24.747468,0.02149858537764295,0.0
24.752052,0.02104984796385782,0.0
24.756644,0.02104984796385782,0.0
24.761244,0.01982386081657051,0.0
24.765828,0.01982386081657051,0.0
24.770428000000003,0.019823860816570515,0.0
24.77502,0.019823860816570515,0.0
24.779596,0.019497308116931057,0.0
24.784192,0.017371886521995894,0.0
24.788780000000003,0.01320322660347369,0.0
24.793372,0.007113513075510105,0.0
24.797964,0.0030670378711335705,0.0
24.80254,0.0019632354379919338,0.0
24.807136,0.0009816177189959669,0.0
24.811724,0.0,0.0
24.816316,0.0,0.0
24.820904,0.0013040304128048286,0.0
24.825492,0.0022415066831726433,0.0
24.830084,0.007920524620071057,0.0
24.834664,0.01588715030884786,0.0
24.83924,0.02385377599762466,0.0
24.843848,0.03296420556234066,0.0
24.84844,0.04285188486055883,0.0
24.853032,0.05094069526348131,0.0
24.857612000000003,0.05927387509469512,0.0
24.862212,0.0685064893735568,0.0
24.8668,0.078760722814212,0.0
24.871404,0.08619446819777796,0.0
24.875992,0.0908077255242547,0.0
24.880592,0.09901872064132285,0.0
24.885176,0.10825133492018452,0.0
24.889772,0.11952718752263324,0.0
24.894364000000003,0.12786036735384704,0.0
24.898956,0.13811460079450225,0.0
24.903556,0.1473472150733639,0.0
24.908148,0.15555821019043203,0.0
24.912736,0.15772363322816474,0.0
24.917328,0.1604999798366258,0.0
24.921908,0.1548209618997274,0.0
24.926508,0.1468543362109506,0.0
24.931096,0.1388877105221738,0.0
24.935688,0.12977728095745783,0.0
24.94028,0.11988960165923966,0.0
24.944868,0.11180079125631719,0.0
24.94946,0.10346761142510337,0.0
24.954048,0.09423499714624169,0.0
24.958640000000003,0.0839807637055865,0.0
24.963228,0.07654701832202053,0.0
24.967816,0.07258272638899212,0.0
24.972412,0.06437173127192397,0.0
24.976988,0.0551391169930623,0.0
24.981576,0.04386326439061358,0.0
24.986184,0.03553008455939976,0.0
24.990776,0.025275851118744568,0.0
24.99538,0.016043236839882898,0.0
24.999956,0.010280076011558777,0.0
25.004544000000003,0.010280076011558777,0.0
25.009124,0.00913627213561958,0.0
25.013728,0.014526779195598501,0.0
25.018320000000003,0.02375939347446017,0.0
25.022916,0.03299200775332184,0.0
25.027508,0.041203002870389985,0.0
25.0321,0.050313432435105984,0.0
25.036700000000003,0.05533738535264788,0.0
25.041292,0.059461903822541934,0.0
25.045892,0.06256480313064246,0.0
25.050484,0.06476826799109514,0.0
25.055072000000003,0.06721610227983918,0.0
25.059668,0.06991440562278273,0.0
25.064252000000003,0.07338385907332028,0.0
25.06884,0.07787493168565135,0.0
25.073424000000003,0.08326543874563028,0.0
25.07802,0.08751214192967,0.0
25.082604000000003,0.09367989872315109,0.0
25.087184,0.09780441719304514,0.0
25.09178,0.09858166692654732,0.0
25.096368,0.09911454723175818,0.0
25.100944,0.1014462964322647,0.0
25.105556,0.09903650396624064,0.0
25.110144,0.09086355067189245,0.0
25.114752000000003,0.0837122165393378,0.0
25.119328000000003,0.08040298962566589,0.0
25.123928,0.07697157799784832,0.0
25.12852,0.08159093495023324,0.0
25.13312,0.086743172207829,0.0
25.137712,0.08997435585598339,0.0
25.1423,0.09116230118055074,0.0
25.146904,0.09198369236268107,0.0
25.151484000000004,0.09382670270660491,0.0
25.156076,0.09554752833638311,0.0
25.160664,0.09444786590907207,0.0
25.165264,0.08905735884909316,0.0
25.169848,0.08562594722127558,0.0
25.17444,0.07945819042779448,0.0
25.179028,0.07807001712356394,0.0
25.183624,0.07655965910518771,0.0
25.18822,0.07337261690566146,0.0
25.192812,0.06916395554434171,0.0
25.1974,0.0695746511354069,0.0
25.201996,0.07612530132897197,0.0
25.206584,0.08907051518506713,0.0
25.211176,0.11070814008730948,0.0
25.215764,0.14925527077867537,0.010097778319860806
25.220356,0.20753239531625403,0.019019742542689164
25.22494,0.2871279149839392,0.027393013966417586
25.229528,0.38791964506758525,0.03556888019869948
25.234124,0.5096632161389008,0.04364927919274719
25.238712,0.6489272165700681,0.0517556971374996
25.243304,0.7994597466761808,0.060104474955727676
25.2479,0.9690672056091497,0.06840265927096215
25.252488,1.1596706469784162,0.07664572724438186
25.257084,1.373884231235498,0.08480617901595103
25.26168,1.6037813341344163,0.09299912921660737
25.266284,1.8538130268447042,0.10114619338852121
25.270876,2.119406053482683,0.109283488767591
25.275464,2.4040740089475183,0.11743176813531409
25.28006,2.7126806196198867,0.12546987566370174
25.284636,3.038929844366251,0.13351306792831327
25.289232,3.3801233798436727,0.14155275092977931
25.29382,3.728478489085388,0.1496002464922911
25.29842,4.082464334809543,0.15751042287342695
25.303008,4.431311365829513,0.16528241656568565
25.307608,4.7607508156970795,0.16293656688102812
25.312192000000003,5.0586454391848665,0.16186996364274775
25.316776,5.333422798647251,0.16140181000258488
25.321372,5.589457881608326,0.16116152405624104
25.325968000000003,5.829282665248263,0.1609894160601682
25.330552,6.052320127813221,0.16075345668836907
25.335140000000003,6.261879496216874,0.16025081066194033
25.339716000000003,6.452852674650253,0.1597685918228859
25.344304,6.628715216189804,0.1592590038608536
25.348888,6.784481209740705,0.1588246135130888
25.353476,6.924892196969488,0.15833002791891776
25.358068000000003,7.04802712426671,0.15784109527239526
25.362648,7.151554242431864,0.15735794687161125
25.367232,7.238538408950331,0.15681452842896185
25.371816000000003,7.300806670527762,0.15639913422363544
25.376404,7.350418229126021,0.15589450985105568
25.381008,7.381609923916777,0.15539845559057097
25.385588,7.402687132540265,0.15486066210587585
25.390172,7.407119684066397,0.15450942341012708
25.39476,7.404034347317539,0.15432346316007062
25.39934,7.4053681395414035,0.15412024509373098
25.403936,7.420970698213487,0.15372145256625333
25.408512,7.437839245475654,0.15328485774425665
25.4131,7.459938073260937,0.1527445433527098
25.417684,7.483591400513222,0.15219917689888915
25.422284,7.508066118947639,0.15168951232211078
25.426868,7.538348139659008,0.15112965875807857
25.431464,7.571739159304384,0.1505559218042793
25.436052,7.601043702302587,0.1500646703152727
25.440644,7.6313698644625845,0.14955654216752526
25.445232,7.66259546107023,0.14904123562195964
25.449828,7.689856765744846,0.14859434020240786
25.454416,7.719205450191677,0.14814732337525915
25.459008,7.747043776620133,0.14774959260132264
25.4636,7.775903722210382,0.14733142229972357
25.468188,7.796302203629362,0.14704095153055857
25.47278,7.818621738657785,0.1467209729579522
25.477356,7.84339520760086,0.14638504729049306
25.481952,7.8725436640680275,0.14599586653838229
25.48654,7.905001347448867,0.14553855467658205
25.491132,7.933206228019759,0.14512641875909382
25.495716,7.955237252171263,0.14479318017861745
25.500304,7.979311514646352,0.14442428539096971
25.504912,7.998111355149701,0.14411930752590463
25.509500000000003,8.012247697252038,0.14384114492380495
25.514088,8.025440463458096,0.14353867229289616
25.518680000000003,8.035402046016003,0.1432637878450856
25.523268,8.040333576030456,0.14303376357791353
25.52786,8.04281117213026,0.14282150274017738
25.53244,8.04541095294421,0.14260340226946577
25.537036,8.0499317873676,0.1423599177720354
25.541624,8.058783467866453,0.14203595255033558
25.546224,8.067224452774244,0.1416967497692728
25.550804,8.075132557376824,0.1413480204249074
25.555404000000003,8.082918477265256,0.14100524085527374
25.559988,8.09658974269616,0.14057365723612195
25.56458,8.1106275622695,0.14012494027935218
25.569168,8.122333632642334,0.13969116244892751
25.573764,8.13681604962363,0.13918929115541712
25.578352,8.151542836033215,0.13867898579184643
25.582948,8.170356099089975,0.13810575623428234
25.587536,8.188636481841526,0.1375238065035491
25.59212,8.206383984287864,0.13693478859995617
25.596708,8.226951974791291,0.13631324498150257
25.6013,8.248663769170657,0.13566923727567456
25.605884000000003,8.270742117692464,0.13500909615506124
25.610464,8.28934491313782,0.13438241040231735
25.61506,8.311134750782706,0.1337040919795712
25.619648,8.335090011465322,0.13298608914128054
25.62424,8.358390207128584,0.13226805923961016
25.628836,8.377681969410189,0.13157631275658138
25.633424,8.397218101120085,0.13087888167305656
25.638028,8.41789803670592,0.1301631711231599
25.642612,8.439721776167692,0.12942738281387534
25.647204,8.466120731133223,0.12861237317558666
25.6518,8.489166317736453,0.12782262114779716
25.656384000000003,8.512211904339685,0.12703781202317035
25.66098,8.53178193786647,0.1262810827194934
25.665568,8.548531483336166,0.12556146318520223
25.670172,8.564381594358213,0.12485496115361652
25.67476,8.578188467056673,0.1241803818544482
25.679360000000003,8.59211752446928,0.12350027527925221
25.683948,8.60796763549133,0.12280227496603566
25.688552,8.620464378151079,0.12212573532573344
25.69314,8.636436673887273,0.12142793116358414
25.697740000000003,8.652042415481029,0.12075000752725153
25.702324,8.66662653791299,0.12008320071674951
25.70692,8.679944671754868,0.119444461594576
25.711508,8.695183859206187,0.11878695090733418
25.716104,8.710667416085798,0.11812012892647192
25.720688000000003,8.725906603537117,0.11746567684912533
25.725284,8.735260445445967,0.11687843822939925
25.729872,8.741260918992518,0.11630877704775902
25.734468,8.749304630862653,0.11571609801560279
25.739052,8.750441378028526,0.11520240279085305
25.743644000000003,8.75325480937555,0.11468033831808433
25.748236,8.755168806274927,0.11416662893033043
25.752828,8.759781106517245,0.1136315709990967
25.757412,8.762227983721834,0.11312713488781671
25.762,8.760954938421682,0.11265526294229773
25.766592000000003,8.75890464338803,0.11218443723587959
25.771176,8.758531032535528,0.11170658769241563
25.775764,8.753415880016494,0.11127329717575561
25.780372,8.750876846126259,0.11082597447377879
25.784952,8.74563950889308,0.1103997252041026
25.78954,8.7404021716599,0.10997368129211084
25.794136,8.740683625826753,0.10950433054442879
25.798720000000003,8.741209449421898,0.1090244258543428
25.803316,8.744555761074134,0.10852399719831857
25.807904,8.747657703298078,0.1080357305828553
25.812496000000003,8.748594222484288,0.10757473892712892
25.817076,8.752351229727587,0.10708811748122353
25.821672,8.760238855066689,0.10658870374828436
25.82626,8.765183807634555,0.10612008351059385
25.83086,8.7783458549454,0.10559474798038676
25.835444000000003,8.794206205599185,0.10505555520776567
25.840036,8.807123883481736,0.10454399032725271
25.844624000000003,8.820041561364286,0.10403392747863761
25.849220000000003,8.836801346465723,0.10349164061541503
25.853808,8.858180488519542,0.10291692350725418
25.858404,8.881114130040366,0.10234372405998537
25.862992,8.899061860466366,0.10181917732936425
25.867584,8.921751132558898,0.10125751679212418
25.872176000000003,8.943174416061344,0.10071981813390922
25.876772000000003,8.962432276526059,0.10020932718031332
25.88136,8.98541005949551,0.09967642070357843
25.88596,9.006588973569666,0.09915868237678697
25.89054,9.023437041568355,0.09869262639736849
25.895128,9.035177013758076,0.09828198243702338
25.899724,9.047572050967156,0.09787842439832749
25.9043,9.065852433718705,0.09742462107461423
25.908888,9.086831119813196,0.09695787101507235
25.913484,9.105888752298249,0.09650862516744586
25.918072,9.126500884250303,0.0960616011765328
25.92266,9.13787430229759,0.09567440419678237
25.927252000000003,9.144506178678343,0.09532267847032524
25.931844,9.156779031173276,0.09493311623786213
25.936436,9.169051883668208,0.09454477608405706
25.941032,9.177604813658407,0.09418100886732336
25.945624,9.182437821143866,0.09384135872321914
25.950212,9.187515198057614,0.09349267612305578
25.954812,9.200521158837422,0.09307840543313742
25.959392,9.21046226213185,0.0926942113615827
25.963992,9.2228131578923,0.092277683254194
25.968588,9.24002778003343,0.09182596905566767
25.973188,9.255565717993408,0.09138223575436429
25.977768,9.26930478705809,0.09094808297915807
25.982364,9.290195190255327,0.09045074907228838
25.986952,9.312351582042648,0.08993496284014543
25.991548,9.332953474362965,0.08941860365725023
25.99614,9.352411562807344,0.08892076821291969
26.000732,9.372114020680014,0.08841691515744134
26.005312,9.395902955199855,0.08788235007444738
26.009896,9.420835693595636,0.08733764124922569
26.014484000000003,9.453208277000895,0.08675424119695826
26.019072,9.491466205948623,0.08613345449666505
26.023652,9.528824700448702,0.0855225267093835
26.028244,9.56671607525399,0.08492514436019892
26.032836000000003,9.610248426173456,0.08430161504089086
26.037416,9.655579645988222,0.08367216412494356
26.042,9.70193248496478,0.08304015690323685
26.046596,9.745220466455958,0.08243917932659439
26.051184,9.792594924594308,0.08181078415509453
26.055776,9.834983471637836,0.08121932411798409
26.060368,9.872874846443128,0.08064675117548269
26.064956,9.906024679581886,0.08010062258138942
26.069552,9.939951762454145,0.07955760170064599
26.074132,9.970036738107524,0.07903954001260112
26.078732,9.997956290723167,0.07854156312672932
26.08332,10.024732039462874,0.07805571752072629
26.08792,10.049053854287928,0.07757146400624815
26.092504,10.069655746608243,0.0771048454606907
26.097104,10.083472858938443,0.0766776943857076
26.101696,10.092792799030402,0.07626464162143246
26.106292000000003,10.10019168551292,0.07586381575548543
26.110888000000003,10.103748464776555,0.0754847183635088
26.115476,10.102685887087805,0.0751228456133984
26.120064,10.101334798522137,0.07474151146836858
26.124656,10.092421680232851,0.07439333512354443
26.129244,10.084530181105354,0.07403861436860215
26.133836,10.07381819392077,0.07369569179395138
26.138428,10.058486849783797,0.07336782231687275
26.143024,10.04111226732324,0.07305399898532391
26.147604,10.030400280138654,0.0727114769879821
26.152196,10.02160934656351,0.07235960251603801
26.15678,10.012574043560075,0.07201488347519493
26.16136,10.001739871661346,0.07167383485821129
26.165952,9.992582383943764,0.07133301377122499
26.170540000000003,9.984935254244562,0.07096705451248654
26.175128,9.97945354758309,0.07058318380364399
26.17974,9.975648525102766,0.07020003871201999
26.184328,9.97454180596539,0.06981103460479887
26.188924,9.974578890703953,0.06940982984991946
26.193504,9.978335897947252,0.06899645690174268
26.1981,9.98372544792307,0.06855687022653698
26.202696000000003,9.98437345623236,0.06813373845587022
26.207296,9.98808632202703,0.06769149853179467
26.2119,9.98963376478397,0.06726593375446299
26.216492,9.996289303349876,0.06680930776024721
26.221084,10.001268157734632,0.06635250303009128
26.225664,10.004203773795801,0.0659067200168984
26.230264,10.012247485665938,0.06543044052927811
26.234852,10.016571275031337,0.064964761693706
26.239456,10.013455219387263,0.0645207284472838
26.244052,10.009317544581394,0.06408260532643788
26.248644,10.012331203908081,0.06360467691569993
26.253228,10.017510286272502,0.0631107738967364
26.257824,10.020357619436414,0.06260824095281725
26.262428,10.027702124838564,0.06210171989619821
26.26702,10.03582387997422,0.0615997809988269
26.271624000000003,10.04047008203343,0.06109841827353796
26.27622,10.044339034359135,0.06059523039874741
26.2808,10.050006855580138,0.06008969657898776
26.285392,10.054775242353491,0.059586700643851694
26.28998,10.05521278305138,0.05911448431489458
26.294568,10.061657854005883,0.05861404881903315
26.299156,10.06773637081795,0.0581273810077266
26.303732,10.078678614010697,0.0576249089606663
26.308328000000003,10.089254303061,0.057137420217108784
26.312916,10.099707807397161,0.05665440928056681
26.317500000000003,10.113103984504557,0.056160141798769804
26.322088,10.126255792183661,0.05567679759283267
26.326676,10.145048575976942,0.05518212286301003
26.331272,10.165640228665522,0.05468453242450961
26.33586,10.184965892764016,0.054199893534651364
26.340444,10.192398681063425,0.05375991368687341
26.34504,10.20048653438219,0.05332921087750039
26.349628000000003,10.21180557134911,0.05291002833837782
26.35422,10.217361447487704,0.052507954036091264
26.358808000000003,10.220996270016858,0.05211153273898157
26.363408,10.221976930651698,0.05174276652218649
26.367996,10.218871114639363,0.05139138794304777
26.372596,10.21282262585579,0.05104875824224259
26.377176,10.205508148482137,0.050718878821845
26.381776,10.1951288136231,0.05040053731460042
26.386364,10.179030459384368,0.050124932949947736
26.390956000000003,10.157168944317313,0.049861944383477554
26.395548,10.128278279831845,0.04962523024380327
26.400144,10.09158121619447,0.04940971190280621
26.404732000000003,10.050797675909918,0.04921009905898054
26.409324,10.005150409244694,0.0490221815191155
26.413916,9.951208004570972,0.048872727609937446
26.4185,9.887660331850045,0.04874402319247367
26.423092,9.821947236091383,0.048626553633442385
26.427688000000003,9.751614783380338,0.048512130421807464
26.43228,9.685124437888176,0.0483866649935053
26.436872,9.612504377425253,0.04828664905699692
26.441464000000003,9.528357995305681,0.04821289496589292
26.446044,9.440002951824791,0.048160259797411425
26.450644,9.344740943639637,0.04812906358207287
26.455224,9.250744924044566,0.04808328545190231
26.459816,9.153561862249969,0.04805582897209217
26.4644,9.054091192703495,0.048046066841145305
26.468992,8.946691939290965,0.04806513154385312
26.47358,8.837249447554846,0.048094242958231496
26.478164,8.724575772170574,0.048109942306554826
26.482752,8.613700965681597,0.04812449222075227
26.487348,8.499228421402027,0.04813811405113555
26.491928,8.384633692408315,0.048157789538354805
26.496524,8.270038963414601,0.04817630834475594
26.501112,8.15724310331618,0.0481921097656449
26.505712000000003,8.048900274007375,0.048170742491019235
26.5103,7.938392021660835,0.048165677815323577
26.514892000000003,7.826984334866647,0.04815904806345393
26.519488000000003,7.717253332253608,0.04815702687602393
26.524084,7.605479091316983,0.04816438307828624
26.528676,7.4902292973039115,0.04816691331566997
26.533268,7.379965414385662,0.04814664059300054
26.537856,7.26508217451503,0.048134310744198154
26.542448,7.151220553806189,0.04811669838351046
26.547036,7.033394641164321,0.0481160535776705
26.551624,6.915935282664889,0.04809780680219036
26.556204,6.7970436094126,0.0480592019109109
26.560796000000003,6.6794179247503935,0.04800365860269059
26.565388,6.56089280564054,0.04794932140752049
26.56998,6.442245501816541,0.04789932856611456
26.574572000000003,6.320777709935453,0.04785415593416925
26.57916,6.198943363911928,0.04783055145292552
26.583752,6.0792744409261354,0.04778348665004868
26.588332,5.955763410721461,0.04775017362926169
26.59292,5.824568166079021,0.04774663720493857
26.597516,5.68724320646582,0.0477863929406709
26.602104,5.550040431566763,0.04782545318457387
26.606704,5.4073188652676745,0.0478725454595377
26.611296000000003,5.262143365053933,0.047899219349576715
26.615872000000003,5.117090049554338,0.04791526635405082
26.620468,4.973058353216535,0.04792009467820635
26.625056,4.825184549659851,0.04793801727458112
26.62966,4.680253418874401,0.04794289605097234
26.634248,4.536343907250745,0.0479345627291109
26.638844,4.392678765055381,0.047904642306728605
26.643432,4.249913057307664,0.04786647635159103
26.648032,4.104082492074565,0.047855509182782065
26.652616,3.9592735460032618,0.047827419849485006
26.657212,3.8145867846461035,0.04778908037934404
26.661788,3.669900023288945,0.04774773254462215
26.666384,3.521615524141195,0.04770124245589182
26.670988,3.3717765255264407,0.047632274980397335
26.67558,3.2179732349786576,0.04759758062435694
26.680168,3.0671126172021106,0.04752609813600775
26.684764,2.917273618587356,0.04745442962861558
26.689352,2.7675568046867474,0.047386675420391544
26.69394,2.619883229109726,0.047268558753320304
26.698524,2.47568520660915,0.047178004405521376
26.70312,2.3339411180232266,0.047103242088623154
26.707712,2.190031606399571,0.04712993802062497
26.712308,2.048576028690567,0.04473461135462681
26.716900000000003,1.9077755160009193,0.04233946169618337
26.721492,1.7706949258160087,0.03994448412999198
26.726084,1.6315710973075113,0.03756290545144796
26.730676000000003,1.497843875484901,0.035196031778683155
26.735264,1.3659155225575863,0.03284471347585571
26.739872,1.2413048299256002,0.03048123604234052
26.74446,1.1191480712082664,0.028135524637629902
