Time,Force,Position
25.673508,0.032318761738076816,0.0
25.678096,0.029482129457422235,0.0
25.682696,0.026645497176767653,0.0
25.687288,0.02470829934376092,0.0
25.691884,0.02470829934376092,0.0
25.696476,0.02444778569190422,0.0
25.701072000000003,0.0222823626541715,0.0
25.705672,0.02101637406408664,0.0
25.710268,0.022054137449445517,0.0
25.714856,0.02231465110130222,0.0
25.719452,0.022314651101302225,0.0
25.724032,0.022298506877736865,0.0
25.72862,0.02123274626731519,0.0
25.733208,0.015575625929571381,0.0
25.7378,0.01156719254791481,0.0
25.742396,0.011400866385140982,0.0
25.746988,0.011112355508221488,0.0
25.75158,0.017746953559130668,0.0
25.75616,0.025403170771833367,0.0
25.760756,0.031260519089240366,0.0
25.76534,0.0369956826925017,0.0
25.769928,0.04260866158161735,0.0
25.77454,0.05218593240376143,0.0
25.779128,0.06470587599714041,0.0
25.783736,0.07416096210513881,0.0
25.788328,0.08157280988955018,0.0
25.792932,0.08794689428860265,0.0
25.797524000000003,0.09432097868765513,0.0
25.802116,0.09967344392491406,0.0
25.80672,0.10568097418152957,0.0
25.811312,0.11399225641358877,0.0
25.815908,0.12218135393150231,0.0
25.820496,0.13027626396033298,0.0
25.825096,0.13707718817401598,0.0
25.829684,0.14415047904105313,0.0
25.834284,0.15134595462223593,0.0
25.838864,0.15776418046991653,0.0
25.843464,0.15433276884209896,0.0
25.848056,0.14910248831898565,0.0
25.852652,0.1496353686241965,0.0
25.857236,0.15233367196714007,0.0
25.861828000000003,0.15208930253884875,0.0
25.86642,0.14518233783458542,0.0
25.871008000000003,0.13418889648314805,0.0
25.875596,0.13034678926426527,0.0
25.880184,0.13149059314020448,0.0
25.884772,0.13431108119729368,0.0
25.889372,0.1381531884161764,0.0
25.89396,0.1423618497774962,0.0
25.898560000000003,0.14554889197702242,0.0
25.903144,0.14657051113881597,0.0
25.907724,0.14873593417654868,0.0
25.91232,0.1494690424614227,0.0
25.916908,0.15134595462223593,0.0
25.921496,0.1464380867929315,0.0
25.926092,0.1433290878589228,0.0
25.93068,0.1430405769820033,0.0
25.935288,0.152235149438145,0.0
25.93988,0.16004154859005618,0.0
25.944468,0.16376147109479325,0.0
25.949064,0.1617182327712062,0.0
25.953656,0.16184041748535188,0.0
25.958252,0.1635171016665019,0.0
25.96284,0.16735920888538466,0.0
25.967432,0.16621540500944545,0.0
25.97202,0.16315054752406488,0.0
25.97662,0.15750957140988642,0.0
25.981212,0.15276802974335585,0.0
25.985804,0.14855936838203604,0.0
25.9904,0.14471726116315334,0.0
25.994992000000003,0.1409973386584163,0.0
25.999584,0.1324136897730029,0.0
26.00418,0.12346348674515256,0.0
26.00878,0.11631215261259788,0.0
26.013368,0.1158234137560152,0.0
26.017956,0.10969369878525405,0.0
26.022548,0.10344179910034725,0.0
26.027136,0.0937143463389947,0.0
26.031724,0.08897280467246409,0.0
26.036312,0.0824323941106378,0.0
26.040896,0.08218802468234647,0.0
26.045488,0.07965604750217674,0.0
26.050072,0.08096617754088976,0.0
26.054668,0.08305355731310494,0.0
26.059256,0.08681762126647018,0.0
26.063848,0.09135893495333758,0.0
26.068436,0.09925361700250504,0.0
26.073028,0.10522724544223117,0.0
26.077632,0.10850257053901369,0.0
26.08222,0.11537563342638764,0.0
26.086824,0.12134926186611374,0.0
26.09142,0.13320823584830963,0.0
26.096008,0.14927587119182528,0.0
26.100604,0.16738674485892796,0.0
26.105184,0.18345438020244367,0.0
26.109788,0.20222031888890288,0.0
26.114368,0.21702196564233367,0.0
26.118968,0.227492766320299,0.0
26.123548,0.23346639476002512,0.0
26.128152,0.23878495818039466,0.0
26.132744,0.239972903504962,0.0
26.13734,0.24753493322858183,0.0
26.141932,0.2528976380975796,0.0
26.146524,0.26122349500128983,0.0
26.151116,0.2806176536002819,0.0
26.155708,0.3202407845338082,0.010405307946849865
26.160308,0.3819697999626821,0.02005384716003268
26.164904,0.46592688460104903,0.029352046110759623
26.169492,0.5751327544856615,0.03821188394253126
26.17408,0.702436075483965,0.04695834561259325
26.178664,0.8559317576247898,0.05546762803924903
26.18326,1.0291235317949383,0.0639940859136632
26.187848,1.2216448438519731,0.07253491836580549
26.192448,1.434106617366623,0.08103831851264887
26.197028000000003,1.6653209070143198,0.08957531104969617
26.201608,1.9208065041950975,0.09803017405028903
26.206200000000003,2.205304950575485,0.10638043957935357
26.210784,2.520370745622488,0.1146522846041422
26.215368,2.864371346603585,0.12285061129674814
26.21998,3.2373067535187756,0.13099940425358653
26.224568,3.6373780974727628,0.13911081068125272
26.229156000000003,4.0595553259221,0.14716885036626787
26.233748,4.505905339375522,0.1551092462832896
26.238336,4.963160511283126,0.16295017556895552
26.242944,5.420340822846885,0.17062444454943634
26.247544,5.855038456141121,0.16785082717121624
26.252136,6.266275933452668,0.16579294240098616
26.256724,6.654752461249511,0.16407814134403506
26.26132,7.0213335721624075,0.16279933907892538
26.265908000000003,7.366097309456879,0.16164353185181615
26.270508,7.684790870322972,0.16072891860566682
26.275088,7.984521447444616,0.1597330702678959
26.279688,8.258215749954775,0.1587312090281006
26.284272,8.50963784180681,0.1577386431715045
26.288864,8.743817775544175,0.1566711816059368
26.293452,8.952416271709748,0.15568788044401574
26.298048,9.140663610826639,0.1547127909621574
26.302652,9.3035297403514,0.15376662116054832
26.307244,9.438194172226943,0.15287356296847257
26.311832000000003,9.548132459529711,0.15198821492268982
26.316428,9.635021286440859,0.15108993076667096
26.321016,9.69968204414251,0.15020272343235613
26.325612,9.737461473865391,0.14943754601900758
26.330204,9.764026754993697,0.14869994003930784
26.334796,9.774201988084677,0.14817712462477903
26.339388,9.7839326237677,0.14770553894401167
26.34398,9.792563597023417,0.14728367226617733
26.348572,9.802871254460282,0.14684955782635462
26.353160000000003,9.811868781858434,0.14641239900785605
26.357752,9.82573003563726,0.1459152842822507
26.362336,9.840612908577882,0.14540345998972032
26.366924,9.853863238785982,0.14493660135408806
26.37152,9.874064675146972,0.14440989893358724
26.376104,9.890179634860788,0.14393923482952248
26.380708,9.903596291231661,0.14349692263706518
26.3853,9.919833435659624,0.14302302293252322
26.3899,9.92532150816444,0.14268488092399342
26.394496,9.931098091546177,0.14236643175419342
26.399088,9.938184804966626,0.14205236415177352
26.403684,9.944249899225282,0.14175346398872316
26.408272,9.94467401736976,0.14151665550688028
26.412872,9.937003225485405,0.1413563323023726
26.417452,9.932930171391645,0.14116153949871071
26.422052,9.919007479822385,0.14108954763873768
26.42664,9.914690056300332,0.14090529241253846
26.431236,9.911882990796652,0.1406854041310627
26.435816000000003,9.91058628331135,0.1404299182615315
26.440412,9.908390141378401,0.14018318952925357
26.445016000000003,9.908359422483185,0.13990409791919473
26.449608,9.905630400245025,0.13965127083012016
26.454212,9.904167366596951,0.1393745984454665
26.458804,9.901804898501227,0.1391064401877479
26.463396000000003,9.894334334596536,0.13890572075135774
26.467988,9.895569604291406,0.1386059514282581
26.472576,9.899503177329219,0.1382827572069797
26.477164,9.904336184814678,0.1379530725972448
26.481752,9.918407906204907,0.1375333488547961
26.486344000000003,9.930680758699841,0.13713039234634217
26.49094,9.940255307851832,0.13675041987558934
26.495532,9.948930422556174,0.1363788421514247
26.500128,9.962224894212902,0.13596242727290694
26.504708,9.986024068364483,0.13543484781483162
26.509300000000003,10.009290362210853,0.13490207668161336
26.513888,10.040485239923282,0.13427427184563162
26.518476,10.066405695663969,0.13369257917478602
26.523084,10.090649467223507,0.13312175047329872
26.527672000000003,10.113993804335395,0.13255974905756496
26.53226,10.138848499465661,0.1319667418764113
26.536848,10.162148695128922,0.1313817112005934
26.541436,10.185693260220475,0.13078931040450378
26.54604,10.208338390864379,0.13020679544543176
26.550632,10.232616064240805,0.12958900801726722
26.555224000000003,10.262368387568635,0.12889695825112632
26.559816,10.284680865886992,0.1282757680023286
26.564416,10.304417225576552,0.12767299369243093
26.569004,10.319778597742017,0.12710101149993944
26.573604000000003,10.329621178507448,0.12657780266405852
26.578188,10.34036319372053,0.12604805702426589
26.582788,10.359811042533167,0.12543501582857355
26.587376,10.382856629136397,0.12479798288656853
26.591968,10.405780031025484,0.12416895037902212
26.596556,10.422818087372098,0.12360384104513561
26.60114,10.439245220147985,0.12306450033539945
26.605732000000003,10.455550168209726,0.12253379990812999
26.610324,10.471732931557323,0.12200808456732841
26.614912,10.491146878553073,0.1214727402947164
26.6195,10.511215890568181,0.12094140177077327
26.624088,10.527320610650259,0.12045029105333281
26.628672,10.542159342142249,0.1199806049469697
26.633268,10.5550770200248,0.11952926196501579
26.637848,10.570815185964442,0.11905735622654119
26.642444,10.58222250582862,0.11863888345602407
26.647024,10.58672286098853,0.11828735741791038
26.651616,10.596864192262622,0.11789089878946395
26.656204,10.60676115410842,0.11750394003710585
26.660792,10.62115528819246,0.11708775625139536
26.66538,10.63861427976188,0.11664009736384877
26.669968,10.65517383688365,0.11619889568259076
26.674556000000003,10.66392699485351,0.11583095338520896
26.679152,10.668060795870984,0.11549750966099658
26.683744,10.66961847825966,0.115176672565656
26.68834,10.671953410381843,0.1148548894483514
26.692928,10.676331580827608,0.1145133027706326
26.697528,10.676745459340346,0.11420858735333973
26.702108000000003,10.677281522567231,0.11389899984768254
26.706712000000003,10.67511928245117,0.11360652563801364
26.711292,10.675122465372842,0.11328981014813197
26.715888,10.679500635818611,0.11295043102658167
26.72048,10.68490042542617,0.11260106005646195
26.725076,10.692221268643172,0.11223681868006431
26.729664,10.696477254374793,0.11190410344679591
26.73426,10.70559696648709,0.1115310875881967
26.738852,10.72113490444707,0.11111662669621464
26.743444,10.73180911602637,0.11074362431491516
26.748036,10.740684458710376,0.11038019283004916
26.75262,10.749437616680236,0.1100234369097356
26.7572,10.756924786060011,0.10968654577237044
26.761792,10.76903131239217,0.10932136614215572
26.766388,10.780360588990828,0.10895554379941866
26.770976,10.793610919198928,0.10857514194828312
26.775576,10.808537933588177,0.1081893697702162
26.780164,10.822687698243923,0.10780440624706841
26.784756,10.832462475375578,0.10744032050294856
26.789344,10.84542429470676,0.10704350095309918
26.793932,10.861206602095027,0.10662893581920337
26.798528,10.879520886663467,0.10617889634931363
26.803116000000003,10.894892498460672,0.10575398518578903
26.807704,10.909853414666813,0.105318232126187
26.812296,10.927757003644183,0.10486192472297494
26.816888,10.944638973459762,0.10441625087054604
26.821492,10.961765312703635,0.10396264025401737
26.826072,10.976970598338067,0.10352448162296328
26.830668000000003,10.993564057276727,0.10306858428166334
26.835244000000003,11.016042861757857,0.10257094645302288
26.83984,11.043629762047953,0.1020308211811506
26.844428,11.065820055652162,0.10151695681292121
26.849028,11.08837690339881,0.10099132750123321
26.853616,11.10361609085013,0.10050540918306354
26.858208,11.124618439129772,0.09998245911569997
26.862804,11.143699733799973,0.0994724743022676
26.8674,11.162781028470175,0.09896353007683058
26.871988,11.184027746178108,0.09843483522383424
26.876584,11.209116571104927,0.09788184137410559
26.881176,11.232406527136447,0.09733881771004045
26.885768,11.255818667882115,0.09679552213734599
26.89036,11.276698831447613,0.09628740010714922
26.894948,11.297701179727255,0.09577526987539223
26.899536,11.314983605502162,0.09528360373639456
26.904132,11.328790478200622,0.09480530132360793
26.908724,11.341042851432078,0.09432623699949973
26.913308,11.352640159644176,0.09384319614005543
26.917900000000003,11.362805153103416,0.09335507574867881
26.92248,11.366551920714974,0.09289831684250469
26.927072000000003,11.365024266354792,0.09246039295571445
26.931668,11.364273861728112,0.0920254795191037
26.936256,11.36953098735805,0.09154911678213572
26.94086,11.372989244092691,0.09107961880510936
26.945448,11.380411792760361,0.09058330150845925
26.950052,11.383214984475645,0.09010923708267017
26.954644,11.390881902571609,0.08960743026561607
26.959236,11.398915374810006,0.0890941882432755
26.96384,11.404006174277171,0.08859936409385584
26.968432,11.408075354582543,0.0881131129249737
26.973028,11.417008261268586,0.0876013770122074
26.977608,11.424142299059337,0.08709775665763904
26.982208,11.43176507570667,0.0865779216539369
26.986796,11.443474329001175,0.08603216502867049
26.991396,11.461723992857507,0.0854598808960178
26.995984,11.480750906447343,0.08488984842494142
27.000584,11.499533450608887,0.08432713445170474
27.005176,11.51999267895158,0.0837644194797452
27.009772,11.544171829799012,0.08318862538483052
27.014364,11.56786224178986,0.08262723568009765
27.01896,11.59094173020998,0.08208544275561522
27.023556,11.609157492249425,0.08157103760898753
27.028152,11.625985080984638,0.08107808028826106
27.032732000000003,11.646532592224588,0.08057226107412511
27.03732,11.666058484302745,0.08007409765126945
27.041908,11.687383245276198,0.079571479903295
27.046496,11.703966464583122,0.07909099315658065
27.051076,11.721326933623542,0.07861379083130239
27.055668,11.740486271559263,0.07813207591021967
27.060264,11.761566663104425,0.07764407539932221
27.064844,11.77471847078353,0.07719929951795299
27.069432,11.787503724320196,0.07676715204939603
27.074016,11.800821858162074,0.07634499698707121
27.078604,11.81083076509028,0.07595083492846375
27.083196,11.815853760923664,0.07558449892726746
27.087788000000003,11.816013030376373,0.07523931501162638
27.092388,11.819359342028608,0.07487271688925182
27.096984,11.817841927300165,0.07452752443215777
27.101572,11.811338601476901,0.07420789246448438
27.106168,11.808799567586664,0.07386839951313844
27.11076,11.808425956734164,0.0735131859743279
27.115368,11.809973399491103,0.07315000103167583
27.119948,11.809966342781035,0.07278353703441498
27.124548,11.806117178852089,0.07243268705672781
27.129136000000003,11.805987937427876,0.07207152145742222
27.133736,11.807535380184815,0.07171148637060992
27.138328,11.808960638227608,0.0713545094305024
27.142928,11.810385896270402,0.07099857463810387
27.147512,11.813732207922635,0.07063647219557817
27.152108,11.812092608480048,0.07029794607325654
27.1567,11.814417300970488,0.0699407713927083
27.161296,11.815187493993923,0.06957925335620606
27.1659,11.819144729216886,0.06919932125022943
27.170496,11.822569084134635,0.06881003667840635
27.175084,11.82611562376653,0.06841688282976614
27.17968,11.83746856255034,0.06799295313547915
27.184268000000003,11.85037600080115,0.06757593539276954
27.188856,11.87223364207981,0.06712161321426505
27.193444,11.897033956129706,0.06665570747578682
27.198044000000003,11.923877508503194,0.06618296939169055
27.202632,11.952764299200265,0.0657028576531898
27.207232,11.984715947382716,0.06521091871089955
27.211824,12.019365898908111,0.06471769525688364
27.216412,12.056958523204742,0.06421503661863279
27.221012,12.090709040282487,0.06372705069596608
27.225604,12.122127808159728,0.06323400540743118
27.230188,12.157633052684142,0.06272391691844041
27.234784,12.192361047475053,0.06221374202191212
27.239372000000003,12.225656727513107,0.06169802044171991
27.243976,12.262139449750686,0.061165329324045475
27.248564,12.300909779740145,0.06061993116112721
27.253176000000003,12.340701728891394,0.060070938246828395
27.257768,12.377673189985558,0.05953193342996392
27.262356,12.414522466365579,0.05899768011298003
27.266944,12.450838862440387,0.05845450086726155
27.271536,12.480614847953367,0.05792557382137654
27.276132,12.509980137875285,0.05738762942146596
27.28072,12.527819106140555,0.05687992130054873
27.28532,12.545902443834112,0.05636667659673069
27.289912,12.555646502070552,0.05586615602349578
27.294504,12.557706345869223,0.0553835983246684
27.299088,12.551426910210774,0.05491254474148716
27.30368,12.536686010381054,0.05445513385517146
27.308276,12.514383080827717,0.05401010419796785
27.312872,12.489504032645584,0.05356116109682971
27.31746,12.458495269492683,0.053132970038528
27.322048,12.421723345511463,0.052716447459546116
27.326652000000003,12.37636777264483,0.05231402611708692
27.331252,12.32296143119799,0.05193576912069239
27.335844,12.262770309761038,0.05157085781329844
27.340436,12.192485181420293,0.0512377285675265
27.345028,12.117214141984729,0.050916794410081116
27.349612,12.031316215340162,0.050616088075670765
27.354204000000003,11.938633508705479,0.050327668675366595
27.358796,11.840598336833535,0.05006157547477802
27.363388,11.740275557209715,0.04980636243637615
27.367968,11.625239413729718,0.049585533466275866
27.372568,11.504972989726609,0.049384313015660715
27.377148,11.373713124372063,0.04921453618641594
27.38174,11.240698531570848,0.04906798996248966
27.386328,11.103719646836606,0.048929690299313794
27.39092,10.963309350474548,0.04881095732449337
27.395524,10.821633065522402,0.04870046797480164
27.400112,10.680489660875468,0.04859829796445585
27.404712,10.530273868486537,0.048526098344229135
27.409308000000003,10.378259207202312,0.048450872669046366
27.413896,10.220359200375617,0.048388294470061655
27.418488,10.064135877730072,0.04832585087981557
27.42308,9.907790370370382,0.048264908729457684
27.427676,9.750423243848896,0.04820413660456406
27.432264,9.591012879003824,0.048151302725720636
27.436864,9.428659841387516,0.04810378029668324
27.441452,9.2699045415618,0.0480538945026007
27.446052,9.108084384250704,0.04801625656777281
27.450636000000003,8.94152268527308,0.0479873763694639
27.455228,8.768176206305336,0.04797745370643482
27.459812,8.596384226804595,0.047979357388071145
27.464404,8.430599777560472,0.0479545997982551
27.469012,8.266081316906433,0.0479124606787805
27.473608,8.099231107051889,0.04785221386831503
27.478208,7.933158146930845,0.047794919849039
27.482804,7.766185752362153,0.04773615498343262
27.487396,7.597170119469875,0.04768738269656567
27.491988,7.422513510463418,0.04764894795822258
27.496568,7.2537422469994315,0.04758539780375614
27.501156,7.08256119106942,0.04755252584145136
27.505748,6.910358515977615,0.04752340515760396
27.51034,6.735213168114575,0.04750315670355422
27.514936,6.559046201089742,0.04748714007944308
27.519524,6.380591626313031,0.04749829745291211
27.52412,6.1994387481933755,0.04751365070938066
27.528708,6.01522101258834,0.047554417312990566
27.533304,5.8280606042120695,0.04761213380317676
27.537892,5.643842868607033,0.04765542073503215
27.542472,5.464366674668527,0.04768328445880067
27.54708,5.291675260720139,0.04767748059102415
27.55166,5.123070323418926,0.04763578462233256
27.556264,4.952299963079979,0.04761089055975584
27.560864,4.782839732779746,0.047622899914245634
27.565452,4.615056186660665,0.04763449176291269
27.570048,4.447150455827436,0.04765973030453345
27.57464,4.282964647498944,0.047670893968161474
27.579236,4.120822077494038,0.04765924213621795
27.583816,3.9644426683174583,0.04760760837716816
27.588408,3.8060200208172903,0.047566150400717884
27.592996,3.650906600230795,0.047461572358612536
27.5976,3.495426625501862,0.047405235073298906
27.602188,3.3406017157922863,0.04738616448074947
27.606776,3.183733567759123,0.04741118746084596
27.611364,3.0320957002490734,0.04731764160516364
27.61596,2.8896965466437936,0.04718561634907255
27.620548,2.7540821730286313,0.046970905408845375
27.625144,2.6194894185752626,0.04672150628742859
27.629728,2.486695533017189,0.04642949068235934
27.63432,2.353901647459116,0.04608059448106034
27.638908,2.2199639580251036,0.04571132119975292
27.643496,2.0856597144486546,0.04535784728240915
27.648084,1.9532765244816461,0.04299627201735796
27.65268,1.8238360072858733,0.040610717552891105
27.657264,1.6940289359476632,0.03823920364028048
27.661856,1.568841221561838,0.03585504679262423
27.666456,1.4425097033000736,0.03348614228203518
27.671044,1.3195315534006093,0.031134282888174283
27.67564,1.1999067718634449,0.028816454736469873
