Time,Force,Position
32.276332,0.14700195942640326,0.0
32.280912,0.13343239944616797,0.0
32.285508,0.11974065475178702,0.0
32.2901,0.11271150533337802,0.0
32.294692,0.10899158282864094,0.0
32.299276,0.09950849949557974,0.0
32.303876,0.09206865448610559,0.0
32.308468,0.08450662476248576,0.0
32.313064,0.07409772312647257,0.0
32.317652,0.0629115717569572,0.0
32.32224,0.055593911461628724,0.0
32.326844,0.05518321587056355,0.0
32.331436,0.05387308583185055,0.0
32.336024,0.05448400940257891,0.0
32.340608,0.055339302401598595,0.0
32.345196,0.056316780114763966,0.0
32.349796,0.06330178808454481,0.0
32.354384,0.06950954632082346,0.0
32.358976,0.08052937152756501,0.0
32.363568,0.0906497622866587,0.0
32.368156,0.09897128415045671,0.0
32.372748,0.1057119226919462,0.0
32.377336,0.11130875735749649,0.0
32.381932,0.11510672312775108,0.0
32.386516,0.11788306973621215,0.0
32.391104,0.12576751215364088,0.0
32.3957,0.13569519289465662,0.0
32.400288,0.14537850420738102,0.0
32.404876,0.1558654491089117,0.0
32.409472,0.16508640542035755,0.0
32.414064,0.1683956323340295,0.0
32.41866,0.16953943620996864,0.0
32.42324,0.17440316259064492,0.0
32.42784,0.17656858562837763,0.0
32.432428,0.1795112583996125,0.0
32.437028,0.18731765755152366,0.0
32.441616,0.19295863366570212,0.0
32.446216,0.20105354369453277,0.0
32.4508,0.19888812065680006,0.0
32.455392,0.1983993818002174,0.0
32.459988,0.20252999989601964,0.0
32.464584,0.20756005243946973,0.0
32.469172,0.21181285524941765,0.0
32.473764,0.21504403889757204,0.0
32.478352,0.21815303783158077,0.0
32.482948,0.2238381553943874,0.0
32.48754,0.22748003463360694,0.0
32.492136,0.2307112182817613,0.0
32.496724,0.23958337804409416,0.0
32.501316,0.2489442766630097,0.0
32.505912,0.26149221748145146,0.0
32.5105,0.2713418549569497,0.0
32.515096,0.2795148082512979,0.0
32.519672,0.28654395766970686,0.0
32.524268,0.2939396612305529,0.0
32.52886,0.2952056498206377,0.0
32.533448,0.29761544228666176,0.0
32.538052,0.29834855057153586,0.0
32.54264,0.3059886235606732,0.0
32.547244,0.3111747626351583,0.0
32.551836,0.31264097920490636,0.0
32.556432,0.3141071957746544,0.0
32.561024,0.31839390040149174,0.0
32.565616,0.3235800394759768,0.0
32.57022,0.3250462560457249,0.0
32.5748,0.31984987733950093,0.0
32.579396,0.3127324450238356,0.0
32.583984,0.3061478930133812,0.0
32.588584,0.29110187683165906,0.0
32.593172,0.27875416399288044,0.0
32.597768,0.26411884340222347,0.0
32.602364,0.25205964144036447,0.0
32.606956,0.23771283172662705,0.0
32.611532,0.228640443984631,0.0
32.616128,0.22087818628134795,0.0
32.620716,0.21503698218750628,0.0
32.625312,0.20703035505593193,0.0
32.629888,0.20159984655315547,0.0
32.634476,0.1967022183555898,0.0
32.639052,0.19695682741561993,0.0
32.643644,0.1969670670473587,0.0
32.64824,0.19775455641259965,0.0
32.652824,0.1942111997023752,0.0
32.65742,0.188135865811981,0.0
32.661996,0.18427009640794767,0.0
32.666592,0.18351332593792305,0.0
32.671188,0.18734201060339398,0.0
32.675776,0.1955559224246973,0.0
32.680372,0.21658262375621135,0.0
32.68496,0.24801232213191193,0.0
32.689548,0.29638542811362545,0.010343934169557749
32.694152,0.36157975698720624,0.019898412815739872
32.69874,0.4419186245715042,0.02925934405949292
32.703336,0.532127608894778,0.03851409889311086
32.70792,0.6347828285858254,0.04765960407470303
32.71252,0.7514387831116509,0.05676620817148319
32.717108,0.8863482752822023,0.06571441457313835
32.721708,1.0387340553639774,0.07443137666479534
32.726288,1.2106393616805635,0.0828747823465929
32.730888,1.3929476650413362,0.09132793391853207
32.73548,1.5947754946369197,0.09966318427107065
32.740076,1.8142017968578723,0.10789904021833834
32.744664,2.055435233065514,0.11601853528561923
32.749256,2.3175763688121975,0.12406702484971123
32.753844,2.6008695735262144,0.13199065652129843
32.75844,2.901184229111762,0.13985095720850854
32.763028,3.2121360115380497,0.1476872226501316
32.767612,3.5333481270309015,0.15541972741092575
32.7722,3.8560603609103907,0.16304402780873795
32.776796,4.169190988927823,0.17066924218884272
32.78138,4.466810524092102,0.1679760345880669
32.785972,4.749285520545663,0.16604767012445595
32.790564,5.022134769688539,0.1642548069339218
32.795152,5.283315033197145,0.16255741162662238
32.799748,5.53307068049977,0.16093834287092898
32.804336,5.774710938510087,0.15926812670726076
32.808912,5.9997302016082,0.15772688259993134
32.813508,6.203142558699287,0.15643903976228762
32.818096,6.380861533136174,0.15548737726779518
32.822684,6.549565683833104,0.15444115716220644
32.82728,6.7001384815994545,0.15349807108581034
32.831872,6.829881623092282,0.15267654880211184
32.836476,6.94006109690167,0.1519391542975802
32.841064,7.036562248570088,0.1511580988631132
32.845656,7.110434875069686,0.15050107544551594
32.850236,7.1686300825533555,0.1498589462670775
32.854836,7.216177923564547,0.14916678342410847
32.859412,7.248258813171212,0.14855085172417362
32.864012,7.268025891755987,0.14801967403860955
32.868596,7.287049622424149,0.14741127361413464
32.873188,7.306640135214411,0.1467271817401321
32.87778,7.322833138193746,0.1460397339506319
32.882376,7.333341023610273,0.14540375209942713
32.886976,7.342905333130524,0.14474261715496267
32.891572,7.3469067098021155,0.1441205123290848
32.896164,7.344445719177399,0.1435527437328375
32.900756,7.343006347714473,0.14296745829453955
32.905336,7.347330137079873,0.14229218529829316
32.90992,7.357539271987743,0.14151547362008082
32.9145,7.359653496866781,0.14084439638897406
32.919084,7.359968852850524,0.14019505680345198
32.92368,7.365803000234301,0.13947055521332208
32.928256,7.372947277656791,0.13875376572121123
32.932852,7.3746169051278745,0.1381549474164203
32.93744,7.378496097085319,0.13754989224102143
32.942028,7.380742746310242,0.1370003365570838
32.946632,7.379435799193202,0.13653525183753784
32.95122,7.378295178238936,0.13610104536946316
32.955828,7.383616924580979,0.1356246427136372
32.960408,7.38783900849571,0.1352144068112569
32.964996,7.395047906630306,0.13480049305803884
32.969588,7.403078195947029,0.13442143148459287
32.974184,7.413562419178406,0.1340253432289659
32.978784,7.425478957162642,0.13363193968816034
32.983372,7.44680053521442,0.1331570310816057
32.987972,7.467799700572392,0.13274060880070065
32.992564,7.4863890734643395,0.13238059001728186
32.99716,7.5017914041567595,0.1320816840576086
33.001744,7.516827180706744,0.13180545555455697
33.006344,7.5379146289619685,0.1314737588540638
33.010936,7.564520868617229,0.13107875046583348
33.015532,7.589328239377193,0.13070814804613062
33.020116,7.61515722929895,0.13032483867578018
33.024712,7.640331154201351,0.12993640997454892
33.029308,7.670490990198575,0.12947938693300834
33.033908,7.705226041699554,0.12893724867847584
33.0385,7.745313558437792,0.12830835441525126
33.043092,7.791164236004354,0.12761195769103387
33.04768,7.83071887243738,0.1269845755672421
33.052264,7.871661682174639,0.12632737012953668
33.056856,7.908473873816096,0.12570125711307187
33.061448,7.948961846513661,0.1250032602997827
33.066044,7.989694188639516,0.12429746604758701
33.070636,8.029116400726657,0.12358899203364532
33.075228,8.060033007193908,0.1229458415493832
33.079808,8.096424263612557,0.12221549119309842
33.084404,8.137146366106673,0.12141944265965823
33.088992,8.17847939217152,0.12059507635100238
33.09358,8.220301157092948,0.11975101755241266
33.098176,8.257992303918572,0.11893180281004714
33.102764,8.291552832648396,0.11814074883269722
33.107352,8.323558861911216,0.11735588254831086
33.111948,8.352089338097588,0.11659821607830916
33.116536,8.383562487055197,0.11580677904481158
33.121132,8.406696356555685,0.11509974676998144
33.12572,8.424966499675493,0.1144539871054869
33.130312,8.437351297252835,0.11388015851653943
33.134904,8.445361107306082,0.11334124891905996
33.139504,8.457457394006504,0.11275124167711019
33.14408,8.46709974679227,0.11217280151204341
33.14868,8.474698861254451,0.1116186672970879
33.153276,8.47539101101237,0.11114334190020078
33.157868,8.473140487999054,0.11070051757360433
33.162444,8.470645595557448,0.11027002066912746
33.16704,8.469827387296988,0.10983046115877483
33.171628,8.462468768474704,0.10945085138420502
33.176224,8.452411846309477,0.10909210434596191
33.180812,8.442232739430105,0.10873900927493545
33.1854,8.42935532920779,0.10840478416879093
33.18998,8.419298407042561,0.10804489440121381
33.194572,8.410018734610837,0.10768398690344504
33.199168,8.400739062179113,0.10732233168651205
33.203756,8.391337205033242,0.1069651586523571
33.208348,8.381035913439723,0.10661437966838135
33.21294,8.375476163512735,0.10621991563649268
33.217532,8.369139163852244,0.1058248286611922
33.222124,8.366766456124783,0.1053879897428211
33.226712,8.36271706421617,0.10495708726039346
33.23132,8.35584718425047,0.10455068122173482
33.235908,8.34758913098054,0.10417230426990579
33.240512,8.344972053824785,0.10374700064068201
33.2451,8.347995952783211,0.10327423393313513
33.249696,8.356127947550606,0.10274494158477585
33.254292,8.364259942318,0.10221670561787642
33.25888,8.373047002104748,0.10169438966852345
33.263488,8.386575603558029,0.10113294132911234
33.26808,8.398838216421225,0.10059516948423736
33.272672,8.411755894303775,0.10006517722028645
33.27726,8.428149125262774,0.09952031534568982
33.281864,8.443398552345833,0.09899442608596623
33.286444,8.459425229162393,0.09847106106663385
33.291044,8.481747947112487,0.09791596480767151
33.295628,8.509833825890906,0.09731647971337407
33.300228,8.53755315052689,0.09673556785277669
33.304824,8.562451987105783,0.09617707281714052
33.30942,8.589926942313474,0.09561042997024943
33.314004,8.61638027835937,0.0950593008246361
33.318596,8.647330786643508,0.09448755075003847
33.323188,8.678036925499354,0.09392746768359367
33.32778,8.714750594611814,0.09331542954150736
33.33236,8.747866525933684,0.09272692790293689
33.336948,8.780327392236197,0.09213740629872268
33.341536,8.809967770481622,0.09157262351569906
33.346132,8.8394859640129,0.09101500560921173
33.350724,8.872557753886142,0.09041205930579244
33.355312,8.899866382931059,0.08985186569762274
33.359904,8.927419381404267,0.08928156418554026
33.364492,8.953540065124617,0.08870596301068663
33.369084,8.978106249377962,0.08813182702678032
33.373672,9.004304976363827,0.08752549047358225
33.378252,9.027927584720896,0.08692733938722227
33.382844,9.042555848601486,0.08637204288931691
33.387432,9.051010256062687,0.08584107018215688
33.39202,9.061874455989912,0.08527896377225952
33.396616,9.079523435907252,0.08467404319066986
33.4012,9.095617916357588,0.084067949258038
33.405804,9.107093039855542,0.08348449985929751
33.4104,9.111783383363376,0.08294687278741021
33.415004,9.119538584356594,0.08238493151576741
33.419592,9.12075337478798,0.08185904227986386
33.424192,9.12311196909531,0.08132007833637178
33.42878,9.121750640897902,0.08079923622064071
33.43338,9.121410931862286,0.08027145509547441
33.437968,9.121682146397399,0.0797193168023434
33.442568,9.116068015390043,0.0792067634598293
33.447164,9.116217045211013,0.0786602725215019
33.451756,9.116366075031978,0.07811344290971514
33.456352,9.115493485691154,0.07757377856994085
33.460944,9.114743081064475,0.07703000824212924
33.465544,9.11440337202886,0.07650577808124
33.470136,9.116639781622048,0.07597827995340314
33.474716,9.12055287539638,0.07544781301690398
33.4793,9.128596587266518,0.07491914456693863
33.483892,9.130754953594185,0.07442633157523405
33.48848,9.125229105484086,0.07397580932592637
33.49306,9.11933670323155,0.07353947210774413
33.497652,9.117164223483753,0.0730867071045876
33.502248,9.119977654830777,0.0726007757998161
33.506828,9.120992217282504,0.07212163257512283
33.51142,9.124827267791321,0.07162976240329043
33.516008,9.126374710548259,0.07116208998874714
33.5206,9.129721022200492,0.07068864401509382
33.525208,9.127959238043758,0.07025047630926905
33.529796,9.125830899744589,0.06982765678411101
33.534408,9.12730029923601,0.06939580787588152
33.538996,9.125949210670342,0.0689763042675288
33.543584,9.126519175714115,0.0685483784847481
33.54818,9.130442509120188,0.06812260775037605
33.552768,9.134898722831473,0.06771067460634438
33.557372,9.137556067647461,0.06730413653488844
33.561968,9.13955834744409,0.06689092741705042
33.566564,9.144503300011957,0.06646300130728747
33.57114,9.144951080341587,0.06604410110347811
33.57574,9.149240967890096,0.06560750569839602
33.580328,9.157250777943341,0.06515917621741461
33.58492,9.169347064643762,0.0646870933923575
33.589512,9.185285458563069,0.0642026234357983
33.594108,9.200324418034727,0.06372191112676434
33.5987,9.216140627239884,0.06324644998018435
33.603292,9.234410770359696,0.06277895476024963
33.607896,9.256645205412536,0.062293342040043866
33.612488,9.285542235741344,0.06178941583109878
33.617088,9.322123480507921,0.06125841921222495
33.621684,9.358460355846209,0.06073862855461042
33.626276,9.395696665632142,0.060221695812719016
33.630868,9.433710225151577,0.05970986852109876
33.635456,9.472501034404514,0.059205808174670846
33.640044,9.509082279171091,0.0586897786990445
33.644632,9.543087405308873,0.058173902274647686
33.649224,9.576193096999,0.05766075039958257
33.653816,9.609176603974985,0.05715455095477919
33.658396,9.640116872627384,0.056661303366924216
33.662996,9.677719736555755,0.05615155922311307
33.667576,9.719286892417154,0.05563048014040811
33.672172,9.755090887450226,0.05512702657380274
33.676764,9.783210668045534,0.05464832610083506
33.681352,9.804545668650725,0.0541943034336733
33.685956,9.825636299827627,0.053750684368109376
33.690544,9.842351943480432,0.053305844767571726
33.695132,9.850850492390261,0.052869840778144855
33.699728,9.855262564652921,0.05245421356145371
33.70432,9.848026130544785,0.05207541867787308
33.708916,9.833227666713025,0.05171314815844628
33.713512,9.813032596195383,0.05135099918122017
33.718104,9.786174930401765,0.05100319250699776
33.722692,9.755475157389263,0.050663768281797715
33.727292,9.716313920205497,0.05033802431451972
33.731872,9.671678033070323,0.05004641823093098
33.736472,9.623855103735625,0.049770599445524574
33.741064,9.573866751363195,0.049506355832603315
33.74566,9.516194184552997,0.04925856199804948
33.750244,9.454801695238064,0.04901282593375525
33.75484,9.383681753161778,0.04879305423763127
33.759428,9.29976950083876,0.04861242950196662
33.764024,9.21675668296339,0.04842860517743149
33.768608,9.134398930107373,0.04825085943939288
33.773204,9.050897373375419,0.048079713954530284
33.777796,8.960611036653345,0.04792478548780288
33.782384,8.865505114999227,0.0478150041154549
33.786972,8.77285312725976,0.04771183911959599
33.791564,8.674560163406113,0.04761633799150904
33.79616,8.57818825316191,0.04751329300635787
33.800748,8.477729866270533,0.047427658091436134
33.80534,8.379725413293807,0.04734903294516517
33.80992,8.279555537279348,0.04728393173306445
33.814516,8.176442988493655,0.047226881723089816
33.8191,8.076805992784406,0.047172699460973334
33.823692,7.976513932055801,0.047106918002064714
33.828284,7.875200252165403,0.0470447960068186
33.832872,7.7669796075707405,0.04700897294895905
33.837472,7.66517718882376,0.046965579139904345
33.84206,7.56276384650605,0.04694866024577317
33.846648,7.456264027541166,0.046955142025993296
33.851244,7.352584696633372,0.04695683938124557
33.855828,7.246984312116137,0.046961570915146
33.860424,7.138441254827665,0.04697779091432421
33.865004,7.025034471158517,0.04701275221383882
33.869604,6.912527121937019,0.047048196251270887
33.874192,6.803451184343336,0.047048578279520956
33.878792,6.687834836187829,0.04706088822203014
33.883384,6.574017356927618,0.04707339113596577
33.887976,6.457135020182026,0.04710439076270842
33.892564,6.34229592176002,0.04712232322438172
33.89716,6.2236147161191315,0.04715367559783729
33.90176,6.105055695192389,0.047179650344984184
33.906356,5.98751829342744,0.04719730472376947
33.910944,5.863562665814811,0.047219853448430174
33.91554,5.743326960706918,0.047230836026401254
33.920128,5.625012309208468,0.0472327723585542
33.924712,5.509884699909542,0.04720655162920829
33.929292,5.3879723106204995,0.04720990808521554
33.933888,5.262462183540865,0.04721951814718077
33.93848,5.141937967556053,0.047199692684103796
33.943068,5.017571644352359,0.047199787485132635
33.94766,4.892061517272726,0.047217373623784815
33.952252,4.7675730093548845,0.04722823209147829
33.956832,4.645372109188922,0.04720089766954901
33.961416,4.521250155413519,0.04718442341530062
33.966,4.396883832209823,0.0471818530863629
33.9706,4.277014681244367,0.047185121303242636
33.975196,4.157267714993058,0.047174230127061144
33.979784,4.035721879846452,0.047168384129808595
33.984392,3.915075479147495,0.04715508006277927
33.988988,3.7946734478768285,0.04711642808412564
33.993592,3.675293035767955,0.04705935399986795
33.998184,3.5556682542307914,0.047024920409939094
34.002776,3.4383752218941335,0.0470422976870551
34.007356,3.3153190287291516,0.047096341818521716
34.011956,3.1864996747358454,0.047203167493718466
34.016536,3.057558136028394,0.04732418012925826
34.021144,2.9291053361775248,0.047382376160660995
34.025736,2.8028179593643885,0.04739574510789326
34.030332,2.6737100944941634,0.047417632594702934
34.034916,2.549465956004614,0.04738681853870694
34.039512,2.4250996328009187,0.047408304393920034
34.044116,2.299833875149577,0.04743028501335834
34.048712,2.1749788130892993,0.047563631862182286
34.0533,2.052944239086111,0.047695177649948864
34.057896,1.9289886114734813,0.04533569098086097
34.062484,1.8025790499461998,0.04296401907786645
34.067072,1.677846172600068,0.0406071163207848
34.07166,1.5577326522063206,0.03823802256066826
34.076256,1.4343099048989019,0.03588494081402563
34.080848,1.3143627106679288,0.033549766769381206
34.08544,1.19597001590396,0.031233658239370906
34.090036,1.079376190035287,0.028904138546465306
34.094624,0.9666244713854966,0.02652416537111026
34.099224,0.859575627891837,0.02412610527433583
34.103804,0.7617654983029472,0.02168534270107479
34.108388,0.6702514098475922,0.019241710361185795
34.11298,0.5856884275451288,0.016843913486283595
34.117572,0.5072993016620547,0.014472914674079164
34.122168,0.4361056513601635,0.012104750969162392
34.126748,0.3692869885823658,0.009769932248398809
34.131336,0.3090087363663944,0.0073726402289568446
34.135928,0.25502652528395797,0.004975553245908971
34.140516,0.20668529031569996,0.002492105067028611
34.145112,0.16284122758568126,0.0
34.149692,0.12541539070334312,0.0
34.154292,0.09506284468804216,0.0
34.158872,0.06830803646333261,0.0
34.163468,0.04515096602921446,0.0
34.168052,0.029678110032861797,0.0
