Time,Force,Position
31.789396,0.08796741465609136,0.0
31.793976,0.09885694207032693,0.0
31.798572,0.1040091793279227,0.0
31.80316,0.10862853628030762,0.0
31.80776,0.11861862924689537,0.0
31.812344,0.12233855175163244,0.0
31.816944,0.12336017091342596,0.0
31.821524,0.12156130201813024,0.0
31.82612,0.12119474787569325,0.0
31.83072,0.12172762818090409,0.0
31.835312,0.1216054434667584,0.0
31.8399,0.1227492473426976,0.0
31.844496,0.1231158014851346,0.0
31.849076,0.12797952786581088,0.0
31.853668,0.12720227813230872,0.0
31.858256,0.12387478044169294,0.0
31.862856,0.11952566358928367,0.0
31.867436,0.11685323091802442,0.0
31.872024,0.1093170718660889,0.0
31.876608,0.09716155586176846,0.0
31.881196,0.08447315955223718,0.0
31.885788,0.07358363213800162,0.0
31.890372,0.06653621194264879,0.0
31.89496,0.058467172585502436,0.0
31.899556,0.04847707961891471,0.0
31.904144,0.04130747470941621,0.0
31.908732,0.036058923409359074,0.0
31.91332,0.03260924100459765,0.0
31.917912,0.026461255256892677,0.0
31.922508,0.020435454223333368,0.0
31.927088,0.015186902923276239,0.0
31.931676,0.009816166909073437,0.0
31.936268,0.0071437342378141925,0.0
31.940872,0.0016508135094657225,0.0
31.945464,0.0,0.0
31.950064,0.0,0.0
31.954656,0.0,0.0
31.959252,0.0,0.0
31.963836,0.0,0.0
31.968432,0.0,0.0
31.97302,0.0,0.0
31.977612,0.0,0.0
31.9822,0.0,0.0
31.986796,0.0010398899387373652,0.0
31.991372,0.004000833486916104,0.0
31.995964,0.007739026768597022,0.0
32.00056,0.007739026768597022,0.0
32.005156,0.007739026768597023,0.0
32.009748,0.007739026768597024,0.0
32.01434,0.007739026768597024,0.0
32.018932,0.007739026768597024,0.0
32.02352,0.007739026768597024,0.0
32.028112,0.007801438994169017,0.0
32.032708,0.007801438994169019,0.0
32.037296,0.007801438994169019,0.0
32.0419,0.009662720115036714,0.0
32.046488,0.014344489292993635,0.0
32.051088,0.019803508204452737,0.0
32.055684,0.023341473506470468,0.0
32.060272,0.02675725409434252,0.0
32.064876,0.03095028441571676,0.0
32.069472,0.03322226112764963,0.0
32.074068,0.036515857001376016,0.0
32.078656,0.03570470545098447,0.0
32.083248,0.03274376190280572,0.0
32.087828,0.029005568621124803,0.0
32.092428,0.029234307009470623,0.0
32.097016,0.03240571816905133,0.0
32.101616,0.034555510166838534,0.0
32.1062,0.039647974935860614,0.0
32.110792,0.04653930860017841,0.0
32.11538,0.05535169587393757,0.0
32.119972,0.060381748417387665,0.0
32.124568,0.07009357013879468,0.0
32.129164,0.07968320714605602,0.0
32.13374,0.0825478366517734,0.0
32.138332,0.08181472836689939,0.0
32.142924,0.08336922783390374,0.0
32.14752,0.08876583451979085,0.0
32.152108,0.09518406036747148,0.0
32.156704,0.0991483523004999,0.0
32.161296,0.11145192369065032,0.0
32.165888,0.12530999454780511,0.0
32.170468,0.14325454205213398,0.0
32.17506,0.1623272623924565,0.0
32.179644,0.18037836357098555,0.0
32.18424,0.2037195177612015,0.0
32.188828,0.22387362975189123,0.0
32.19342,0.25044596759026166,0.0
32.198004,0.27677393600034067,0.0
32.202592,0.3022024699627718,0.0
32.207184,0.32558776560161595,0.0
32.211764,0.3574345254117277,0.0
32.216364,0.3835181243935154,0.0
32.220948,0.40947953866115755,0.0
32.225548,0.44300298265241933,0.0
32.230136,0.47705930694889204,0.0
32.234736,0.5065404157416079,0.0
32.23932,0.5328344823347977,0.0
32.243912,0.5599057986614895,0.0
32.248508,0.5921293522457772,0.0
32.253104,0.6142147574776471,0.0
32.2577,0.6328246096330711,0.0
32.2623,0.6513122770743496,0.0
32.266892,0.6689005100679801,0.0
32.271484,0.6885319813851979,0.0
32.276076,0.6998241732452934,0.0
32.28066,0.7095618656383849,0.0
32.285252,0.7110824632884999,0.0
32.289844,0.7070842695385822,0.0
32.29444,0.6952796766367532,0.0
32.299028,0.6843745181825721,0.0
32.30362,0.6675840141859212,0.0
32.308208,0.6540246938374247,0.0
32.312804,0.6437406985857107,0.0
32.317384,0.6375534196129096,0.0
32.321972,0.6395934750148236,0.0
32.326564,0.6475291155909462,0.008012831348985542
32.331152,0.6652465900087882,0.01615051320865305
32.335756,0.6908248446589086,0.02424964902393771
32.340348,0.7206661417507156,0.03246573997617325
32.344936,0.7674847482654247,0.04035973770736231
32.349532,0.8228192000317684,0.048391663199063996
32.354112,0.8866694970497468,0.05643733187096267
32.358704,0.96071232350051,0.06447357047259414
32.363292,1.0430266257746161,0.07254416374780058
32.367892,1.138476130252742,0.08058341748368719
32.37248,1.2450175986113006,0.08865199998863277
32.37708,1.3639170194403762,0.09670885232788577
32.381672,1.4986499458164149,0.10464724628680566
32.386264,1.6553460927101777,0.11239845582453051
32.39086,1.8205580848555756,0.12018597148368573
32.395452,1.9972285950238426,0.12796757288096078
32.400044,2.180816309528113,0.13573740229418504
32.404636,2.3705778804517714,0.14340385573215297
32.409228,2.5578413760121497,0.1510529957393283
32.41382,2.740230905560114,0.1586663914651738
32.418408,2.9233874452098414,0.1581673030265193
32.422992,3.101870246826816,0.15744036450695056
32.427584,3.27171501847801,0.15673256979501954
32.432176,3.43586443293466,0.15584643741740675
32.436768,3.583036537968407,0.15537099739530486
32.441344,3.7243911010934627,0.15471878506309591
32.44594,3.8572298189668843,0.15403363186212013
32.450528,3.978199323226372,0.15338478222526425
32.45512,4.09024228664316,0.15266663858431934
32.459716,4.1933587092172475,0.15191451268423775
32.464292,4.286404787072695,0.1511403922575752
32.468892,4.367337281885918,0.15042371856063705
32.47348,4.4319033908469665,0.1498801233686072
32.478068,4.481901982851137,0.14947612060677296
32.482664,4.519376296222016,0.14907916217308614
32.487256,4.546003015140754,0.1486719219395518
32.491852,4.56039396630312,0.14832094354861117
32.49644,4.565047225072394,0.14805693619733182
32.50104,4.563971224830234,0.1478143092618935
32.505628,4.555655607558261,0.14767470275077854
32.510228,4.540633253561689,0.14765216870909312
32.514808,4.52021429287923,0.14775031055094207
32.519408,4.501061320786857,0.14778649544370592
32.524,4.477044622313805,0.14796143542674287
32.528596,4.460834322992666,0.14791143741549892
32.53318,4.443191708918668,0.14786257391660204
32.537772,4.423994595377666,0.14782844759720137
32.542364,4.407495785179606,0.14773432673542258
32.546956,4.391652040000904,0.14764233717792052
32.551548,4.375319555965618,0.14759552842500728
32.55614,4.36078594082563,0.1475091143612134
32.560732,4.354469420428615,0.1472370410008414
32.56532,4.353182952575052,0.14688490516688477
32.5699,4.35128556115076,0.14659216855686766
32.574492,4.3551954720034205,0.14621263935755816
32.579084,4.361314947342442,0.14582473853734626
32.583676,4.376062213015507,0.14528698424238393
32.588268,4.389176935956049,0.14483429716989096
32.592848,4.4034796042211575,0.1444003248080637
32.59744,4.428086747001459,0.14378956529728573
32.602032,4.458623376772858,0.14308965911603952
32.60662,4.4940678743735605,0.1423292980839403
32.611212,4.526980394794093,0.1416822894325335
32.615804,4.56708839079581,0.14088973075336916
32.620404,4.606463278512652,0.1401930164050398
32.625,4.644982873230475,0.1395753026798645
32.629592,4.6858342171488045,0.13894189128763726
32.634184,4.729139494981785,0.13829196133520502
32.638772,4.774121456995917,0.13763099048416805
32.643372,4.817837430419964,0.13702013824937845
32.64796,4.863107903311015,0.13640812682696585
32.65256,4.905435703430831,0.13589349766328593
32.657148,4.946986253817144,0.13539031519732284
32.661748,4.9894362386511055,0.1348711232373434
32.666332,5.032130592913358,0.13434452352068207
32.67092,5.074947131889757,0.13381551077229317
32.675516,5.113510868056207,0.13335958719971783
32.680112,5.161024807250509,0.13270768497463398
32.6847,5.212625223091984,0.13196555310443578
32.689296,5.256497283047065,0.13133919542715297
32.693884,5.296483094334637,0.13074836614478075
32.698476,5.336302579459434,0.13012875087881431
32.703068,5.376855172869105,0.12945046783516373
32.707656,5.4132771481829725,0.12882261707166995
32.712244,5.443525267077452,0.12827922156693627
32.71684,5.4783486014756875,0.12761259275131828
32.72142,5.512761240282859,0.1269284724039464
32.726012,5.545086499317814,0.1262479718301134
32.730604,5.574302759418761,0.125587531394021
32.735184,5.60461868194702,0.12484506450126662
32.73976,5.633868843864856,0.12408226599693108
32.744372,5.660909441296331,0.1233277418106126
32.748952,5.688316592870243,0.12255126447586617
32.75354,5.7164568527290305,0.12172645366900418
32.758128,5.740344309777869,0.12094727720036895
32.762716,5.762022202340346,0.12017122943872675
32.767312,5.78214559543582,0.1194035373916242
32.7719,5.792130840178874,0.11878638230021411
32.776504,5.7959422285025415,0.11824144369950841
32.781092,5.8034735393309465,0.1176440717983795
32.785692,5.809983230997555,0.11706717956697998
32.790272,5.809952512102339,0.11658500405813338
32.794872,5.809022358759474,0.1161135842338996
32.799456,5.808336574844901,0.11562513922054865
32.804044,5.81210382171994,0.11503097212499985
32.808636,5.812273330804387,0.11448439683129508
32.813228,5.810766155707682,0.11395081683883482
32.817828,5.805294688677952,0.11348369517116857
32.82242,5.800478286667578,0.11302305489236872
32.827008,5.794151526638826,0.11261551853839241
32.831604,5.787580397181784,0.11222616287298848
32.836192,5.780887083010595,0.11184527611849795
32.840776,5.773416519105904,0.11146601778293524
32.845364,5.76492433603942,0.11110509152266781
32.84996,5.760274260191818,0.11068874062005264
32.854552,5.75640143407772,0.11027095421588451
32.859132,5.74921938104995,0.10992159040454175
32.863724,5.74371401220333,0.10955878388466193
32.868312,5.744749053918534,0.1091124918566403
32.872904,5.7428414228625035,0.10871276737484276
32.877488,5.743632095149418,0.10828595776318306
32.88208,5.747121070779276,0.10782787399916871
32.886668,5.751387296142635,0.1073689230420796
32.89126,5.756430771239497,0.10691113071449777
32.89586,5.760086073032129,0.10649844287751406
32.900456,5.766317493453558,0.1060704609317305
32.905048,5.774103413341991,0.10564263808771215
32.909652,5.785853625163454,0.10515382184427065
32.914232,5.799524890594356,0.10464246019782908
32.918832,5.815117209634701,0.1041063306400568
32.923412,5.830709528675046,0.10357429022637382
32.928016,5.845035859125306,0.10307558167113606
32.932604,5.8589956354331285,0.1026032140055147
32.937196,5.8755315303697495,0.10211905920244144
32.941788,5.893621924773374,0.10164339932326401
32.946384,5.913389003358149,0.10116360760472437
32.950972,5.940962481094837,0.10058162178707435
32.955564,5.974299119659847,0.0999336499666202
32.960164,6.003427096863538,0.09936439511300371
32.964764,6.0363971812861115,0.09875352534051121
32.969352,6.065402973775658,0.09819801740138791
32.973948,6.097229254322293,0.0976160057938477
32.978528,6.129954969316573,0.09702998424245991
32.983116,6.1637023034726495,0.0964364215171091
32.987704,6.196550203181076,0.09585094319410094
32.992296,6.22502311536541,0.0952978606790082
32.996892,6.253740396978035,0.09473439681769806
33.00148,6.284256547485956,0.09416564977484446
33.00608,6.316693751603319,0.09358639318341128
33.010668,6.352073628491917,0.09298171291882945
33.01526,6.386554070932867,0.09238773037050352
33.019844,6.424465925001635,0.09173480866310241
33.024432,6.463399398232195,0.09107126279878507
33.02904,6.4995123834056665,0.09044006992542954
33.033616,6.531128196340899,0.08984540968693659
33.038212,6.563232748132714,0.08922998836553511
33.042804,6.593660615743378,0.08862950018900687
33.047392,6.622289614458746,0.08804968642580265
33.051988,6.653328405640139,0.0874282311246211
33.056568,6.6829348820686745,0.08680451994650963
33.061168,6.714951150963233,0.0861356798546281
33.065752,6.747089604571937,0.08546761995983818
33.070344,6.781637850646666,0.0847640330417643
33.074932,6.813365608664305,0.08408621306613158
33.079532,6.849179843329118,0.08336811263267808
33.084116,6.886670762175082,0.0826484024666999
33.088712,6.925061115468694,0.08193166555095725
33.0933,6.959853730971713,0.08123921593661511
33.097896,6.9891275550747,0.08058507751177987
33.102492,7.014925826101241,0.07994887828867868
33.107088,7.041745716289575,0.07930542309959211
33.111676,7.066522368154322,0.0786886431809649
33.116264,7.089988889980357,0.07805647226745889
33.120852,7.1090804242823,0.07743444907421342
33.12544,7.126250904974799,0.07682464919603277
33.130028,7.137536040124829,0.07626466408046514
33.134624,7.143180199160681,0.07574066354838449
33.139208,7.147147674015382,0.0752202644710705
33.143788,7.146617976631845,0.07471849988769824
33.148372,7.143267791191218,0.07423401382561139
33.152964,7.139795421036444,0.07375646249702762
33.157556,7.131825878643432,0.07329554513794434
33.162148,7.116172121812656,0.07288561269774298
33.16674,7.099741115248376,0.07247059633395043
33.171328,7.078446382303419,0.0720903534582703
33.175924,7.053553911567873,0.0717202618123003
33.180512,7.0230204647181464,0.07137987096349038
33.185108,6.991465398706627,0.07104650211246347
33.189704,6.959788147980963,0.07071725588957738
33.194308,6.925290409198209,0.07040040273190402
33.198896,6.889115986234303,0.07008044765367175
33.203496,6.849998890499166,0.06977956433581807
33.208084,6.812680663659321,0.06946939442774996
33.212684,6.779981793771864,0.06913571287956038
33.217276,6.7512472158174335,0.06876946238631985
33.221876,6.725455310634238,0.06837907656835379
33.22646,6.704282762403427,0.06796655632904929
33.231056,6.680944791134884,0.0675769340018316
33.235644,6.660960188228642,0.06718820531114218
33.24024,6.639343042589877,0.06683866432518164
33.24484,6.619646950560553,0.06647721154219745
33.249436,6.608290137988352,0.06608195162004618
33.254028,6.604128800997333,0.06566721562872373
33.25862,6.60344301708276,0.06525026163683499
33.2632,6.605455536511131,0.0648266053592752
33.267792,6.614663531520684,0.06438637740482321
33.272384,6.632332990701506,0.06390983853255125
33.276988,6.65437743740642,0.06343136940660894
33.28158,6.68104124106372,0.06293858404750236
33.286168,6.712735097264469,0.062454739589144166
33.29076,6.746516333237434,0.06199953932476762
33.295352,6.785816360610433,0.06152853364519038
33.299944,6.829247006079232,0.061076342817976824
33.304532,6.876153204624478,0.06062951338817927
33.309128,6.925757706512669,0.06018610388960615
33.313724,6.981536064820245,0.05974480087323317
33.318312,7.038991107308974,0.05931315933962206
33.322908,7.101065506750088,0.05887160960900494
33.327496,7.165838209534144,0.05843279305823811
33.332084,7.238661680898405,0.05794528382142596
33.33668,7.3090753597966405,0.057495322810310646
33.34128,7.372337704562321,0.05710237460607832
33.345872,7.434700614880354,0.05671696273788298
33.350452,7.497063525198387,0.056337147053971234
33.355052,7.560448054678213,0.05595595493240627
33.35964,7.621911530548599,0.055588563493947286
33.36424,7.676712411143011,0.05525019759845847
33.368824,7.730080976984566,0.05490173996572757
33.37342,7.776009697816646,0.05457234793248374
33.378012,7.819606669448222,0.054231790301200525
33.382608,7.862015695755228,0.0538675262570333
33.387188,7.902870222595229,0.05349836592569693
33.39178,7.93256498192102,0.053155153421686585
33.396384,7.959561437903869,0.05281754699019693
33.40098,7.976830441125362,0.05251910757658775
33.40556,7.985882349603881,0.05223303040568902
33.410144,7.989415466682366,0.05195604013667714
33.414724,7.987551977074966,0.05168228297254858
33.419324,7.975428154401002,0.0514289913926626
33.423908,7.954598498127478,0.05120647482710159
33.4285,7.933358146262888,0.05096184371996837
33.433092,7.909908229911939,0.05069478180802456
33.43768,7.879795718285016,0.05044528170497382
33.442272,7.842121176934475,0.05021322329621113
33.446864,7.79753967087967,0.05000945001266135
33.451452,7.7469064931196225,0.0497939561388158
33.456044,7.692309023426546,0.04959403642705453
33.460624,7.631826208190998,0.04941477881653651
33.465224,7.575185500174333,0.04922052422783049
33.469816,7.512659446615198,0.04904712267163854
33.474408,7.445147481961243,0.04889354983564477
33.479004,7.36664207595585,0.04879152492590786
33.483596,7.291201527435838,0.04866867269464196
33.488192,7.207177330030411,0.04856819770359681
33.49278,7.125074186234427,0.04846103108277766
33.49738,7.037085696895973,0.04837749662421244
33.501968,6.949874457291021,0.04829725152445124
33.50656,6.857555121877101,0.04824692208971433
33.511148,6.769077893682064,0.04818134146394937
33.515748,6.677780177429939,0.048120712806905525
33.52034,6.579575496473548,0.0480897277462536
33.524936,6.478305958031777,0.0480753821101223
33.529524,6.374338116247063,0.048060996118730256
33.53412,6.2703702744623495,0.048046451672582674
33.53872,6.1677906059818675,0.04800147613895102
33.543304,6.062678960321215,0.047996018423649804
33.547896,5.95985492241244,0.047959105820022344
33.55248,5.853066592570636,0.04794476271441898
33.557072,5.742313970795805,0.04794845683205675
33.561668,5.632338598754475,0.0479612836581299
33.566256,5.521341607551352,0.0479805340440908
33.570852,5.417495950480784,0.04794636678945352
33.575448,5.30649895927766,0.04796972604724901
33.580028,5.196401402522187,0.047997250005314726
33.58462,5.084627161585562,0.048015000917698746
33.589208,4.976939397296112,0.047998136152762785
33.5938,4.860912353549539,0.04799887923095433
33.598396,4.748849601735995,0.04797402940597535
33.60298,4.629879885218187,0.0479989522870427
33.607576,4.511687418433881,0.04803713882508409
33.612164,4.397337058868459,0.04805593266253978
33.616752,4.2847855681983305,0.048075297286059804
33.621344,4.176076184747086,0.048068363834889945
33.625936,4.064546313238752,0.04807543242781015
33.630528,3.9488077803691,0.04813728676112268
33.635108,3.8351124858230334,0.048184366408747535
33.639708,3.7170863452015017,0.048308215761489304
33.644284,3.602657942370561,0.04845279614356129
33.648884,3.4883517242537665,0.04858509954817659
33.653468,3.373390441117615,0.04869596541987677
33.658064,3.2590842230008206,0.048849631331414387
33.662644,3.1433898315797957,0.04905663601221327
33.667236,3.0346024048630333,0.04920978290675087
33.671836,2.931578138974596,0.049312910035003724
33.676428,2.830230557267309,0.04943039435370335
33.681016,2.729415855865233,0.049595752129184524
33.6856,2.637595498939634,0.049774118396770824
33.690188,2.542710284528655,0.05002461172962549
33.69478,2.456408719003089,0.05021773296196071
33.699364,2.371006587925171,0.05043501396493461
33.703956,2.2862595218666097,0.05069932242557809
33.708548,2.2013902710939024,0.051008441861093844
33.713136,2.1151328470169655,0.051425396074609074
33.717732,2.040157375168385,0.051725688599885085
33.72232,1.971966683309922,0.051941121308684904
33.726908,1.9045532411849615,0.052199207346291625
33.731504,1.8458456326595598,0.052341621056499026
33.736084,1.7902028816195388,0.05242214666144356
33.740672,1.733294141989433,0.052600674991730614
33.745256,1.6779399018263315,0.05284578809175936
33.749848,1.624628899986817,0.05306503436844625
33.754452,1.5713178981473024,0.053324807320637005
33.75904,1.5189063307554354,0.05357392311158256
33.763632,1.4604872331069532,0.054064290099925284
33.768212,1.4047664388014145,0.05456275013728229
33.772812,1.3490456444958756,0.05200714231671924
33.777396,1.2908709162756846,0.04942778734258842
33.782,1.23755991443617,0.0467876919745635
33.786584,1.1852705317584493,0.04416936183545423
33.79118,1.1378448754614048,0.041513581108763915
33.795772,1.089641969430858,0.03882263657017
33.800368,1.0440151820291086,0.036086107435985275
33.804956,1.0028855668655987,0.03326779801752632
33.809548,0.9519063142265907,0.030551956720748053
33.81414,0.8976178346739109,0.027890493614835987
33.818728,0.8423077359594372,0.02518483335838881
33.823316,0.7812344764166396,0.022543444429007443
33.827904,0.7211828360356355,0.0199265317593843
33.832492,0.66677217176881,0.017224032262666496
33.837076,0.6160814300067213,0.014467428712454926
33.841668,0.5653906882446328,0.011693854089797742
33.846256,0.5175204345396336,0.00885466295376184
33.850848,0.46940581140634297,0.006041806127824527
33.855436,0.43191807548205263,0.003027210184594846
33.860024,0.39430815484361675,0.0
33.86462,0.3614397758717114,0.0
33.869204,0.33372363415740175,0.0
33.873796,0.30960523023368375,0.0
33.878388,0.2842208377198806,0.0
