Time,Force,Position
33.981444,0.10180675852436794,0.0
33.986036,0.09723154302061116,0.0
33.990616,0.0966206194498828,0.0
33.995204,0.10068197281447111,0.0
33.999796,0.10235865699562113,0.0
34.004384,0.09749493061494485,0.0
34.00898,0.08922491588903679,0.0
34.013568,0.08389757393436363,0.0
34.018168,0.07983622056977534,0.0
34.022764,0.07577486720518703,0.0
34.027352,0.0706918946788052,0.0
34.031952,0.06560892215242338,0.0
34.036532,0.06040376491189589,0.0
34.041128,0.05417698850957488,0.0
34.045716,0.04807239682139953,0.0
34.050316,0.045032662618604745,0.0
34.054904,0.041215678682307785,0.0
34.059508,0.03343440281298241,0.0
34.064096,0.026796930819596228,0.0
34.068696,0.01926002437856219,0.0
34.073284,0.015565225156410904,0.0
34.077876,0.013669294829555319,0.0
34.082472,0.010751745340906213,0.0
34.087068,0.008297811426254001,0.0
34.091668,0.003311900331432059,0.0
34.096264,0.004622030370145075,0.0
34.100856,0.005374156821061463,0.0
34.105448,0.005637544415395168,0.0
34.110028,0.0068003664573767246,0.0
34.114612,0.008496068804569113,0.0
34.1192,0.010969020885263692,0.0
34.123796,0.012298169090019065,0.0
34.128388,0.012298169090019063,0.0
34.132976,0.012483513418835244,0.0
34.137568,0.015489345804740663,0.0
34.14216,0.0183729934765004,0.0
34.14674,0.023832759777058017,0.0
34.151336,0.028925971935178627,0.0
34.155924,0.03749473716974496,0.0
34.160528,0.04876180574725486,0.0
34.16512,0.05876288573467989,0.0
34.169708,0.0701962804749636,0.0
34.174304,0.07844263301572109,0.0
34.178892,0.0813616436018054,0.0
34.183488,0.08386995859682453,0.0
34.188084,0.08584539328663285,0.0
34.192676,0.09382835823305663,0.0
34.197264,0.10422111564550446,0.0
34.201868,0.11371443861030446,0.0
34.206448,0.12459593487933496,0.0
34.211052,0.13559961586251118,0.0
34.215636,0.15146702322636363,0.0
34.220216,0.17046244769026717,0.0
34.224796,0.1910713967206502,0.0
34.229392,0.21233541077038978,0.0
34.23398,0.23474322869606856,0.0
34.238576,0.2566181663165365,0.0
34.243164,0.2788596580794414,0.0
34.247752,0.29864721592769417,0.0
34.252328,0.31483703598535545,0.0
34.256916,0.33433608295668865,0.0
34.261508,0.3530578801945197,0.0
34.266096,0.3759102955281531,0.0
34.270688,0.4046141545873668,0.0
34.275276,0.4390914141066434,0.0
34.279868,0.47603284717231115,0.007147722126159825
34.284464,0.5153162690702241,0.014630694582104031
34.289052,0.5579632989621759,0.022512720423629912
34.293648,0.6110030862665755,0.030091582226353407
34.298236,0.669816274031038,0.037639867050987125
34.30284,0.7353022967032113,0.045197959913952625
34.307432,0.8036190470642126,0.0528503505788755
34.31202,0.8810625662475771,0.06036333329933156
34.316612,0.9628913125867736,0.0680372211255983
34.321192,1.0466513521671506,0.07587332743859157
34.325788,1.1364733030845096,0.08379303884539858
34.330376,1.2344004036624383,0.09159965103552148
34.334976,1.339533219453288,0.09945970522399229
34.339564,1.449828512133473,0.10742337340705968
34.34416,1.570805073103025,0.11534463505526214
34.348748,1.6966997415336202,0.12334175855901008
34.35334,1.8320877329290157,0.13124855747397712
34.35792,1.9784352638589593,0.1389392281850213
34.362516,2.1329998895318787,0.1464608921391462
34.367112,2.2911961548122792,0.15382599750479675
34.371708,2.4481161918708563,0.15399420738174102
34.376288,2.6011838820788116,0.15378798063380528
34.380872,2.75334189820738,0.15308902384204978
34.38546,2.900259394181097,0.15259607431631017
34.390052,3.0407925661240216,0.1521442308544519
34.394644,3.1758408484838037,0.15168566078912715
34.399232,3.305770795402879,0.15113068686263903
34.40382,3.424530735176005,0.15073990733536413
34.408408,3.5405821319744484,0.1501227251994853
34.413,3.653924985798209,0.14928655260067025
34.417588,3.7627604277519917,0.14832319584174944
34.422176,3.860181493131533,0.14752704356580362
34.426768,3.952073527479303,0.1466523158043993
34.431356,4.038680900223593,0.14565566154938436
34.43596,4.117427492735604,0.14465357404724333
34.440556,4.194198650557808,0.14344249277643384
34.445144,4.26094360511,0.14231041841149983
34.44974,4.31488600978372,0.14141148099967493
34.454332,4.358724167921912,0.14065884496150036
34.458924,4.395200524316149,0.14004010998572217
34.463504,4.428567881776376,0.13945923750863978
34.468104,4.460380739769597,0.1389008060623829
34.472692,4.488062979667017,0.13841356993612045
34.477292,4.505851440640311,0.13813101708137543
34.481888,4.525927509365483,0.13776963524462169
34.486488,4.5468588710896745,0.13733304644527677
34.49108,4.567379537222803,0.1368712332313945
34.495676,4.590065626393662,0.13634162291596322
34.500264,4.609398347202221,0.1358665636806921
34.50486,4.626687829687194,0.13545433522536462
34.509448,4.644588235742894,0.1349958729460763
34.514044,4.664654064836328,0.13446811833651934
34.518624,4.688806370576935,0.13384552876428008
34.523212,4.714757545212838,0.13319867686304254
34.527792,4.7396871006869485,0.13258567565625753
34.532384,4.75950856035209,0.13211600659746406
34.53698,4.780107269750735,0.13164372260529855
34.541568,4.803404282492322,0.1311268598534846
34.54616,4.829277413862708,0.13058212255542778
34.550748,4.856705044700099,0.13003350606251102
34.555344,4.889895836365811,0.12938032729753254
34.559924,4.924230431907466,0.1287000715430271
34.564512,4.959464461896768,0.12801119096681302
34.56912,4.999562218266745,0.12720534711735434
34.573708,5.035529356540921,0.12645152775455054
34.578296,5.069575441205655,0.1257484479617899
34.582892,5.101944841689238,0.12506579185266745
34.58748,5.133659177153466,0.12438616849150408
34.592076,5.165862251474276,0.12367081886903639
34.596668,5.196999565184664,0.12292365881442929
34.60126,5.226993075019113,0.12222504634475355
34.60584,5.257475323710144,0.12149370591014265
34.61044,5.279618292944054,0.12090650870437354
34.615028,5.298652263243954,0.1203360391384388
34.619628,5.319440960990525,0.11969328575686196
34.62422,5.337120659803084,0.1190561626108888
34.628816,5.352468609415137,0.11842707970103668
34.633408,5.36393031035968,0.11781192783056353
34.638004,5.3702397740466274,0.11725237545990809
34.642592,5.373562423513711,0.11669428537658522
34.647188,5.364825871018935,0.11632192171142111
34.651776,5.352858134876006,0.11596779111624361
34.656372,5.34023533371372,0.11560575582636701
34.660956,5.3310439441792505,0.11515217679319541
34.665544,5.322996358520722,0.11466721994980697
34.670132,5.310940339480536,0.11419892470812126
34.674728,5.300028124316288,0.11369914317410483
34.67932,5.286295421094952,0.1132415349849478
34.683912,5.273095598178827,0.11280071080334134
34.688508,5.259773590548555,0.11236744523615398
34.6931,5.240810606804105,0.11201824325967794
34.697696,5.221847623059656,0.11166737430539499
34.702284,5.206971115962381,0.11123369402197941
34.706876,5.194548542779758,0.11078630356367172
34.711464,5.179349622988674,0.11043468418100491
34.716052,5.170324559616981,0.11001828922900918
34.720656,5.164897234035877,0.10956029877674327
34.725244,5.163600526550575,0.10907841563317834
34.729832,5.16577937214172,0.10856382713828651
34.73442,5.170045597505079,0.10806504185183852
34.739012,5.185105036240214,0.10744204710797407
34.743616,5.199186997262181,0.10688955868164939
34.748212,5.21188078497992,0.10638523595982169
34.752816,5.221798226089197,0.10598175289068903
34.757396,5.233803046970689,0.10559872007972163
34.761992,5.254313473472077,0.10515887805090321
34.766584,5.27523459556453,0.10474885728252162
34.77118,5.298731836285782,0.10431947994149589
34.775772,5.320963088416947,0.10392863580098274
34.780368,5.3457704591769115,0.10352195869141317
34.78496,5.3742977524416125,0.10306391631223122
34.789556,5.399515818792642,0.10268076741714813
34.794152,5.4269434496300315,0.10231447345706944
34.79874,5.448485734924952,0.10203815544090075
34.803328,5.471171824095812,0.10173530318302372
34.807924,5.492958478819023,0.10144769362926043
34.812504,5.519120121066328,0.10113477782116839
34.817092,5.54593682833299,0.10083623395332095
34.821672,5.571487547009565,0.10057359410315167
34.826264,5.596261015952641,0.10031200724148683
34.83086,5.616537312657476,0.10009656520098517
34.835456,5.643187693761365,0.0997657034544685
34.840052,5.671759128474694,0.0994103801829491
34.84464,5.696855010111578,0.09907707435215679
34.849228,5.717453719510223,0.0987857800834514
34.853828,5.732000757203624,0.09853893762488397
34.85842,5.7494904676682586,0.0982552719037869
34.863016,5.769023416456481,0.09794355705536492
34.867604,5.792887211320168,0.09755652559418387
34.8722,5.814707767860269,0.09720352011604552
34.876788,5.838815932152248,0.09680709327682406
34.881376,5.866888388377257,0.09635715228171976
34.885972,5.890585857078172,0.09593998203437865
34.890564,5.923233528806936,0.09540350202352917
34.89516,5.958046623573433,0.09483636076553105
34.899748,5.992981903054075,0.09426919957331893
34.904344,6.014181296391709,0.09382143930262893
34.908932,6.032149506081188,0.09338009840130142
34.913532,6.0534269426843395,0.09288300491034056
34.91812,6.079035225362956,0.09232000422934616
34.92272,6.105909496631658,0.0917305915136627
34.927312,6.129186030109768,0.09117530256407565
34.931904,6.151274618263311,0.09059693032541669
34.936488,6.179615106101761,0.0899313656658066
34.94108,6.208566517510939,0.08922487936577767
34.94568,6.236618494472469,0.08852353774307903
34.95028,6.2606620380523434,0.08782921958459788
34.954872,6.276610671603386,0.08718678735827201
34.959464,6.28806213291619,0.08657929343022176
34.964052,6.295505160847336,0.08596602356583541
34.96864,6.299106081559602,0.0853920070653896
34.973228,6.300497437785505,0.08480642054362039
34.97782,6.3023775328679905,0.08419002934223076
34.982416,6.2962849026357945,0.0836159286476815
34.987008,6.282097362374764,0.08308643668194197
34.991604,6.262513215427847,0.08258600190672895
34.996184,6.252900890670575,0.08196931640705857
35.00078,6.240712447284504,0.08135626624817298
35.005368,6.222227962764899,0.08077736858227683
35.009956,6.198757567150472,0.08025378748075361
35.014568,6.172711052907246,0.07973472523558894
35.019156,6.147441788397524,0.07921712880892122
35.023764,6.124626457802452,0.0786994092274741
35.028348,6.0985019002937095,0.07823182647286539
35.032952,6.072910223090177,0.07777903231174159
35.037544,6.051038468391382,0.07730040336673764
35.042136,6.028677974836004,0.07684877563609477
35.04674,6.014656760737749,0.0763423254980021
35.051332,6.002190046106498,0.07584193672106011
35.055936,5.997040991770575,0.07530069832630866
35.060516,5.996389109672891,0.07474096960200138
35.065116,5.997169542328068,0.07419639754663333
35.069704,5.997339051412514,0.07368747858857684
35.074296,6.0051147316692095,0.07317618689982451
35.078884,6.0198415180787945,0.07264822227361159
35.083476,6.042907583945503,0.07207662013476418
35.088072,6.067039410422633,0.07155068222225194
35.092668,6.1000433966620955,0.07100292528688074
35.097248,6.136522935978005,0.07044859756480276
35.101844,6.173657540313269,0.0699064376449708
35.106432,6.212346644115539,0.06937448846766976
35.111024,6.248748140165931,0.06887971607748353
35.115612,6.285926885949823,0.0683969642793527
35.120208,6.3261704892190975,0.06789038546533523
35.124792,6.3703783844214,0.0673568841547509
35.129392,6.412787410728406,0.0668355260098308
35.133976,6.458261294520793,0.06629007826004735
35.138568,6.505534047208475,0.06575289697469514
35.143164,6.55190736544851,0.06522270771313446
35.147752,6.60007955258384,0.06470072727468223
35.152352,6.645797805804518,0.06417943934784989
35.156932,6.692659862901136,0.0636497615131802
35.161524,6.746551069416163,0.06307510715139739
35.166112,6.793246800350007,0.06252093931266331
35.1707,6.841330704588081,0.061947764442123465
35.175288,6.885694686321418,0.06139840257439062
35.179884,6.92490643079716,0.06085141032529009
35.18448,6.960886991624747,0.06030254287243478
35.189076,6.998910790775922,0.059743105289846866
35.193676,7.038444947945472,0.05915509635188678
35.198268,7.080921777886257,0.05855665172592911
35.20286,7.124908965845418,0.05792761181488278
35.207456,7.164521166280487,0.05730334437713011
35.212032,7.201435063372611,0.056689780303325436
35.216632,7.234629037959998,0.05609220619205954
35.221216,7.266679208671445,0.05550926043824114
35.225816,7.295664521897513,0.05495073560378953
35.230408,7.317209990114106,0.054415801950498895
35.234996,7.338877643044846,0.05387680592693659
35.239584,7.353227635680256,0.05335390170815012
35.24418,7.366433824439728,0.05284451118457013
35.248768,7.373632482942583,0.052368444401449644
35.253364,7.369182635074646,0.051942005261102
35.257952,7.368697079139735,0.05149483845744354
35.262536,7.3650244810053,0.05107481505092598
35.267128,7.356610341204332,0.05066747519386358
35.271724,7.348851266422723,0.05026995574064534
35.276312,7.3341852269368495,0.049902894015189575
35.280908,7.314533276356154,0.04956008223034778
35.285504,7.289895414680637,0.049239951519032994
35.290092,7.2596165768909415,0.04893148709282215
35.29468,7.225251262454071,0.04864442927254808
35.299268,7.1906415785889095,0.04836634695812791
35.30386,7.151045983628926,0.048109059241273296
35.308456,7.111328203954798,0.04785504149808121
35.313044,7.069811555385374,0.04759848202260381
35.317652,7.023553365149419,0.04735072474201889
35.32224,6.975007567161585,0.047123800193301243
35.32684,6.920576423631282,0.046917349987314325
35.331436,6.863735487634955,0.04673794843464041
35.336024,6.804851313315041,0.04656769422901551
35.34062,6.748010377318714,0.046382785731706795
35.345208,6.694112114093622,0.04618241302021292
35.349812,6.633062516735975,0.04602210092846936
35.354392,6.564573074368852,0.04586955091668079
35.358996,6.494939828125792,0.04572629426858764
35.363572,6.42146447466385,0.045592234619623216
35.368172,6.345823698164175,0.04547575448000202
35.372764,6.270060736950353,0.04536402431626603
35.37736,6.192909602432301,0.045277654511785864
35.381944,6.1104060026769895,0.045237813114447974
35.38654,6.027780218207533,0.04520328721884018
35.391144,5.942089576252696,0.0451876518880564
35.39574,5.855010760993628,0.04520236228296233
35.400336,5.764744903535034,0.04524332001203586
35.404936,5.674112491934003,0.04530557872814962
35.409528,5.585401133942414,0.04536017668974511
35.414128,5.497711395112618,0.04540895705931548
35.418716,5.411698340463971,0.04546775882857441
35.423304,5.326462535548828,0.045539075381925156
35.427896,5.239960742043599,0.0456360988826039
35.432488,5.150394091052989,0.04575621347208361
35.43708,5.056618778701059,0.04592007791452107
35.441668,4.966685573568013,0.04607306557321317
35.44626,4.882271159835,0.046219788350313096
35.450852,4.8006772341590755,0.04635873068727191
35.455444,4.719982742930799,0.046499837866580795
35.460032,4.646073031692639,0.04660903646397749
35.464628,4.571386070720979,0.046708437851050305
35.469212,4.500785586396493,0.046773691801809965
35.473804,4.437214251490414,0.046789620651448226
35.478392,4.373642916584336,0.046805317328204504
35.48298,4.309049962516465,0.04683408157372508
35.487564,4.2447013778768845,0.04684899292248417
35.492168,4.178553924342008,0.04686618849778207
35.49676,4.109830352178335,0.046873635831925844
35.501364,4.0418840297481635,0.04688993852339076
35.505956,3.973038272870344,0.04690570204484018
35.510556,3.904436885420816,0.0468992492963413
35.515136,3.837101486561373,0.04686101136952551
35.519736,3.7662905346254836,0.046814078244105425
35.524324,3.696623386565534,0.04674215067640879
35.528924,3.633863203209848,0.04661333051153855
35.533508,3.5657064131682743,0.04647777384996943
35.538104,3.4926858967460244,0.046376750151187786
35.542696,3.4158232731048916,0.046297360700349934
35.547292,3.335240726959022,0.04622940703672658
35.55188,3.2452972821942376,0.04619326274711141
35.556472,3.152411164658217,0.0461832834405697
35.561052,3.0517186479702865,0.04625332178966428
35.56564,2.9453851551681773,0.04634428665694998
35.570228,2.839173847080213,0.046412879381067806
35.574824,2.7342285275823337,0.04643541056775037
35.579416,2.630427011960393,0.046419130507094626
35.584,2.5286687346620402,0.046361437093734435
35.588596,2.4270326420778328,0.04626678315257386
35.593184,2.3215544422747434,0.04622255319448177
35.59778,2.218774545814597,0.04617691674644565
35.602368,2.1157502799261594,0.04617449993111174
35.606964,2.009905525980632,0.04617791575656291
35.61156,1.9095795634351382,0.046168876019885334
35.616148,1.8081097970137048,0.046211636574284495
35.620744,1.703819542535182,0.04623096119358764
35.625332,1.602227591399603,0.043971065338348034
35.62992,1.5016572594258177,0.041686764481670545
35.634524,1.4028857963473278,0.03939112255229769
35.639112,1.308611505507077,0.0370844726831105
35.643708,1.2196116366385679,0.03476668402332571
35.648288,1.1335544405412936,0.032434050450718364
35.652888,1.0541598397199914,0.0300427176414489
35.657476,0.979018041708637,0.027651918200667407
35.662076,0.9064523623260805,0.025285332453935275
35.66666,0.8372400513058241,0.022945594658855564
35.67126,0.7695822397525723,0.020635683355058197
35.675852,0.7023351237903853,0.018357640850085302
35.680448,0.6389742564957093,0.016118548206443144
35.68504,0.5811321806010661,0.013830073873483997
35.689636,0.5222684855446293,0.011544819144297499
35.694236,0.4642071635042805,0.009230808085625148
35.698832,0.4115424481498189,0.0069255110533410665
35.70342,0.36067660169065296,0.004623529591507606
35.708016,0.31443011218387196,0.0022859876820226603
35.712608,0.2707597413058888,0.0
35.717192,0.23158654266614498,0.0
35.72178,0.19793213542643384,0.0
35.726376,0.16799765069145986,0.0
35.730968,0.1412250848734263,0.0
35.73556,0.11943843015021467,0.0
35.740148,0.10076077436101176,0.0
35.744736,0.08375980275295888,0.0
35.749328,0.06957931920199523,0.0
35.753916,0.056053900670388096,0.0
35.758496,0.04265066685292663,0.0
35.763092,0.03668727804493931,0.0
35.767676,0.03301149698883038,0.0
35.772276,0.03481036588412608,0.0
35.776868,0.03853028838886316,0.0
35.78146,0.0423723956077459,0.0
35.786056,0.053096344248306185,0.0
35.790648,0.06574134649830783,0.0
35.795244,0.07736472958651595,0.0
35.799828,0.08808867822707622,0.0
35.80442,0.09869044215349082,0.0
35.809012,0.11031382524169894,0.0
35.813612,0.11899453555867218,0.0
35.818204,0.1276752458756454,0.0
35.8228,0.13511509088511955,0.0
35.827384,0.1450088698092459,0.0
35.831972,0.15821187564704417,0.0
