Time,Force,Position
31.846743999999997,0.0742503301055564,0.0
31.851332,0.07670426402020862,0.0
31.855935999999996,0.0834330190361188,0.0
31.860527999999995,0.09016177405202898,0.0
31.865123999999994,0.09856721324908918,0.0
31.869719999999997,0.10672828301785804,0.0
31.874315999999997,0.11476716807248125,0.0
31.878908,0.12562654118419364,0.0
31.8835,0.13432049125817336,0.0
31.888091999999997,0.14233735802148648,0.0
31.89268,0.14855535588950394,0.0
31.897268,0.15027618151928213,0.0
31.901864,0.15367369133021036,0.0
31.906451999999994,0.16234562311288,0.0
31.911047999999997,0.16987375101961044,0.0
31.91564,0.18165468173628882,0.0
31.920232,0.19829933883364345,0.0
31.924828,0.21020245426446751,0.0
31.929416,0.2181412777622631,0.0
31.934015999999996,0.23004439319308717,0.0
31.938604,0.24489018139514612,0.0
31.943195999999997,0.2575705465594723,0.0
31.947784,0.26959584670444203,0.0
31.952372,0.2807217124017639,0.0
31.956964,0.29017089391793577,0.0
31.961555999999995,0.30064169459590107,0.0
31.966156,0.3121341144356599,0.0
31.970752,0.32080604621832953,0.0
31.97534,0.3298445321434362,0.0
31.979944,0.33311985724021875,0.0
31.984536,0.33639518233700133,0.0
31.989132,0.3444120491003145,0.0
31.99372,0.3480539283395341,0.0
31.998319999999996,0.34654357032115785,0.0
32.0029,0.34695426591222306,0.0
32.00749999999999,0.3413132897980446,0.0
32.012088,0.3310529567314812,0.0
32.016687999999995,0.31911593948376776,0.0
32.021272,0.30856709554028494,0.0
32.025864,0.29789606688265635,0.0
32.030455999999994,0.2891460918344692,0.0
32.035048,0.2833387895575169,0.0
32.039635999999994,0.27638768340462544,0.0
32.044231999999994,0.2693143925375883,0.0
32.04882,0.25942061361346197,0.0
32.053408,0.24592909689874418,0.0
32.057996,0.23039434186043936,0.0
32.062588,0.21768007487922378,0.0
32.06717999999999,0.20934079542210177,0.0
32.071768,0.20472143846971683,0.0
32.076359999999994,0.1996133426607492,0.0
32.08094,0.19017440077631617,0.0
32.08553199999999,0.1851104464159767,0.0
32.09012,0.18352204513208298,0.0
32.094708,0.18115639411468704,0.0
32.0993,0.1867634684119761,0.0
32.103888,0.1949466613380631,0.0
32.108492,0.20288548483585872,0.0
32.113088,0.210213384762926,0.0
32.11767999999999,0.212677558309317,0.0
32.12228,0.21207687437032746,0.0
32.126872,0.2103323865553987,0.0
32.131476,0.20744409486453078,0.0
32.136072,0.20623248735481284,0.0
32.140663999999994,0.21066185595927334,0.0
32.145252,0.21893333178261662,0.0
32.149852,0.22834861148189908,0.0
32.15443199999999,0.23302234951465092,0.0
32.159028,0.23614158808039845,0.0
32.163624,0.23938301136029164,0.0
32.168215999999994,0.2402926854396783,0.0
32.172808,0.24373433669923464,0.0
32.177404,0.2453771190634953,0.0
32.181991999999994,0.2493516506282625,0.0
32.18658799999999,0.2568458767181036,0.0
32.19118,0.2632845818292618,0.0
32.195772,0.27705118686748725,0.0
32.20036,0.3025206793568736,0.008369728942242385
32.204944,0.3387936248497728,0.016543179494225534
32.209532,0.3885683266891288,0.024587140704659394
32.214127999999995,0.4463259934749084,0.03283228269841985
32.21872,0.5159087324259946,0.040832146343171526
32.223308,0.5983381627041807,0.04864892495043517
32.227892,0.6876067540528515,0.056626650248485795
32.232471999999994,0.7832257676154243,0.06467326588590445
32.237064,0.8890373106107816,0.07264509587036032
32.241648,1.0033646988577736,0.08067140803062496
32.246236,1.1289062356993438,0.0887284771761545
32.250823999999994,1.2621863680590462,0.09679010828334957
32.255419999999994,1.4083573331944768,0.10474784693755043
32.260008,1.5674191311056358,0.11267526674998371
32.264599999999994,1.7373285234689357,0.12054886206799337
32.26918,1.919718053016899,0.12833270265211752
32.273788,2.1072259180055686,0.1361148099662699
32.27838,2.2960880544815794,0.14396220361051726
32.282976,2.481841192023581,0.15189787615760947
32.287555999999995,2.662475994124877,0.15980483123194555
32.292151999999994,2.832962408242016,0.15939450280480905
32.296747999999994,2.995710226841023,0.15911022950307718
32.301348,3.149820015474251,0.15890960721645547
32.305932,3.29966676166579,0.1584530766993286
32.310528,3.4378106204061702,0.15825445128963644
32.315116,3.565151026143037,0.1582292810198656
32.319712,3.688594943580654,0.15795588307953373
32.324299999999994,3.8067100579661632,0.15750494075221522
32.328892,3.9115677854335065,0.15719484864149683
32.33347199999999,4.00970853654451,0.15678836322151565
32.338055999999995,4.10101012658503,0.15631334473131084
32.342648,4.181019524765454,0.15594749617027912
32.34724,4.246583590703146,0.15570359105081796
32.351831999999995,4.300400627741047,0.15548685461446557
32.35641999999999,4.341449016717366,0.15533307816391875
32.36102,4.366419530718433,0.1553689481338615
32.365607999999995,4.383040525630636,0.15541913402964289
32.3702,4.396464238711575,0.15537223254046345
32.374792,4.411354168362262,0.1551717964489783
32.37938,4.423257283793087,0.15500007783024913
32.383987999999995,4.440390679747025,0.15464663282492286
32.388568,4.453804153196225,0.15439605512649077
32.393179999999994,4.467217626645424,0.1541501334449242
32.397768,4.481774903970565,0.15386679953587448
32.402356,4.4983754196192915,0.15352008456912383
32.40696,4.513299251086868,0.15320246398953188
32.411548,4.528834006125173,0.15283830974743168
32.416144,4.537828350601652,0.15263951559119826
32.420731999999994,4.551930790887098,0.15228398539019672
32.425324,4.5672992197626305,0.15188199865095456
32.429911999999995,4.580946823008383,0.15145129392566242
32.434512,4.599414011186183,0.15082807882996613
32.43910399999999,4.619313514116842,0.15019772409526172
32.443696,4.640767516514507,0.14955332548063052
32.44828,4.661199899750376,0.14893430660549786
32.452872,4.690338116585806,0.14808723332634666
32.45746,4.723684994782556,0.1471203261603992
32.46205199999999,4.758664415711827,0.14608646439512585
32.466652,4.792211521888239,0.14507189354709968
32.471239999999995,4.826002997492943,0.14403693706562254
32.47582,4.856196735307058,0.14309600704498607
32.48040399999999,4.891498568930136,0.14202408105794587
32.484992,4.924224283924419,0.14099771955587606
32.489588,4.9514312075186675,0.14009238562452297
32.49417999999999,4.976717077503475,0.13923780599244484
32.498771999999995,5.00764392360246,0.13827264131269323
32.503367999999995,5.031419435568891,0.13750352393725052
32.50795599999999,5.05801543559241,0.13666775574172182
32.512547999999995,5.082446012578197,0.13590840426814432
32.517135999999994,5.103445177936167,0.13526716036446354
32.521728,5.126409538352205,0.13464986491011738
32.52632,5.150028963787602,0.13405030077913666
32.53090399999999,5.176835431422524,0.13337057019110776
32.535492,5.205807322095179,0.1326403277523937
32.54008,5.2424634272056,0.13176288014016888
32.544667999999994,5.273112002059406,0.13103510943811714
32.549271999999995,5.298774665818389,0.13042703340976738
32.553867999999994,5.321128102663701,0.12991771303560937
32.558463999999994,5.34438097395666,0.12940212224291558
32.563052,5.368655464411413,0.1288674833456888
32.567651999999995,5.392152705132663,0.1283409165005795
32.572244,5.407188481682646,0.12796413143545665
32.57684,5.424267496556216,0.12754321137465224
32.581427999999995,5.4453108033628155,0.12704212274283194
32.586032,5.469541152368941,0.12647004293911346
32.590624,5.486576025793883,0.12600584325024425
32.59522,5.5078195605801445,0.12544089361960042
32.59981199999999,5.530206899242346,0.12484771476517306
32.604408,5.552061357599337,0.12424211985474223
32.609008,5.576814347278932,0.12353178017760551
32.613603999999995,5.598213968596228,0.1228572996729675
32.61819199999999,5.616138036837081,0.12222834994340193
32.62278799999999,5.631363801734989,0.121642302596748
32.627368,5.6427474594140135,0.12112593801952813
32.631955999999995,5.647590706531213,0.1207154322413016
32.636543999999994,5.6528005077908485,0.12027654962387982
32.641136,5.657110874602837,0.11984693373506791
32.645731999999995,5.66154342612897,0.11940842360505258
32.650324,5.66303330488387,0.11902415500979166
32.65491599999999,5.664523183638768,0.11864181368123815
32.659504,5.667567561860672,0.11825648092931049
32.6641,5.67882903482555,0.11776057543551235
32.668688,5.689968323076284,0.11727697507095267
32.67326799999999,5.7021292304888105,0.11678054100512993
32.67786399999999,5.711103095701812,0.11635509811120531
32.682452,5.723674698705404,0.11588620815006151
32.687056,5.735102497833057,0.11544740397970164
32.691644,5.748329165856005,0.1149929981063887
32.696231999999995,5.764131952507752,0.11452080071761946
32.700827999999994,5.777769316121765,0.11409898007762954
32.705408,5.790507245288133,0.1136856787212334
32.710012,5.805943477797442,0.1132451472322318
32.7146,5.821257525592607,0.11281464942256904
32.719199999999994,5.839636430873151,0.11233211402575749
32.72378,5.860835824210786,0.11181509194780156
32.728384,5.885999509481447,0.11124009684860045
32.732975999999994,5.914594606379927,0.11058812762048942
32.73757199999999,5.94367844213499,0.10990601225392985
32.742155999999994,5.9727622778900535,0.10922200282620108
32.746751999999994,6.000702309769176,0.10856769064089955
32.75134,6.025411158000145,0.10792806066558969
32.755936,6.050730929801842,0.10726241682936641
32.76051999999999,6.074496202136535,0.10660096660478795
32.765116,6.091721063909401,0.10601830768160483
32.769707999999994,6.105714742034113,0.1054427798398015
32.774292,6.123017647072498,0.10480932590165912
32.778884,6.139909856519817,0.10415302991184157
32.78347599999999,6.155247566500131,0.10350490622290419
32.78807199999999,6.165433039222851,0.10289183229877846
32.792663999999995,6.173697458336128,0.10230219981410144
32.797256,6.185803984668288,0.10166577944115619
32.80184,6.196111642105152,0.10104911614526663
32.806431999999994,6.203720996199073,0.10045418642367947
32.81102,6.2074882430741125,0.09990780344801369
32.815608,6.204837264101468,0.09942247348232741
32.82022,6.199243612357592,0.09897839128187265
32.824808,6.195082275366572,0.09854524281977965
32.829412,6.194396491451999,0.09809338773897136
32.83400399999999,6.195876130575159,0.09760444162343766
32.83859999999999,6.197600139126612,0.09710057966481209
32.843196,6.200878647145068,0.09659708889258174
32.847784,6.1990490593545555,0.09616998505223937
32.85238,6.199795590192841,0.09573098833407279
32.856972,6.208104150754746,0.09521582926293641
32.861568,6.22013263382139,0.09466407128462594
32.866156,6.227053021079064,0.09418805059193619
32.87075599999999,6.235405723089598,0.09372280208660635
32.875347999999995,6.244535674833634,0.09326259150664841
32.879943999999995,6.25983948299706,0.09276810573286876
32.884536,6.278985398379366,0.09223560177912898
32.88913599999999,6.297109694599882,0.09172159294837615
32.893724,6.318054478877486,0.0911872145987961
32.89832,6.344640239269268,0.09060488606894243
32.902908,6.376089726041726,0.08997552435796152
32.907504,6.4158784922713075,0.0892810346375739
32.912091999999994,6.454767824053239,0.08859447416861893
32.916692,6.488016179720994,0.08795897912145303
32.92128,6.511781452055686,0.08740878088762642
32.925867999999994,6.535546724390379,0.0868634717733455
32.930448,6.561233050334513,0.08630461713693806
32.935039999999994,6.588962614602234,0.08572509966561447
32.939628,6.615914929136454,0.0851427271860572
32.944227999999995,6.640413309756021,0.08456599532470133
32.948823999999995,6.657105291223678,0.08406781663891826
32.953416,6.678416629643718,0.08354423183748108
32.958003999999995,6.698828533616111,0.08302429124259385
32.962588,6.719484807016796,0.08249392690206732
32.967175999999995,6.7361767884844514,0.08200545597264387
32.971771999999994,6.748371597713868,0.08154448699126234
32.976356,6.756602115010256,0.08112398544290454
32.980943999999994,6.765199186449081,0.08068552110241473
32.985536,6.765456978430784,0.08030041621578717
32.990123999999994,6.760973228745957,0.07995210017302273
32.994719999999994,6.7526473718422455,0.07963570015169912
32.999308,6.737781104376709,0.07936275028019261
33.003904,6.722792652197028,0.07909556793626439
33.008484,6.710869057502725,0.07879399415472448
33.013079999999995,6.708550730855631,0.07841555977877933
33.01766799999999,6.705210785046743,0.07804884299112805
33.022256,6.699949785628413,0.07769806959402425
33.026847999999994,6.691868298152994,0.07736630362126626
33.03144399999999,6.687384548468168,0.07701898835456802
33.036036,6.686131982431495,0.07667768663629493
33.040628,6.691786381099085,0.07627649259395707
33.045224,6.691677618938352,0.07592019151615538
33.04982,6.694511529548853,0.07553975494053701
33.054396,6.698489244035293,0.07514516905077476
33.058983999999995,6.705654000721259,0.07471407847306413
33.063559999999995,6.711142073226076,0.0742817883426551
33.068144,6.720716622378066,0.07381052821235903
33.07274,6.72403927184515,0.07340378771978259
33.077332,6.73557901605521,0.07295944925636816
33.081923999999994,6.75300410580774,0.07247211713765538
33.086499999999994,6.769407576398477,0.07199372368549839
33.091092,6.792595826979331,0.07146961302619986
33.095688,6.817050066150269,0.07092406918595821
33.100275999999994,6.843303174216503,0.07037681571383535
33.104868,6.865836359778,0.06985409327669624
33.10946,6.888369545339498,0.06933320284105302
33.114056,6.910247665881639,0.06880381420580547
33.118652,6.933147405585573,0.06826656044279271
33.123248,6.9514277883371225,0.06774992110112808
33.127844,6.966232618012226,0.0672400989416304
33.132431999999994,6.978094774916094,0.06675453308035795
33.137024,6.989301866800607,0.06625781263902636
33.141603999999994,7.001408393132767,0.06576226810434746
33.146204,7.010327877265402,0.06530118754826679
33.150792,7.014261450303214,0.06487586522861251
33.155392,7.02424669504627,0.06444889613603398
33.159983999999994,7.035009189522826,0.06403041938419846
33.164579999999994,7.055499136760738,0.06355425898737868
33.169172,7.074190215103352,0.06308639166694634
33.173764,7.092514739303531,0.06264414627899617
33.178355999999994,7.116602424332031,0.06217535521423971
33.182948,7.133660959942124,0.06175787652409375
33.187535999999994,7.1530512447527235,0.061356471155964286
33.192131999999994,7.175262017620413,0.060950028846642905
33.19672,7.197228421059809,0.06055696240412629
33.201311999999994,7.223159116432235,0.06014446841128439
33.205892,7.251543745719313,0.059742137799559274
33.210488,7.281849428615832,0.059334910131325684
33.215076,7.3186955220741785,0.058909038359038185
33.219668,7.357462669141966,0.058477267593105856
33.224259999999994,7.399172488980988,0.05803495620148228
33.22884,7.4434584274488085,0.05759702300756773
33.233436,7.486722746754834,0.05717063103981664
33.23802,7.5280660124514185,0.056751142506314564
33.242608,7.574150819814534,0.056314432019292
33.2472,7.616227193795993,0.05586509721034244
33.251791999999995,7.653806395539212,0.055424380961759424
33.25637999999999,7.685744621168253,0.05500553490041192
33.260976,7.717027781777937,0.0545792088593065
33.265564,7.740216032358791,0.054161281873287455
33.27015599999999,7.759439991006616,0.053766798594030774
33.274736,7.780829372692175,0.053352699787424775
33.279335999999994,7.797965951567784,0.05293260325474402
33.283924,7.807662685433921,0.05253105700994615
33.288523999999995,7.815682735118908,0.05212478732914463
33.293111999999994,7.816918004813775,0.051745761999219174
33.297712,7.813411732842113,0.051380052609332864
33.302296,7.8037757458996895,0.05104963531091051
33.306887999999994,7.784534490910061,0.05075043960199151
33.31148399999999,7.762228378435049,0.050468283994134236
33.31608,7.734036920417569,0.05020970054799779
33.320668,7.704823843238295,0.04995644016354281
33.325264,7.671768658840138,0.0497141379091026
33.329851999999995,7.642433396946719,0.04946406857207239
33.334436,7.611954331177359,0.04922491162133186
33.339023999999995,7.57984272267548,0.049017338810849284
33.34361199999999,7.54826399447881,0.04882455928070221
33.348204,7.5127209743491115,0.04864723904962437
33.352796,7.473868727305741,0.0484965457232902
33.357392,7.439269283072319,0.04835469245232345
33.361971999999994,7.398007243562924,0.048229136126711564
33.366564,7.354579781015798,0.04811937711362195
33.371151999999995,7.308742526002647,0.04803674115483864
33.37573999999999,7.2585744249140305,0.04798833358046845
33.38033599999999,7.208039769682976,0.04795606843212168
33.384927999999995,7.154440256966542,0.047940940748410675
33.389532,7.098919690640667,0.04793128727172712
33.394119999999994,7.044420743476586,0.04791595835368689
33.398708,6.9950298921214715,0.047868553229732616
33.403304,6.941919118261619,0.04782639862038153
33.407903999999995,6.884844052468738,0.04780296180357825
33.412496,6.82380469474283,0.047797765708795854
33.417084,6.758801045083894,0.04781233276991809
33.421679999999995,6.687256984863132,0.04783868940667579
33.42626799999999,6.6091725140805435,0.047878454524845834
33.430868,6.524425448021982,0.047941589136068635
33.435447999999994,6.434692470868599,0.04803455947298376
33.440048,6.347902166486451,0.04811277500413407
33.44463999999999,6.256492505151917,0.04820066847956935
33.449236,6.157520814093765,0.048312698694632145
33.453824,6.0614917958068455,0.04841212771158523
33.45841599999999,5.963786093338778,0.048504682331457605
33.463007999999995,5.863382087527767,0.0486018839796125
33.467603999999994,5.767186743078075,0.04866409279678415
33.472188,5.667638030266083,0.04870987850109021
33.476783999999995,5.567067698292297,0.04876899000722674
33.481359999999995,5.468418419927953,0.04881947588512285
33.485952,5.3682146420966035,0.048852120564480385
33.49054,5.262125518722786,0.04891205600549491
33.495132,5.155014776187174,0.04898364091447331
33.499728,5.0490478375275005,0.049043497028746635
33.504307999999995,4.939483161077237,0.0491093275457512
33.508892,4.8310622885029115,0.04916303963705104
33.513479999999994,4.7236630350903805,0.0492068574168346
33.51806799999999,4.61818483528729,0.04924451243166246
33.522684,4.518836350454962,0.04922466820804657
33.527272,4.420220973907507,0.04914558757081808
33.531884,4.314698632655789,0.04911905078532273
33.536472,4.213917833070602,0.04907065976843994
33.541059999999995,4.117223510132589,0.048978219739283096
33.545652,4.017586514423341,0.0489062161771567
33.550239999999995,3.9179495187140922,0.0488273944952916
33.554835999999995,3.8230540646713744,0.048723765381543625
33.559416,3.722395449800332,0.04865049130917729
33.56402,3.6184276080156184,0.04864112024211443
33.56860399999999,3.51764680843043,0.04858017955051923
33.57319999999999,3.4111028480169185,0.04856342021584798
33.577788,3.2984291726326456,0.04864559137427732
33.582387999999995,3.1855111278200816,0.048775481774991164
33.586983999999994,3.0727152677216636,0.04890538826162971
33.591576,2.9637615148421284,0.04899247997571699
33.596172,2.855052131390884,0.049054405957848206
33.600764,2.7491632359967295,0.049093627827477754
33.605372,2.641108917564842,0.04920526669777105
33.609967999999995,2.5312557302376577,0.0493305570672863
33.614552,2.4162944471015066,0.04957686346367468
33.619148,2.2997006212328333,0.04999899961922865
33.623724,2.1888699561924843,0.05040399941195738
33.628311999999994,2.074074999219107,0.05096662100790467
33.6329,1.9560930000462031,0.05174568545788526
33.637491999999995,1.840931488930389,0.04934048648410663
33.642084,1.726425042833931,0.04694914574889699
33.646676,1.6071770550709428,0.04457209107142214
33.651264,1.4923040548320479,0.042181298319314324
33.65584,1.3843380192974164,0.039743010562393585
33.660436,1.2722855071156107,0.03733655241554239
33.665028,1.1657517863338378,0.03489441041494888
33.669616,1.0707443872087128,0.03237110052438661
33.674212,0.9785574761406779,0.029798839046446677
33.678799999999995,0.8926666062061775,0.027215196001030402
33.683404,0.8026892596245031,0.024672915472358357
33.687996,0.7196630191957201,0.02214301984847107
33.692584,0.6350500213768838,0.019633875956491156
33.69718,0.5569774341198739,0.01706189388253369
33.70175999999999,0.4852008879963988,0.014474742682869465
33.706368,0.4208641868823979,0.011800777520622394
33.710947999999995,0.3631900810443691,0.008986186532784154
33.715548,0.30821427854928385,0.006151200105757659
33.720136,0.25977888661602483,0.003170925633722213
