Time,Force,Position
35.866788,0.14220730727730835,0.0
35.871388,0.15381167219947411,0.0
35.87598,0.16774778632214643,0.0
35.880571999999994,0.17976284683537735,0.0
35.885152,0.1936989609580497,0.0
35.889736,0.20367078314769357,0.0
35.894324,0.2098004981184547,0.0
35.89892,0.22565766585056835,0.0
35.903512,0.23922722583080364,0.0
35.9081,0.25255241638274756,0.0
35.912692,0.2658776069346915,0.0
35.91728,0.2850881430291053,0.0
35.921868,0.30237762551407765,0.0
35.926452,0.31954492328490436,0.0
35.93104,0.34157594743640735,0.0
35.935627999999994,0.3605421141025298,0.0
35.940224,0.3744001849596846,0.0
35.944812,0.3821285408460782,0.0
35.949403999999994,0.39087851589426537,0.0
35.954,0.40232679428539614,0.0
35.958596,0.41263126880058765,0.0
35.963176,0.4184385710775399,0.0
35.967772,0.4205259508497551,0.0
35.972359999999995,0.4218360808884681,0.0
35.976968,0.42416783008897463,0.0
35.981559999999995,0.4266217640036268,0.0
35.98616,0.4317740012612225,0.0
35.990748,0.4301414585287006,0.0
35.99534,0.4305521541197658,0.0
35.999931999999994,0.43084066499668533,0.0
36.004524,0.4366479672736376,0.0
36.009116,0.4384909776175614,0.0
36.013707999999994,0.4431544760185745,0.0
36.018288,0.4488395935813811,0.0
36.022872,0.4533809072682485,0.0
36.02746,0.4638075664975857,0.0
36.032056,0.47423422572692286,0.0
36.036648,0.48809229658407766,0.0
36.041236,0.5005621941370019,0.0
36.045832,0.5169183403574371,0.0
36.05042,0.5354840510642331,0.0
36.055012,0.5569143912767465,0.005009695892970712
36.059592,0.5824753495850621,0.01007688019961002
36.06418,0.6070588301802123,0.015525173705803216
36.068772,0.6304204636339059,0.02128813051622267
36.07336,0.6610217141174104,0.026921662614339443
36.077952,0.6969415280212845,0.03244826555198178
36.082536,0.7402231436691151,0.03793799144453001
36.087128,0.7861250193943721,0.043514393089887776
36.091724,0.8377120126824354,0.04902091082629441
36.096312,0.8858675943426814,0.05465187104055689
36.100912,0.9385644896897946,0.060351815384627146
36.105492,0.991716222076601,0.06621495035454893
36.110092,1.0483876489884816,0.07202907887662537
36.114676,1.1061248365107836,0.07793873565615508
36.119276,1.160963492710479,0.08397662069036305
36.123864,1.2247964933866529,0.08979318239397903
36.128456,1.2921491885879002,0.09560665650231788
36.133052,1.3613007526844438,0.10140354643123914
36.137648,1.4221910805893827,0.10726778578480431
36.142252,1.4830372670456935,0.11302040780529007
36.146844,1.538076151225052,0.11388107042005022
36.151436,1.5897616670421106,0.11476835643423478
36.156024,1.6425468452864798,0.11522253802435302
36.160608,1.6949993712053018,0.11525884614100816
36.165196,1.7360816619985107,0.11554138060833417
36.169776,1.7634619684655997,0.11607828765954395
36.174372,1.7834363317401039,0.11658840068451369
36.178968,1.799069609307404,0.11684634646427691
36.183548,1.807296943682119,0.11707204825872553
36.18814,1.8105722687789012,0.11720539110443212
36.19272,1.8095065081684796,0.1170876132176811
36.197308,1.8032002274032057,0.11676009824443753
36.201916,1.7849908312071077,0.11659596920843301
36.206504,1.76399484877081,0.11616208161067552
36.2111,1.7408673451136691,0.11549567148856339
36.215688,1.7056364980460406,0.11523562867904844
36.220276,1.6625109689292457,0.11509942714153655
36.224872,1.6120236380684936,0.11518009842898151
36.229464,1.5608812421883844,0.11529731476871939
36.23406,1.5044644243365342,0.11564512451591384
36.238648,1.4531557022936514,0.11551543257033185
36.243236,1.4034795229832906,0.11509008314288002
36.247816,1.3517601053493427,0.11484049009991257
36.252416,1.2994297641446666,0.11474899639617973
36.257008,1.2530289099310883,0.11447638734931151
36.261604,1.212968238299673,0.11416450084703943
36.266188,1.174750577012182,0.11397080024382547
36.270784,1.136987752764384,0.11410789079871321
36.275372,1.100579200003927,0.11457169308707732
36.279968,1.0730869484544314,0.11474742383597203
36.284556,1.0467045989639854,0.11529276728643227
36.289156,1.0267846167698482,0.11563609886140323
36.293736,1.0182348697013242,0.11571715944001691
36.298332,1.0147593166248785,0.11585366057629971
36.30292,1.0137818389117133,0.11615916817937284
36.30752,1.0231088357137392,0.11609677381268936
36.312108,1.0408192534215155,0.11579185765179816
36.316704,1.068589776216192,0.11517646926977211
36.321296,1.103722100754825,0.11439025182899781
36.325876,1.144172988713828,0.11353952516163336
36.330472,1.1838907683879567,0.11304572676371738
36.335056,1.2264731775678026,0.11270379346080127
36.339648,1.274452193433536,0.11213078656019633
36.344256,1.3239857087662734,0.11152858972014953
36.348844,1.3733970393848653,0.11099059470367134
36.35344,1.4268948466506313,0.11019789747420594
36.358032,1.4839903917069885,0.10928462789583392
36.36262,1.5441507942487263,0.1081423966762593
36.367216,1.604799935647047,0.10677558161747402
36.371804,1.6577207211589737,0.10572841654454225
36.376408,1.7123962341175682,0.10440541952535529
36.381004,1.7617973251044217,0.1033497511989678
36.3856,1.8026928104713789,0.10252939242980386
36.39018,1.834838320790149,0.10197175370769851
36.394776,1.8677169393937931,0.10125050970983918
36.399364,1.8995297973870156,0.10052630792872301
36.403968,1.928355841160375,0.09983337606834954
36.40856,1.9525183865327214,0.09918149499123383
36.413156,1.9734497482569135,0.09857739032381231
36.417748,1.9915164804753882,0.09791504202458211
36.422336,2.006107659617417,0.09731780445547017
36.42694,2.0192665240065875,0.0967179736660998
36.431532,2.0305043347863156,0.09621040304719954
36.436124,2.0404320155273314,0.09565463605923352
36.440716,2.0531801843254365,0.09502761975969383
36.445308,2.062863495638161,0.09455150498065898
36.449892,2.0698485036079415,0.09414575130168985
36.45448,2.0741352082347793,0.09380365959821864
36.45908,2.0830412698140015,0.09335914360845171
36.463668,2.0972217533649653,0.09282517415692752
36.46826,2.1110356827734917,0.0923695225396465
36.472856,2.1318007183349095,0.0918291136042787
36.477448,2.165402205591689,0.09103940877269016
36.482036,2.207098602877299,0.09007733489779593
36.486616,2.2445863388015894,0.08928800184138302
36.491208,2.274922740593324,0.08877334448003163
36.495792,2.3045260341001863,0.08838921307263754
36.500384,2.3363388920934085,0.0880534909242678
36.504988,2.371094422857866,0.08765471615381615
36.509576,2.409447691412915,0.08720914177130268
36.514164,2.4535641207962877,0.08662636718937318
36.51876,2.497680550179661,0.0860698704314642
36.523352,2.5421635337054704,0.0854780218604654
36.527956,2.585624898069487,0.08491826186209227
36.532544,2.6276539476806446,0.08436523516297809
36.53714,2.670049551434239,0.08376871690654093
36.541728,2.711012840434975,0.08314661891066422
36.546328,2.754019367759298,0.08247758293051488
36.550916,2.789463865360001,0.08196669652629951
36.555508,2.8228209831884894,0.08142120195134551
36.560108,2.8510258637593813,0.08090493925788252
36.564704,2.869581334834439,0.08048394973700283
36.569292,2.8736236700329845,0.08026575564390638
36.573884,2.8766002446211094,0.07997524216148295
36.578476,2.8813315466559013,0.07955496416612445
36.583072,2.887328837280778,0.07906343494529024
36.58766,2.893159801742881,0.07848274773029748
36.59226,2.894082898375679,0.0778991107308715
36.596848,2.8885877691607966,0.0774069658914025
36.601436,2.880638706031262,0.07691476967220666
36.60602,2.8672930362158406,0.07648050084516787
36.610612,2.847529140552739,0.07612577539868545
36.615208,2.825189126260839,0.07577732278059936
36.619796,2.8041151005590237,0.07536637303959821
36.624392,2.7772779140288844,0.07505439318923125
36.62898,2.752239596394041,0.07472023265176735
36.633572,2.729000147654493,0.07436424474881682
36.638164,2.7039618300196495,0.07402036130717325
36.64276,2.6850532273555663,0.07353078683935246
36.647356,2.667576939444343,0.07307165990708087
36.651944,2.654597823771358,0.07257045194915
36.65654,2.6497136181272047,0.07199960229533055
36.661128,2.653046507226027,0.07133944551574521
36.665716,2.6530701694111776,0.07078547246857769
36.670312,2.656325015244483,0.07025596147994426
36.674904,2.666364641067905,0.06962453627593435
36.6795,2.6791025702342712,0.06898567146482582
36.68408,2.7008348438771153,0.06830193747883986
36.68868,2.728085908919993,0.06757165106470892
36.693268,2.75676928871573,0.0668856581501526
36.697868,2.7870071679784703,0.06621666424881985
36.702452,2.824807076964831,0.06545563844390209
36.707052,2.8649387351516973,0.06473318464466185
36.711648,2.9114886191862452,0.06399552775162136
36.716244,2.9666221521062064,0.06316435670142917
36.720836,3.017136328073782,0.06238630200060281
36.725432,3.069327188222508,0.061633837345747275
36.73002,3.1242163517141774,0.06088755926740508
36.73462,3.1789833304917012,0.0601920516757288
36.739208,3.234771928431019,0.05949981765380436
36.743812,3.296201502484515,0.058789394307034136
36.7484,3.35595439235686,0.058095843113509384
36.752988,3.4167289013909996,0.05741562090005114
36.75758,3.479546648748726,0.05670839692485353
36.762176,3.5417093310870955,0.056000474971696114
36.766764,3.596965048721202,0.05538821121693703
36.771356,3.647357039974632,0.054833599583772125
36.775944,3.692108055113884,0.054336559146559
36.780532,3.7350602013578396,0.05385557254239868
36.785128,3.7774794672965855,0.05334966696121537
36.789716,3.821819786844772,0.05283307869381088
36.794312,3.86219581445993,0.05236518474389258
36.798896,3.9028162115033798,0.05188221353323264
36.803492,3.9338313404996224,0.05147795033226096
36.808088,3.959205493381686,0.05111247588052496
36.812668,3.9866228845873373,0.050724456731373664
36.817252,4.010564722716543,0.05033337452810064
36.821844,4.027843965569777,0.04998077355503464
36.826428,4.040259482042334,0.049667152561991154
36.831032,4.047156207114859,0.049369202960445856
36.83562,4.0460802068726975,0.04906903818797991
36.84022,4.039485415230504,0.04877997269306596
36.844796,4.02340754025525,0.04853455668111118
36.849396,4.005408611670555,0.04829903791296888
36.853984,3.982423771991037,0.04810572758232347
36.85858,3.9598054864539565,0.047877125934610285
36.863164,3.938208820078669,0.04763531721978809
36.867756,3.907495624512758,0.04739882585438253
36.872344,3.8710192681185225,0.04719262694766733
36.87694,3.8296791853436107,0.04701511732919479
36.881528,3.782043061435164,0.04683183856714525
36.886112,3.7327302533455673,0.046632724199535736
36.890692,3.674056546637055,0.04646088246296966
36.895284,3.6120294715662418,0.04625753989636107
36.899876,3.5457937351341093,0.04611428641463657
36.904468,3.4763709565024508,0.046014642090072846
36.90906,3.4022066362042622,0.04593088696276265
36.91364,3.3275094356008625,0.04579994627286838
36.918232,3.250236116368665,0.04564634098194822
36.922824,3.1710417435270264,0.045496892033919836
36.927408,3.086372720733982,0.04545560363581757
36.932008,3.007222489340972,0.045391447079595845
36.936596,2.9310149307191957,0.045295891516995396
36.941188,2.8519868840403304,0.04520596640920335
36.94578,2.7761458795609917,0.04504738936672474
36.95038,2.6972400175962723,0.04492235716684038
36.954984,2.61449204841267,0.04481997310918303
36.959576,2.5407384237055464,0.044725288504899575
36.96418,2.467106983712568,0.04461090620187772
36.96876,2.396418216490825,0.04445220836750951
36.97336,2.327528318164377,0.044278740802832325
36.977948,2.2594156695714323,0.04411459673909544
36.982544,2.195922377930872,0.043933865548678945
36.987132,2.1384807579955547,0.04379810143826178
36.991728,2.084226180259764,0.04359157548333492
36.99632,2.029072168076326,0.04338290863145543
37.000916,1.9775158936834785,0.04317153075254934
37.005508,1.9300902373864335,0.043023821615611135
37.010104,1.8840968958422473,0.04294290596950923
37.014692,1.8388808040315634,0.04288470159469283
37.019284,1.7968517544204057,0.04274874316285313
37.023872,1.7461168712096888,0.04272296719027816
37.028464,1.6953819879989724,0.04267627435256506
37.033044,1.643625485626462,0.04265524424442013
37.037644,1.5849620185496887,0.04275295191370429
37.042232,1.5320617123012394,0.04275813058560499
37.046824,1.4831256979858185,0.042662155913174946
37.051412,1.427649273108571,0.04262082166136492
37.055988,1.3778138243455023,0.042500412511625604
37.06058,1.3250357028111985,0.040378932260829774
37.065168,1.2729126462962512,0.0382886735701411
37.069748,1.2216890242289518,0.03620471715962934
37.074344,1.1704654021616525,0.03413071175175826
37.078932,1.115888411732053,0.03203264086684152
37.083528,1.059390367693012,0.029965626152345527
37.088124,1.0039139428157648,0.027887878494587695
37.092712,0.9485597026526633,0.025817529200796895
37.097316,0.8916509630225574,0.023720862443867584
37.101904,0.8358860272683907,0.02158028206697842
37.106504,0.7829415795713132,0.019423841236110732
37.111092,0.7328176199313249,0.01728028556537119
37.115692,0.6885790058338063,0.015061799647411833
37.12028,0.6437294681655593,0.01288704068188712
37.12488,0.6022332988596125,0.010692667449699505
37.129468,0.5654786712201961,0.008438152629791987
37.134064,0.524637566933606,0.006266560600142045
37.138648,0.4816310396092829,0.004185598562149626
37.143244,0.44528710756093176,0.0020479505974190237
37.147828,0.4049788835795523,0.0
37.152424,0.36700240879867935,0.0
37.157012,0.32992536846545417,0.0
37.161604,0.2930102429897308,0.0
37.166196,0.2587934208569509,0.0
37.170788,0.22805215180061675,0.0
37.175376,0.20090862053487404,0.0
37.179972,0.17646339261207492,0.0
37.184556,0.15369484887042578,0.0
37.189148,0.1326029893099267,0.0
37.19374,0.11330999864472334,0.0
37.198328,0.09491644242716783,0.0
37.20292,0.07730013594311447,0.0
37.207512,0.060461079192563265,0.0
37.212104,0.046809064641538334,0.0
37.2167,0.034423038680598254,0.0
37.221276,0.02383588161495388,0.0
37.225868,0.016191397320544407,0.0
37.23046,0.011367401083224158,0.0
