Time,Force,Position
32.305595999999994,0.11099656203841891,0.0
32.31018399999999,0.12138856213998926,0.0
32.314775999999995,0.13460105029864883,0.0
32.319372,0.14679191929551488,0.0
32.323980000000006,0.16000440745417444,0.0
32.328576,0.1730947108986884,0.0
32.333175999999995,0.18593116259404963,0.0
32.337772,0.19545838737573898,0.0
32.34236799999999,0.20138787436683692,0.0
32.346964,0.20179856995790213,0.0
32.351547999999994,0.20335306942490647,0.0
32.35613599999999,0.2038859497301173,0.0
32.360724000000005,0.1999216577970889,0.0
32.36531599999999,0.19391412754047344,0.0
32.369907999999995,0.18892821644565147,0.0
32.37449599999999,0.18622991310270792,0.0
32.379088,0.18467541363570353,0.0
32.383668,0.17981168725502727,0.0
32.38826,0.17135022308375958,0.0
32.392848,0.1628887589124919,0.0
32.397436,0.15532672918887205,0.0
32.402028,0.1478868841793979,0.0
32.406616,0.13467439602073836,0.0
32.41122,0.12441406295417498,0.0
32.41581599999999,0.11300992601167241,0.0
32.420404000000005,0.10172797378331551,0.0
32.425,0.08863767033880159,0.0
32.429587999999995,0.07579173632257903,0.0
32.434192,0.06384523675400433,0.0
32.438772,0.05664976117282153,0.0
32.44336799999999,0.052274773648727936,0.0
32.447952,0.04904359000057354,0.0
32.452552,0.05006520916236708,0.0
32.457144,0.05366294695295848,0.0
32.461740000000006,0.05689413060111287,0.0
32.466331999999994,0.059880944820975925,0.0
32.470924,0.06237902018425629,0.0
32.475516,0.06667596444283236,0.0
32.480108,0.07894563401609342,0.0
32.484708,0.09366923750400667,0.0
32.4893,0.10855916715469376,0.0
32.493888,0.12631372631109822,0.0
32.49848,0.15426005758940983,0.0
32.503060000000005,0.1882146764352144,0.0
32.50766,0.22966352137086007,0.006718886641829909
32.512248,0.2836807863884251,0.013852372593199366
32.51684,0.3572270599616622,0.0209549575438361
32.521424,0.44943756677069047,0.028149585921512885
32.526011999999994,0.5572033078815011,0.035467696387369636
32.530604,0.6798597359538762,0.04281252275309695
32.535184,0.8201146366516208,0.05005320238035849
32.539772,0.9759247716511478,0.057328626176154
32.544368000000006,1.1477788798090398,0.06456767438620994
32.548956000000004,1.3350660375545687,0.07189066489295755
32.55354799999999,1.5401960373537582,0.07921251467589693
32.558139999999995,1.7620250753306692,0.08655277771829091
32.562740000000005,1.9982214022847953,0.09390512087977813
32.567344000000006,2.2504617023972866,0.10126130390202182
32.571944,2.512205565106316,0.10866300219833755
32.576536000000004,2.787050728202477,0.11609931583343312
32.581124,3.074708680808848,0.12357882910226328
32.585719999999995,3.372603304296633,0.1311036756188952
32.5903,3.6754160352454615,0.1386489267202748
32.5949,3.9790501573764208,0.1462093426037903
32.599487999999994,4.283495431057772,0.147013669660942
32.604088000000004,4.581179586934156,0.14734290174812112
32.608672,4.862819769652176,0.1476850239240466
32.613268000000005,5.1253850235433385,0.14791734629849732
32.61785999999999,5.372517227846865,0.14801855827148272
32.622452,5.601684405382584,0.14813398760393423
32.627044,5.809411003074051,0.14838723325157407
32.631636,5.999661312854295,0.14861882632595702
32.636224,6.166916543323283,0.14895327528686192
32.64080799999999,6.318039517736648,0.1491620381906289
32.645388,6.451397693361871,0.14934591706341815
32.64998,6.570344438561251,0.149461473504968
32.654572,6.6706710919734675,0.14960453736930804
32.659164000000004,6.7527442077409585,0.1497546509642807
32.66375599999999,6.820405893082606,0.14983551917570637
32.668344000000005,6.875821571036143,0.1498030875703104
32.672928,6.918746872173276,0.1496757089138208
32.67752,6.950736295961014,0.1494467990793487
32.682100000000005,6.971711799133836,0.1491696598196911
32.686708,6.98225040344558,0.148894698449487
32.691295999999994,6.982806945935942,0.14868217910191941
32.69588399999999,6.976901121129994,0.1485273693883401
32.700475999999995,6.969562981571189,0.1483750883928282
32.705076000000005,6.965944764517118,0.14816464914894703
32.70966799999999,6.96424760107249,0.14792211831147725
32.714264,6.969457402332126,0.14755622088920645
32.718856,6.978631495524789,0.1471183889149959
32.723444,6.990626076774543,0.14663697227443412
32.728044,7.011082122195564,0.14602180680654114
32.732624,7.035424416284096,0.14538970185485747
32.737224,7.0619762748589885,0.1447547349050892
32.741820000000004,7.085341091234355,0.14418764503690376
32.74641199999999,7.11410251429561,0.14354852668146473
32.750996,7.150059412938046,0.14282114844869945
32.75559199999999,7.189369679942784,0.1420694700037443
32.760180000000005,7.225615089462139,0.1413827843243327
32.764771999999994,7.264192248182001,0.1406941429898172
32.769364,7.302402852759427,0.14003524606668427
32.773956,7.341390707070355,0.13937798059169093
32.778536,7.384098483886019,0.13867080446550614
32.783124,7.433713225405947,0.13785843198440728
32.787704000000005,7.486925704716466,0.13700830653277754
32.792283999999995,7.54115980318878,0.136145268276023
32.79687199999999,7.591063055585627,0.13537362960235264
32.801460000000006,7.641088492696621,0.13460441232283976
32.806051999999994,7.68841562646467,0.13388072832042536
32.81063999999999,7.733044456889775,0.13319139512250663
32.815228000000005,7.778162026171463,0.13248336860990728
32.819824,7.819804042376707,0.13181737507625144
32.824411999999995,7.8601359285432375,0.1311554154544934
32.829012000000006,7.899690564976266,0.13050149088828605
32.833603999999994,7.941899363303609,0.1297840949855192
32.83819199999999,7.985985073791765,0.12901770047594707
32.842788,8.023241862841175,0.12831407204613765
32.847384000000005,8.054691349613636,0.12765173637239435
32.851984,8.088428444137971,0.12695066911039932
32.856564000000006,8.116358236385357,0.126290167886442
32.861155999999994,8.141301214412877,0.12563505233778177
32.86574399999999,8.16620005099177,0.12494966468407702
32.870344,8.187745519208363,0.12428778972238538
32.874932,8.204793815186719,0.12367547150820245
32.87952799999999,8.217955862497561,0.12307625034421561
32.884124,8.230462844789047,0.12247508525164576
32.88871999999999,8.243702935365409,0.12183556450954855
32.89332399999999,8.25551071118891,0.12119706855549833
32.89792,8.261022445878876,0.1206140694302332
32.902508,8.268166723301364,0.11998629120406272
32.907107999999994,8.274778120418642,0.11935208160520232
32.9117,8.282533321411858,0.11869996879188753
32.916296,8.287223664919694,0.11809153368197374
32.920884,8.29276930142655,0.1174432724354921
32.925472,8.299991622114554,0.1167906452946192
32.93006,8.300429162812444,0.11621591982790282
32.934652,8.301643953243834,0.11563881362968052
32.939244,8.30465761257052,0.11504550813297677
32.943836000000005,8.30280754551653,0.11450678078152601
32.948424,8.304066477396546,0.11396266731050098
32.953,8.304836670419983,0.11344099828538398
32.957592000000005,8.304096505425042,0.11295795610965911
32.962180000000004,8.309119501258426,0.1124167131026433
32.966768,8.31491974682531,0.11187615164568314
32.971363999999994,8.324850610488,0.11132113158016337
32.975944,8.333637670274747,0.1107852758154994
32.980532,8.347044087013883,0.11021363345032795
32.985124,8.360983384058226,0.10965526228882018
32.989704,8.383384145273839,0.10902121089676713
32.994296000000006,8.41057058960461,0.10838539611077817
32.998876,8.435880121774568,0.10780519908323388
33.00347599999999,8.460823099802088,0.10724610704935823
33.00806,8.486543327563112,0.10668699811768953
33.01266,8.51038664316332,0.10618307732642207
33.017252,8.530510036258796,0.10571249806272769
33.021848000000006,8.552965178554775,0.10523996949568105
33.026428,8.579018058641347,0.10474656054781449
33.03102,8.609323741537866,0.10423897930495282
33.035608,8.645270400548563,0.10368718064313191
33.040204,8.681461428987554,0.10312763915511136
33.044792,8.723537802969012,0.10251550235104606
33.04938,8.76459255778868,0.1019155420361274
33.053968,8.802460270408817,0.10136233891822417
33.058564000000004,8.839550733295454,0.10081276275967484
33.063148,8.87279908896321,0.10029936525812581
33.06774,8.908867932688054,0.0997670155198273
33.07233599999999,8.938929246156281,0.09929739861583617
33.076924000000005,8.965392821833918,0.09884910642934103
33.08151599999999,8.98891372474032,0.09843239007064863
33.086104000000006,9.006260771227332,0.09804989159639124
33.090692000000004,9.024340925999216,0.09763620047673296
33.095288,9.043442699932898,0.09721491683497605
33.099868,9.06585370078025,0.09675562581094284
33.104456,9.089652874931831,0.09627210360785896
33.109044,9.116272537140503,0.09577143438405929
33.113632,9.143747492348194,0.09523597857777998
33.118236,9.168768513641234,0.09470829302461202
33.122816,9.190680536000261,0.09418272451370145
33.12741199999999,9.208095386121052,0.09368205458035347
33.131992,9.222034683165399,0.09319427456216652
33.136596,9.235318915190389,0.09270633565974795
33.141180000000006,9.249214070786106,0.09219306050708513
33.14578,9.260777477181316,0.09167788376108825
33.150364,9.270664199395377,0.09116629567035588
33.154951999999994,9.279240791570725,0.09064142121466418
33.15953999999999,9.286629438421507,0.09010192822077454
33.164136,9.295894997433098,0.08951724669323698
33.168724,9.309491402520157,0.08888649459640102
33.173316,9.321655492854358,0.08825017456031396
33.177904,9.335207756492787,0.08759092725554665
33.182492,9.347083335950067,0.08693498056050675
33.187079999999995,9.352129993968603,0.08629309894598372
33.191672,9.348837372530014,0.08569430265736201
33.196264,9.341169763567333,0.08510785327874137
33.200860000000006,9.329249351794704,0.08452934220843157
33.205456,9.314141897822548,0.08398027627804563
33.210036,9.2962139557933,0.08344530703406307
33.214628000000005,9.276364960154611,0.0829210583905183
33.219216,9.257415398963573,0.08239165974221237
33.223804,9.240386891381975,0.08184823392044968
33.228412000000006,9.217595222972056,0.0813396380708853
33.233000000000004,9.192882500952692,0.08084024164095933
33.237588,9.169846463114478,0.08033780702957262
33.242176,9.15028597835271,0.07982696681757619
33.246768,9.135344850543328,0.0792945432407148
33.251360000000005,9.116972311106128,0.0787997992574211
33.255956,9.099132651974138,0.07831604706394811
33.260548,9.079660450109627,0.0778650194830804
33.265136,9.058022825207383,0.0774326834327817
33.269735999999995,9.03332034281976,0.07702196116416828
33.274316,9.011071794346787,0.0766114768483007
33.278912000000005,8.995774352026706,0.07618669010960123
33.28350399999999,8.98767238528781,0.0757382690373344
33.288088,8.984722655806507,0.07528290749096539
33.292676,8.985903544421008,0.07482921187908471
33.29727199999999,8.994402093330839,0.07435129794355487
33.301860000000005,9.007519999193054,0.07385640526242736
33.306456,9.022070219808128,0.073371429552657
33.311043999999995,9.038419309318499,0.07288294328457047
33.315636,9.060165005514753,0.07238399844266262
33.320228,9.083465201178013,0.07188935196255467
33.32482399999999,9.114083057136604,0.07137493176620022
33.329412000000005,9.144578728381049,0.07086743044671245
33.334008,9.173275530730196,0.07036774094494215
33.3386,9.200706344489257,0.06988859808468097
33.343180000000004,9.232878699914853,0.06939046327636873
33.34777199999999,9.263785066750359,0.0689102912267445
33.35234799999999,9.29379199913822,0.06843295747661239
33.356944,9.329317722926115,0.06794082455092092
33.36152799999999,9.368196815076308,0.06745124300164103
33.366116000000005,9.408996960835943,0.06695819700104005
33.370728,9.449019856862076,0.06646690599800183
33.37532,9.490186556764149,0.06597035967481008
33.379908,9.530698191646865,0.06547052174216245
33.384496,9.567612088738988,0.06497947763100044
33.389088,9.596553260516428,0.0645015172094048
33.39368399999999,9.624350628417929,0.06403780125933538
33.398264,9.651492931300073,0.06356748382884918
33.402863999999994,9.677735799734569,0.0631010183644506
33.40745199999999,9.697438257607237,0.06265679713149168
33.412052,9.721105007412936,0.06219575470430693
33.41664,9.738764226962017,0.0617684608017164
33.42124,9.756545631225245,0.06133789862610141
33.425828,9.776248089097914,0.06090275991994638
33.43042,9.793496613055932,0.06046326691399519
33.435012,9.808946268118653,0.060028225758366104
33.43960799999999,9.826561346219107,0.0595788216217379
33.444196000000005,9.845564597623794,0.05911158817618657
33.44878799999999,9.86199173039968,0.05864589283509205
33.45338,9.875065494813267,0.05817545902237795
33.457964000000004,9.880455044789088,0.057730168422030916
33.462543999999994,9.884822975603115,0.057291431042523024
33.46714,9.88228394171288,0.05688076175091225
33.471732,9.876802235051409,0.05648126491886991
33.47632,9.874263201161174,0.056070643582412684
33.480912000000004,9.873933731757297,0.05567372782823662
33.485491999999994,9.870783774296335,0.055283295199111765
33.490084,9.86853325128302,0.054892178979094035
33.494668000000004,9.865383293822056,0.05450172723522498
33.49925999999999,9.862477705789383,0.05410147522672036
33.50386399999999,9.853808956928386,0.053717961514550244
33.508452000000005,9.844485143048034,0.05332528424233128
33.513040000000004,9.832218656396448,0.05294182775575047
33.51763199999999,9.812145770592947,0.0525825789399589
33.522223999999994,9.79146196121872,0.052243604871744245
33.526816,9.768612728806758,0.05191764170731776
33.531412,9.744497507804713,0.05160489002728502
33.536007999999995,9.716173625441348,0.051313638757321214
33.540595999999994,9.68351889700252,0.05104838543924552
33.545196000000004,9.653195917764194,0.05079388196994799
33.549775999999994,9.623650188259372,0.05054111598506401
33.554376000000005,9.589895797393233,0.050310162771710035
33.55896799999999,9.558062460136533,0.05007234769081156
33.563564,9.527006372613334,0.049837275415863184
33.568160000000006,9.489942754833521,0.04962404569669162
33.572751999999994,9.452101887320206,0.04940518807837258
33.577348,9.411562716463946,0.04918444618137856
33.58194399999999,9.364893830636925,0.04898974155231224
33.586532000000005,9.314016283448584,0.048816115864805575
33.591128,9.260484574365929,0.048672535292029424
33.59571199999999,9.204787442245541,0.04854109935358059
33.600308,9.144104399030331,0.04842638192508405
33.60489199999999,9.080356498329744,0.048323994578796145
33.609476,9.01840746652445,0.04821986731715544
33.614068,8.955681184985652,0.048109564396215
33.618652,8.891033849837415,0.04800244388357171
33.623248000000004,8.817802865803761,0.04791304953521889
33.627836,8.744205327627672,0.04783711678671792
33.632428000000004,8.66790948610864,0.04776034464116946
33.637007999999994,8.585073234027778,0.04769205951050554
33.641592,8.502236981946922,0.04762222839274433
33.646204,8.417601860970768,0.04755160859715865
33.650788000000006,8.326059775290348,0.0475051414817751
33.6554,8.227732909619814,0.04747763875060488
33.659992,8.127240620911547,0.04746615221053761
33.66458,8.022661855556104,0.047474412932229024
33.66917599999999,7.916572732182285,0.047508981750594065
33.673772,7.813548466293848,0.04752687561781596
33.678376,7.710524200405411,0.047544939281808654
33.682968,7.6085215536787665,0.04755833927719452
33.687560000000005,7.506518906952123,0.04757186480222806
33.692139999999995,7.405171325244834,0.047598577320335095
33.696736,7.307665850756429,0.047612506485947115
33.701316000000006,7.210160376268025,0.047624987372179885
33.705916,7.108812794560737,0.0476475387611086
33.710508000000004,7.005666343958154,0.04766845082580748
33.715104,6.904318762250866,0.0476915463419185
33.719684,6.800517246628925,0.04770229442155705
33.724276,6.697615165454634,0.047713164499622034
33.728880000000004,6.594590899566196,0.0477315325873573
33.733476,6.49066719923011,0.04774791722579779
33.738063999999994,6.386621314179878,0.04777213387246324
33.74266,6.285518101900883,0.04778552271019348
