Time,Force,Position
32.346571999999995,0.1613322662638658,0.0
32.351152,0.14292132652896794,0.0
32.355732,0.12540982124171796,0.0
32.360328,0.10891993511626148,0.0
32.364908,0.09063118009550937,0.0
32.369499999999995,0.07336404423655071,0.0
32.374095999999994,0.06096063475826836,0.0
32.378684,0.05047827888942738,0.0
32.383284,0.040240292448877744,0.0
32.387884,0.029757936580036767,0.0
32.392488,0.025138579627651834,0.0
32.397068,0.026404568217736707,0.0
32.401664,0.02689330707431939,0.0
32.406244,0.02750423064504775,0.0
32.410844,0.02864803452098695,0.0
32.415432,0.031835076720513195,0.0
32.420032,0.033756130329954566,0.0
32.424616,0.0288924039492783,0.0
32.429212,0.03273451116816104,0.0
32.433792,0.037598237548837316,0.0
32.438388,0.041562529481865736,0.0
32.442988,0.04754771311246746,0.0
32.447579999999995,0.05520958092421921,0.0
32.452172,0.06364869846947314,0.0
32.456768,0.06746845906234214,0.0
32.461355999999995,0.06756829715047408,0.0
32.465944,0.06756829715047406,0.0
32.470532,0.06756829715047409,0.0
32.475124,0.06756829715047409,0.0
32.479712,0.0683334398897013,0.0
32.4843,0.06896484272390721,0.0
32.488896,0.07254915796108682,0.0
32.493483999999995,0.08260608012631404,0.0
32.498079999999995,0.10690810655461058,0.0
32.502664,0.15175127837951144,0.010690415543576146
32.507251999999994,0.21088369591610984,0.020660694264462078
32.511848,0.2883918358115798,0.03001251088135229
32.516436,0.38656330581779985,0.0389153503927059
32.521024,0.49231728481111725,0.047884389469463634
32.525628,0.6110503794774192,0.056787077580785605
32.530216,0.7458274473020862,0.06551334035170493
32.534808,0.8991024221997703,0.0740123735433665
32.5394,1.0663781319322327,0.08245526414579407
32.543996,1.2505972492707078,0.09076591973314888
32.548587999999995,1.4621422919959048,0.09879343075587058
32.553183999999995,1.692673980650702,0.10678413252568354
32.557776,1.9434359571991702,0.11460972751736902
32.56238,2.2124073299437366,0.12234028933093065
32.566972,2.4961125458079554,0.13004478995498753
32.571568,2.792476332013885,0.1377209168892186
32.576159999999994,3.0997216144888453,0.1453687157043038
32.580756,3.411752580078967,0.1530064895804228
32.585344,3.7217742091623913,0.16064600823394656
32.58994,4.025357133134657,0.1681670741729286
32.594528,4.307333151099897,0.1650149564755074
32.599124,4.5721994352963495,0.16258877402479055
32.603711999999994,4.820200355152307,0.16073394581715317
32.6083,5.049092444364519,0.15936690664653028
32.612888,5.270035470447196,0.15788613160980644
32.61748,5.478776630590391,0.1564442433750149
32.622072,5.671351632861076,0.155186917593289
32.626667999999995,5.847349781668186,0.15411343732764937
32.631252,6.008936500049452,0.153058532332055
32.635828,6.152924745805348,0.15212783460752827
32.640424,6.273184803965113,0.1515016789417892
32.645011999999994,6.380754257328813,0.15088041780204753
32.6496,6.465372772829886,0.1504723040029852
32.654196,6.534846749620241,0.1500952260580393
32.658784,6.590852871881028,0.14970726300252848
32.663388,6.63278021604152,0.149344828663372
32.667984,6.664226519892306,0.14895325976135235
32.672571999999995,6.687934228224961,0.14853062440160295
32.677172,6.709999154193353,0.14804089893369313
32.681763999999994,6.7278554188004245,0.14765279483504223
32.68636,6.752252093969323,0.14716140139986286
32.690948,6.779957996051894,0.14659581044628703
32.695547999999995,6.805742844525023,0.14606651808584176
32.70014,6.833038051016528,0.14548349273672004
32.704732,6.8618436155264115,0.14486176322720637
32.709315999999994,6.889216865283435,0.144245551208804
32.713916,6.918877722792337,0.14357737086927844
32.718508,6.946739711405941,0.14293808484176526
32.723096,6.977422188076638,0.14226474430686298
32.727688,7.00732741501383,0.14159572430414777
32.732284,7.039642434417047,0.14086628573685994
32.736872,7.070647323781552,0.14013710416334157
32.74146,7.108559177850319,0.13929102617631184
32.746052,7.142628924700203,0.1385120326910509
32.75064,7.177842475426027,0.13771523681920905
32.755227999999995,7.214077645313644,0.13690053064638744
32.759828,7.246470707982379,0.13614914011934895
32.764416,7.278985955365258,0.13539848585277608
32.769012,7.305327346328749,0.13472174491622188
32.773604,7.329336988091734,0.13405776699414493
32.778195999999994,7.350403957083484,0.13344929633007674
32.782792,7.369183318323355,0.1328954089908479
32.787384,7.38784049484908,0.13234818701292864
32.791979999999995,7.409806898288477,0.1317391852604007
32.796568,7.424455641432546,0.13122420888058786
32.801156,7.438204950128967,0.13072003617089561
32.805752,7.4521986282536785,0.130206725228049
32.81034,7.465537241359034,0.12968990787994916
32.814932,7.471313824740769,0.12927516636873787
32.819528,7.47835639671259,0.1288297422926041
32.824116,7.48233411119903,0.12843514270415735
32.82872,7.485534575951968,0.12804463090893167
32.833307999999995,7.483993499038376,0.12771850040532054
32.837912,7.4838405954290135,0.12735486878817648
32.842504,7.481644453496066,0.12702539164635815
32.8471,7.479692680991406,0.12668243595970374
32.851679999999995,7.479784146810336,0.12630632081625068
32.85628,7.479342732324055,0.12592089787323915
32.860872,7.483642859504305,0.1254757445579041
32.865464,7.490230594436431,0.12498595935878182
32.870048,7.49232115713032,0.12454078143930848
32.874635999999995,7.497476577309588,0.12405051559381296
32.87924,7.501854747755355,0.12356118022612549
32.883827999999994,7.501002637678008,0.12315871710747242
32.88842,7.500028342886515,0.1227605181958466
32.893007999999995,7.500975101704466,0.12233801869383343
32.897596,7.498201938017678,0.12195843350222853
32.902187999999995,7.497472012654477,0.12154817661207931
32.906768,7.498907510329008,0.12109721376114102
32.911359999999995,7.502141876898834,0.1206308084321148
32.915944,7.507663851220541,0.12011937085307864
32.920531999999994,7.510365337485157,0.119639693427834
32.925128,7.518297104272887,0.11907977078271127
32.929708,7.525984501632326,0.11853457141355994
32.934304,7.533671898991765,0.11799031354223502
32.938896,7.54201436137056,0.11745306937820726
32.943484,7.5522778773587955,0.11689568578030522
32.94808,7.5593543511475065,0.11638991380052816
32.952668,7.565287021060278,0.11590847438805756
32.957255999999994,7.569831517668818,0.11546283312157048
32.961852,7.579894805677391,0.1149629047179858
32.966448,7.586238171181227,0.11450348016574675
32.971044,7.5951576553138604,0.11402736537941148
32.975624,7.6061203777700825,0.1135219817810516
32.980228,7.620925207445186,0.11297217581467081
32.984815999999995,7.634708417958495,0.11243885062702469
32.989416,7.65172281211996,0.11189556495693441
32.993992,7.664284175491813,0.1114278784512798
32.998591999999995,7.680321091940113,0.11093776732999534
33.003187999999994,7.694192585350678,0.11048492343132972
33.00778,7.7114174471235435,0.11001979517053397
33.012367999999995,7.734038915582297,0.10951232984109241
33.01696,7.748120876604264,0.10913435918567545
33.021552,7.7627357179314425,0.10876945115003223
33.026143999999995,7.7760845706685355,0.10843082386791386
33.030732,7.789189053977338,0.10810658914757598
33.035328,7.793221149544145,0.10789568232965524
33.039916,7.800850982901542,0.10765659015044773
33.0445,7.807459197097145,0.10743176887745792
33.049088,7.812268542397454,0.10722076847244036
33.05368,7.81376866078409,0.10706309553259014
33.058276,7.812858986704702,0.10695077099059859
33.062864,7.812071497339461,0.10683238288972419
33.067456,7.812960692155368,0.10670685620137454
33.072044,7.8174476247618685,0.10655551079546836
33.076636,7.823489056835373,0.10640396471372701
33.081232,7.824911131956491,0.1062919153548678
33.085812,7.834139606229521,0.10609608471048798
33.090419999999995,7.838504354121877,0.10595204347873594
33.095008,7.8427469173000866,0.10581439681379366
33.099596,7.841470689078263,0.10572272495288229
33.104192,7.838273407246998,0.10565044353993414
33.108784,7.844270697871876,0.10546545490662192
33.113388,7.8507567273533345,0.10525680086855921
33.117964,7.859408179872527,0.10501744376201977
33.12256,7.869325620981804,0.10475514159151934
33.127148,7.891013753176022,0.10436860061895999
33.131747999999995,7.911025201189086,0.10399068780624889
33.136336,7.93307988752574,0.1035908542059949
33.140927999999995,7.959876115528924,0.10315061725603888
33.145512,7.990103755159926,0.10265793745965719
33.150108,8.023518436990456,0.10212116249948809
33.154695999999994,8.058076922696921,0.10157159240108375
33.159292,8.089159855326942,0.10104144287913391
33.163888,8.115379061576288,0.10056380303684238
33.168488,8.143108625844011,0.10005636464851254
33.173064,8.175046851473052,0.09949651326986297
33.177651999999995,8.199667416806763,0.09899130723026153
33.182232,8.230295512397092,0.09842456835054891
33.186831999999995,8.262189596577505,0.09783707216953118
33.19142,8.296126919081503,0.09722698190048117
33.19602,8.328631926832646,0.09661262897024668
33.200612,8.350754416803078,0.09608287198880651
33.205192,8.372099657040009,0.09555546778319524
33.209792,8.394833070581168,0.0950041589407864
33.21438,8.415112550207677,0.09445990297006734
33.218972,8.432815911205388,0.09393225844404667
33.223568,8.451008011059681,0.09338393426529952
33.228156,8.465846742551674,0.09284571228652701
33.232752,8.476066117091282,0.09233890591023249
33.237331999999995,8.48370937300209,0.09184271880130665
33.24192,8.493518051950636,0.09132283827421372
33.246516,8.498707373946793,0.09083195938871702
33.251107999999995,8.506961553428333,0.09031129031650527
33.255703999999994,8.515826656480598,0.08976380635328234
33.260292,8.519050783418685,0.08925511841295318
33.264892,8.521619845337415,0.08874141419199455
33.269479999999994,8.527253764741527,0.0881975083910136
33.274076,8.531455369392777,0.08764941850995124
33.278668,8.535001909024674,0.08709618128803091
33.283264,8.53969225253251,0.08652970264953531
33.287852,8.545159845773847,0.08596504077072817
33.292444,8.559333272614744,0.08533697862755892
33.29704,8.572607265007992,0.08471387934968487
33.301635999999995,8.581916965468213,0.08412414197306944
33.306224,8.591881730947788,0.08354215973882874
33.310824,8.598126573922627,0.08298192448754883
33.315416,8.605803731650328,0.08243297728518789
33.320015999999995,8.61785587690212,0.08187359296016272
33.324604,8.633994498801083,0.08128057468340481
33.329187999999995,8.652831424042992,0.08068015447866342
33.333776,8.669869480389606,0.08009015416563267
33.338372,8.692670697564543,0.07946684637056729
33.342963999999995,8.716615718615422,0.07883523755798806
33.347552,8.738761870771006,0.07821116057555964
33.352135999999994,8.762829076536027,0.07757477920438849
33.356728,8.787429162606266,0.07695417820121574
33.36132,8.813828117571793,0.0763318707867425
33.365908,8.839738333680742,0.07573436190507533
33.3705,8.865648549789691,0.07513963437260894
33.375111999999994,8.892458200346287,0.07454698429889095
33.3797,8.922454893102408,0.07393106246969415
33.384304,8.94938672837315,0.0733427435898346
33.388895999999995,8.978239617253333,0.07274694130407995
33.3935,9.011056798066544,0.07212902611631204
33.398092,9.046816651650989,0.07149876345976287
33.402688,9.085396993292525,0.07085888310316694
33.407284,9.11948016269582,0.07023217677711152
33.411876,9.14984340959438,0.06962319075344646
33.41648,9.178940667902854,0.06903573237702844
33.42106,9.204073634278302,0.06847346109704333
33.42566,9.231005469549041,0.0679108071063605
33.430248,9.254994632048549,0.06736811420549138
33.434847999999995,9.279638859567413,0.066838692323425
33.439436,9.305060336819778,0.06631267338568853
33.444044,9.331503433233939,0.06578173912712479
33.448636,9.359334702952328,0.06523428490358169
33.453232,9.38818759183251,0.06468611095916803
33.45782,9.415485981245688,0.06413393446350055
33.462408,9.442906555373012,0.06357978937853605
33.466995999999995,9.467506641443247,0.06303760407433406
33.471591999999994,9.487120816418662,0.0625238831912134
33.476184,9.50824534941245,0.06198839399597846
33.480784,9.527693198225089,0.061453140898719276
33.485372,9.543176755104698,0.06093839373445235
33.48996,9.553385890012569,0.06042800957485134
33.494547999999995,9.562695590472792,0.05992061184895079
33.499148,9.574947963704249,0.05940049149171613
33.503736,9.589487944687582,0.05886167633059063
33.508336,9.600674557308617,0.05831812927221524
33.512932,9.61337152794803,0.057750771631288604
33.517523999999995,9.619528088025618,0.05719854016124222
33.522124,9.622864160046111,0.056652771226212685
33.526708,9.616717148733544,0.05613211996008684
33.531304,9.61081450684927,0.055601880387367936
33.535892,9.603890245803198,0.05507684107008637
33.540484,9.590181204767013,0.054573595387854335
33.545096,9.566989080397768,0.05409292811662066
33.549684,9.538933229647846,0.05362532913715639
33.55428,9.507690336698397,0.0531755467282882
33.558876,9.467741610149389,0.052748524315077074
33.563468,9.422929157219706,0.05233373641704741
33.568064,9.368677762405587,0.05197076215205936
33.572652,9.309851152087713,0.05164379007269746
33.577256,9.247304619265101,0.051319112439172906
33.581848,9.181204490100528,0.0510243021668983
33.586451999999994,9.108075211517544,0.05075722357035052
33.59104,9.027017349068505,0.050517995477168794
33.59564,8.934966045268025,0.050321610707007094
33.600224,8.842670372039256,0.05012912570647122
33.604824,8.743878429697286,0.04997785176614832
33.609412,8.64447556378459,0.04984858688553713
33.614011999999995,8.539964602062929,0.04974303053137718
33.618604,8.436230890074764,0.04963942844934082
33.6232,8.324857105097466,0.04959192922014573
33.627776,8.207231420435262,0.04958036326476078
33.632372,8.088994812202328,0.049593228432725484
33.636972,7.971291084274606,0.04962026377977745
33.641568,7.857062909423329,0.04964831153461351
33.646156,7.738870442639024,0.04969190839419671
33.650752,7.629139440025986,0.04971545039960449
33.655339999999995,7.5222289254700385,0.04973106380285891
33.659924,7.421325941170705,0.049717042015524245
33.664511999999995,7.3196457071378696,0.0496983225555091
33.669087999999995,7.216455115086657,0.049708094523270796
33.67368,7.115962826378389,0.04971763802301654
33.678272,7.019068275460713,0.0497267812874197
33.682863999999995,6.928714135104863,0.04972133432358615
33.687452,6.844656035882546,0.04971625169932342
33.692032,6.758188144194207,0.049740226540543844
33.696639999999995,6.674418555848811,0.0497657640880706
33.701232,6.592037140807645,0.0497648003429723
33.70582,6.516318321042452,0.04974278649931233
33.710415999999995,6.438434078239525,0.049741336689399535
33.715004,6.362837443188478,0.04971634155757318
33.719604,6.290550035051102,0.04965603116387096
33.724196,6.215564323570783,0.049597303290060686
33.728792,6.140578612090465,0.04953792692398528
33.73338,6.063427477572413,0.049499127210480186
33.73798,5.986809223359573,0.04948422272417259
33.74256,5.906104492499557,0.049498025838512955
33.747156,5.824255957763603,0.04952550399392956
33.751748,5.7375436966469735,0.049574588509618336
33.756348,5.653774108301578,0.049606302067224495
33.760932,5.576911484660443,0.04959716139368919
33.765528,5.496328938514574,0.04959824046574993
33.77012,5.410349785682817,0.04960156399777898
33.774712,5.321550144793972,0.04961008645856944
33.779312,5.227476081933383,0.04961410135825772
33.783904,5.130703715729854,0.049623016410688496
33.788492,5.0315996003258165,0.04960585307152254
33.793076,4.9302078771699,0.04962169586932582
33.797667999999994,4.821498493718655,0.04964407715163369
33.802243999999995,4.715731783038645,0.04965243143956555
33.806836,4.612008310682222,0.04963757764662602
33.811428,4.505997230573921,0.04965824613465018
33.816019999999995,4.403950442398649,0.049646705017235455
33.820608,4.299616046471498,0.0496877340739782
33.825204,4.188863424696667,0.0497543075829078
33.829792,4.076800672883123,0.04978728219707361
33.83438,3.9622839871549265,0.049801804213004744
33.838972,3.843925194207847,0.04985441731540851
33.843564,3.7216021093277396,0.04997049514141794
33.848152,3.5937602330475986,0.05010054057414038
33.852748,3.4556580237008943,0.05027893890917509
33.857336,3.3161234996013316,0.050422796274056964
33.86194,3.1774884099494165,0.05058239515459547
33.866532,3.031413475288028,0.050812683100675854
33.871128,2.8898357128648784,0.051055308264155164
33.875708,2.7492795696035217,0.05131565541719902
33.880308,2.6102779258091697,0.05161979962134003
33.884899999999995,2.4685779786718745,0.052008447718707
33.889495999999994,2.329331965449232,0.05250296724758212
33.894084,2.1921291905501756,0.052934532630944706
33.898684,2.0539047964893262,0.05339165623204047
33.903279999999995,1.915924771856768,0.05091830099174377
33.907872,1.7747577050246832,0.048468035837293304
33.912464,1.6389431034298578,0.04596393276005167
33.917052,1.5097910971110042,0.04342543597062007
33.92164,1.3850140783162443,0.040894539521070895
33.926236,1.2610143092549864,0.03837201958356358
33.930828,1.1446987546314942,0.03580943724818471
33.93542,1.0387657177887109,0.033180507390382676
33.940008,0.9437480790318475,0.03055390148257686
33.944604,0.8537604928184344,0.027905235762996198
33.949192,0.7688029591484711,0.025280201438959864
33.953788,0.6930841393832777,0.022636479364142113
33.95838,0.6272590985422107,0.019930157743595182
33.962968,0.5614340577011437,0.01720858791543001
33.96756,0.49818513548887466,0.014456345859445467
33.97214,0.4373901471912577,0.011678362934228055
33.976732,0.385711688084265,0.008803038888151003
33.981328,0.3385304012155116,0.005829291073661792
