Time,Force,Position
37.235048,0.005521785684110384,0.0
37.23964,0.002496658342085838,0.0
37.24422,0.0007375195901461576,0.0
37.248816,0.0,0.0
37.253404,0.0,0.0
37.258004,0.0,0.0
37.262592,0.0,0.0
37.2672,0.0,0.0
37.271788,0.0,0.0
37.276388,0.0,0.0
37.28098,0.0,0.0
37.285572,0.0,0.0
37.290172,0.0,0.0
37.294764,0.0,0.0
37.299364,0.0,0.0
37.303964,0.0,0.0
37.308552,0.0,0.0
37.313148,0.0001707374680459531,0.0
37.317736,0.005205201316768176,0.0
37.322324,0.013182337936725297,0.0
37.326912,0.02210305045295842,0.0
37.331516,0.03160078472303054,0.0
37.336108,0.042985670785654656,0.0
37.3407,0.05871164255548299,0.0
37.345292,0.07980031919430908,0.0
37.34988,0.10408627766440018,0.0
37.354476,0.13721049407993474,0.0
37.359064,0.17623029566967788,0.0
37.363656,0.224743420224221,0.00851355536813917
37.368252,0.279029945238827,0.01710934797127698
37.372832,0.3408887396087917,0.025589432818236738
37.377444,0.41031980333411494,0.03397904847657809
37.382032,0.48527989809120975,0.04251313725257268
37.386632,0.5640923396989261,0.05127846495781823
37.391224,0.6543191578808839,0.05963274958050337
37.395824,0.7519960607040546,0.06796135566498117
37.400424,0.8544247448254946,0.07642354589460608
37.405016,0.9642549608342473,0.08482986507090443
37.40962,1.0793698384464803,0.09307717133728699
37.414208,1.198214878195189,0.10133032368893659
37.418804,1.3214790469166195,0.10958347814560998
37.423396,1.4541041142569655,0.11753036898532443
37.427992,1.5904049626534205,0.125353316740498
37.43258,1.7267397128667648,0.13303397564794775
37.437184,1.8591440729639703,0.14070625563413244
37.441776,1.991049454572854,0.14828743726561555
37.446364,2.110396655731557,0.15600877676087577
37.450948,2.2267909444872864,0.1636024081665681
37.455544,2.330094172487625,0.16280558518445085
37.460144,2.4272133044368354,0.16188565587567288
37.46474,2.518270525049063,0.1609608807123096
37.469336,2.5987686620860693,0.1601594975387277
37.473932,2.674715245804469,0.15906907620096677
37.47852,2.7486863948330607,0.1575758541551423
37.483104,2.8053136802963126,0.156647677697022
37.487692,2.8526478707744274,0.15570804013247053
37.492288,2.890444596839115,0.1547304891596946
37.496876,2.914983935985637,0.15394592409232852
37.501468,2.9232790739941312,0.15342158428434968
37.506052,2.925223789788723,0.15271553098586782
37.51064,2.9173866717415953,0.15205777859805997
37.515236,2.895436873777283,0.15171264832216788
37.519824,2.8646488178675273,0.15145819415301734
37.524412,2.826987699070398,0.15129425591426213
37.52902,2.7834751365476866,0.15119208903757028
37.533608,2.7348883800328982,0.15110069382145744
37.5382,2.6874012859454215,0.15083671240122573
37.542792,2.63332963984749,0.15073765118362437
37.54738,2.5799911020344317,0.15053619554694567
37.551984,2.527674183383167,0.15023845593867635
37.556572,2.471759526941311,0.15006053301559125
37.561168,2.419198238861755,0.1497664601785689
37.565756,2.365126592763823,0.14957904965107544
37.570352,2.3104440230951635,0.14943651528084323
37.57494,2.26115806011239,0.14910146154295945
37.579544,2.215636161082982,0.14869191188751588
37.584128,2.1779648026541136,0.14798858134991985
37.588736,2.145201312054549,0.1471610384026415
37.593328,2.120088134075861,0.1462066723233564
37.597924,2.0962070428703683,0.14540332201524458
37.602508,2.0793211992663956,0.14446699200491336
37.607104,2.0697191141408613,0.14348023545966682
37.6117,2.0636808649890295,0.1426101700261734
37.616296,2.0612064518108997,0.14186313521964483
37.620892,2.068714100454153,0.14096264753261983
37.625488,2.0830167687192627,0.14012502488111053
37.630076,2.1073014988057546,0.13917476151257135
37.634672,2.1405466715518355,0.13814935255943087
37.639264,2.1822194066522944,0.13703128502684694
37.643856,2.223858239935865,0.13618269982251677
37.648444,2.2711041475167244,0.1353501410056089
37.653036,2.3203593916042813,0.1346763736676541
37.65762,2.37150178748439,0.1341574559398052
37.662208,2.4248978892994875,0.13377495384061389
37.666804,2.483001630964227,0.13344881040235762
37.671384,2.542704013544598,0.1332429526306299
37.67596,2.6036384828981656,0.13323544618643596
37.680556,2.670546580691459,0.13319193855947323
37.685144,2.7413409271522626,0.13312220747760606
37.689752,2.812423784489986,0.1331155505706448
37.69434,2.8854718368857792,0.13316559500874656
37.69894,2.958275519853281,0.13326085757474296
37.703536,3.0363536247925245,0.1332122243391455
37.70812,3.1174965872171483,0.13303391162188466
37.712716,3.197329419603059,0.13288651694916936
37.717296,3.2732760033214587,0.13277721360069156
37.721892,3.340594796705818,0.1328716036710152
37.726472,3.40529333001275,0.13294702690249655
37.731072,3.465083995490378,0.13310175574144162
37.735664,3.529161365594843,0.1329948745897347
37.74026,3.5917622794978215,0.13281272245308887
37.744844,3.6542749105035437,0.13247162002339719
37.749436,3.7177208777738024,0.13193198927040264
37.754028,3.7759704663378377,0.13140301600708656
37.758624,3.8298789691946693,0.13079931378336027
37.763204,3.878058213040066,0.13018667680587953
37.767792,3.919975317568816,0.12954865413440808
37.77238,3.955874652209213,0.12886689121125627
37.776968,3.981547555599936,0.12827248947510114
37.781556,4.002390634426871,0.12764292748184558
37.786152,4.016194324203659,0.12699207821701358
37.790744,4.026189808578453,0.1262821700546095
37.795328,4.028124284741307,0.12558118005552865
37.799924,4.021264644407345,0.12496007505678533
37.804512,4.002790399519478,0.1244848986539269
37.809116,3.9829618831442697,0.12391187277070906
37.8137,3.9605131066916357,0.12329981753217431
37.818288,3.927882040437956,0.12284310335342066
37.82288,3.892997268249287,0.1223006420275635
37.82746,3.8487074559930745,0.12189833578953779
37.83206,3.8013086448028535,0.12150145958546689
37.836652,3.7488797810691814,0.12115689878072163
37.84124,3.695018602582652,0.12078174391504543
37.845844,3.641890532380996,0.12031328401771664
37.850432,3.59043914636049,0.11980353014521784
37.855032,3.5416860636829277,0.11923126002007685
37.859612,3.494243111044078,0.11867086239651893
37.864208,3.4486431687491526,0.11814372848761404
37.868796,3.407296029264175,0.11755201072721264
37.873396,3.3681584542655587,0.11695930573607707
37.87798,3.33356219295381,0.11634979572382512
37.882572,3.299010073090689,0.1158154659407945
37.887164,3.267977647752641,0.11529999297910916
37.891756,3.2444292088726963,0.11469757608506427
37.896352,3.2327397439749466,0.11393850082838713
37.900936,3.220605681669243,0.11331654107799535
37.905524,3.2149339866598488,0.11264231778646182
37.91012,3.222142884794443,0.11177913845822841
37.914704,3.2341816074928245,0.11097825205310262
37.9193,3.2551366314021672,0.11011029050795595
37.923888,3.279366980408292,0.10930933734772771
37.92848,3.3074055348164104,0.10859147202962098
37.933068,3.3376977951595177,0.1079837124312257
37.937648,3.374863118389999,0.107395114129602
37.942232,3.413871451964404,0.10687894800119274
37.946824,3.4575432839398226,0.10637658434594872
37.9514,3.507921852639842,0.10582952810383459
37.956004,3.5588333016450706,0.10531651724135713
37.960592,3.6162071179466087,0.10478940695687537
37.96518,3.6796326059533913,0.10420798352460037
37.969772,3.744001669856449,0.10370554713070665
37.97436,3.816343459074192,0.10311694909299174
37.978956,3.8906504433500038,0.10257412603388125
37.983544,3.9644686887692338,0.10209876848232657
37.98814,4.037920380046026,0.10168657280984705
37.992728,4.117912481884645,0.10116986518093403
37.997328,4.19994782204685,0.1006326220435731
38.001916,4.278141054990174,0.10018782971053662
38.006512,4.3567008420759334,0.09972563320827105
38.011108,4.431540706656956,0.09932996957069305
38.0157,4.505070441199266,0.09891360449224194
38.020276,4.582275956797686,0.0983867157096728
38.024872,4.6563724734620955,0.09786189671851704
38.029468,4.7246616878495535,0.09738177979165699
38.034064,4.78767648026527,0.09695230701738819
38.038652,4.843740166528095,0.09658789428334821
38.043248,4.894118735228113,0.09625388636121723
38.047828,4.94510822749886,0.09587628958326391
38.052424,4.99323309026389,0.09549191038457443
38.057004,5.035428466037822,0.09514935021089074
38.061596,5.074104147286679,0.09477442012237673
38.06618,5.103252603753847,0.09447277850742766
38.07076,5.131946223181322,0.09408931304429614
38.075352,5.158552462836582,0.09368599396250422
38.079936,5.180739573519121,0.09326185919277241
38.084524,5.196586501619495,0.09284271951180778
38.08912,5.206381758014627,0.0924637388131906
38.093712,5.215233438513483,0.09203803107635254
38.098296,5.221220489506622,0.09159235442613531
38.1029,5.22691902962284,0.0911097210462773
38.1075,5.230530189966842,0.09060375015062379
38.112104,5.2274346135862455,0.09012176876534533
38.116696,5.222007288005142,0.08963175374507554
38.1213,5.212204974899944,0.08916455998468596
38.125884,5.204035204527269,0.0886330192794943
38.13048,5.1983974113347635,0.08803057634194535
38.135068,5.188140261189873,0.0874682929762278
38.139656,5.172486504359095,0.0869463586165885
38.144248,5.150658891108928,0.08646200345225528
38.148844,5.130219451162993,0.08593117340417984
38.153428,5.107081707874112,0.08541598812067046
38.15802,5.082267280404082,0.08489880913544569
38.162628,5.051689692105729,0.08444642983655705
38.167224,5.019679789054517,0.08397514369952007
38.17182,4.985626647679717,0.08353043633057718
38.176404,4.951084767448334,0.08311792716189448
38.180992,4.918586125540539,0.08266823259807769
38.18558,4.881345941966213,0.08226388671973313
38.190168,4.841695965925863,0.0819152995658558
38.194752,4.79742663293313,0.08160444696330542
38.19934,4.7558556032833375,0.08126667146534311
38.203932,4.715594703672259,0.08094877588919608
38.208524,4.677132672956477,0.08061376385642596
38.213112,4.6461104872501675,0.0802060300856319
38.217696,4.61280069379198,0.07984475175110892
38.22228,4.577203292581915,0.07952915818759189
38.226868,4.54802411721953,0.07915845918622105
38.231476,4.5260404174383275,0.07873821443936908
38.236064,4.506388466857634,0.07832549819163523
38.240652,4.486003407992064,0.07796967589742244
38.24524,4.472036574974177,0.07756212700796053
38.249836,4.467064086432766,0.07709857086722573
38.254432,4.468265454310745,0.07660595623559717
38.259024,4.472698005836879,0.07612225328895572
38.263616,4.479584491277664,0.07564002658598165
38.268204,4.491867583404337,0.07512968291263557
38.2728,4.506482424731516,0.07463906916741841
38.277388,4.530991044982821,0.07409799199014315
38.281996,4.558320153291216,0.07353320843951523
38.286584,4.594887975504381,0.07290501867614455
38.291184,4.632888112470406,0.07230835532703803
38.295768,4.672564933617579,0.07171462955736084
38.30036,4.7177605461647865,0.07109725853064774
38.304948,4.765776646769081,0.07048104680870544
38.309536,4.823275830706438,0.06980016346760284
38.31412,4.885272186882033,0.06910571036257218
38.318716,4.948167977505277,0.06842379648039873
38.323304,5.00914271451908,0.06777457951358368
38.327896,5.074858993199414,0.06709931696474022
38.332476,5.1426185102033335,0.06640519741672013
38.337064,5.210255842493107,0.06573881733838986
38.341656,5.275317056154085,0.0650932032649734
38.346244,5.339723204795704,0.06444826121395089
38.350836,5.404373722865616,0.06379934362875365
38.355424,5.4729885328685555,0.0631258497516002
38.360016,5.542991516175726,0.06243967659406921
38.364604,5.615159922520629,0.06174417937111495
38.369192,5.681809537465499,0.06108500996687365
38.373784,5.752423444343398,0.060408956229896685
38.378372,5.819073059288267,0.059777683971806446
38.38296,5.882780001461903,0.059173390255755194
38.387556,5.94840799724498,0.05856510402155278
38.392144,6.007617767180376,0.057987425757512014
38.396736,6.058366072944505,0.05745653942953089
38.401324,6.101674533699159,0.05696410121484705
38.405924,6.140363637501428,0.05648907247635053
38.410504,6.176476622674901,0.0560173467305935
38.415104,6.210790738953077,0.055551938527507
38.419692,6.240729867707159,0.05509134327486983
38.424292,6.267193443384796,0.05463054446544002
38.428884,6.288915477395902,0.05419169418251879
38.43348,6.304874350578684,0.053780573241731786
38.438068,6.315969497380789,0.05339617181367106
38.442664,6.321179298640425,0.053045184578558245
38.447252,6.323690796557117,0.05270034133435754
38.451836,6.315697591978954,0.052398652823785155
38.456424,6.296300250458289,0.052138970085686395
38.461008,6.275104040042328,0.05187916313775261
38.465596,6.243647496559804,0.0516447723370236
38.470184,6.205894911943744,0.051411956065206973
38.47478,6.164911143679531,0.05115754320056516
38.479356,6.1186529534435765,0.05089662992243145
38.48394,6.073049828226979,0.0506464235179328
38.48852,6.026547268562732,0.050392169333454535
38.493108,5.976979851413105,0.05015720949908162
38.497716,5.92765680369177,0.04990420952137483
38.502304,5.873347844875612,0.04967757160319731
38.506908,5.815441148268864,0.049447942599324196
38.511492,5.753325790300794,0.049251933875457635
38.51608,5.6901888131709315,0.04905821837715173
38.520684,5.622432479088684,0.04886923970419467
38.52528,5.55569776416823,0.0486678225760956
38.529876,5.4871641803524795,0.04846218246942461
38.534452,5.4206738348603185,0.04823697608599818
38.539052,5.3454776557685975,0.04804586803814824
38.54364,5.2688933033726455,0.04788526113209238
38.54824,5.196028873481431,0.04771238293880437
38.552824,5.122142824428423,0.04754288071868126
38.557424,5.050466339861775,0.04740450640990503
38.562016,4.984308646695161,0.04725285489072172
38.566612,4.918806018547903,0.04711208351613312
38.571204,4.851915217096414,0.0470018387176912
38.575796,4.783103362035483,0.04689800935284215
38.5804,4.712781148956177,0.0468381414087356
38.584996,4.644135620058021,0.046788079689098865
38.589584,4.572303048960339,0.046770974446426
38.59418,4.50149209702445,0.04674270995754637
38.598768,4.426472483727241,0.046762680999576346
38.603356,4.3506756206965305,0.04677466682687739
38.607944,4.272591149913941,0.04682687658926764
38.612544,4.1979822322077975,0.04689245856567672
38.617132,4.120841337321485,0.04702614146833712
38.621716,4.046276561063969,0.04717043598277309
38.626308,3.970567980930515,0.04733391787411821
38.630888,3.9022992458065344,0.0474783324299948
38.63548,3.8409374753868177,0.047571623521951205
38.640068,3.778431901091161,0.04768891416469396
38.644656,3.714782522919566,0.0478311038901989
38.649248,3.648679210833318,0.047957326684388915
38.65384,3.578733791528187,0.04810437386042442
38.658444,3.5066229491853242,0.04829378288198329
38.663036,3.4366775298801935,0.048446221860757824
38.667624,3.3649332416797684,0.04860204586148172
38.672232,3.2954765612312205,0.04871470856213103
38.676832,3.2244653813156683,0.04880298050276962
38.681436,3.1544758205619097,0.04888289854171727
38.686028,3.0869401937228034,0.048991302779585626
38.690624,3.0273331507497536,0.049017752203487475
38.695204,2.9732448991767364,0.0490280243744631
38.6998,2.9222215050891003,0.048997962039044475
38.704388,2.870543045982108,0.04893772084237296
38.708992,2.8213965640552847,0.04879079348657159
38.713584,2.773393886004401,0.048607156877429725
38.71818,2.7225707198964275,0.04843548526303084
38.722764,2.6623866551695397,0.04830848750411969
38.727356,2.5955399951666784,0.04822441751819514
38.731944,2.5316360079350533,0.048104218371857396
38.73654,2.4697752590270143,0.0479459675549175
38.741132,2.408813944566624,0.04778069333164074
38.745724,2.347974814820379,0.04758553768829324
38.750312,2.2866028047689233,0.04732456755716402
38.7549,2.22318755639388,0.04708470123787201
38.759488,2.1567074505334562,0.04691407233693082
38.76408,2.0865074221682964,0.04674798340422198
38.768672,2.0154079593554877,0.04655305954321977
38.773264,1.9434090620950313,0.04634446172373715
38.777856,1.8670351773104814,0.04610093001513529
38.782444,1.7839986972499595,0.045880831013225154
38.787036,1.695443425789405,0.04348625063483905
38.791628,1.6039454815576155,0.04110854815816662
38.796216,1.5133469717734738,0.038748759848464556
38.800808,1.4226262772751865,0.03642510258339397
38.805396,1.3251208027867816,0.03413737876044739
38.809984,1.2294141971936725,0.03183649415214573
38.814572,1.145888978276568,0.02950380794829568
38.819168,1.0669831163118484,0.027153880786556006
38.823772,0.984235147128246,0.02482617334275936
38.828364,0.8994439396210566,0.022521945172542118
38.832968,0.8174732201709565,0.020222468980377755
38.837548,0.7333370776831236,0.01795126733325591
38.842148,0.6581952796717693,0.015714234776622912
38.84674,0.5820318624986215,0.013484734184351666
38.85134,0.5146964636391784,0.011183676223040919
38.855928,0.45443435564677237,0.008892329363923337
