Time,Force,Position
37.558392,0.08521433054322526,0.0
37.56298,0.09248784938992559,0.0
37.567568,0.09873974907483239,0.0
37.572144,0.10613545263567839,0.0
37.576736,0.10891179924413946,0.0
37.581328,0.11757349139507033,0.0
37.58592,0.1221487068988271,0.0
37.590508,0.12533574909835335,0.0
37.595096,0.13273145265919933,0.0
37.599688,0.14306982899128026,0.0
37.604276,0.15340820532336116,0.0
37.608864,0.16668925442667695,0.0
37.61346,0.18291297630122763,0.0
37.618044,0.19684909042389995,0.0
37.622644,0.20514422843239377,0.0
37.627228,0.21662640864041385,0.0
37.631816,0.22823077356257965,0.0
37.636412,0.237914084875304,0.0
37.641,0.24964063451161547,0.0
37.645604,0.2632882377573683,0.0
37.65018,0.27669147157482976,0.0
37.65478,0.2862525981734085,0.0
37.659368,0.2978569630955743,0.0
37.663968,0.309094773875303,0.0
37.668552,0.3239303224456232,0.0
37.673144,0.3341465140635584,0.0
37.677736,0.34730537845272846,0.0
37.682332,0.3643063500607813,0.0
37.686928,0.37840879034622743,0.0
37.691528,0.39092282934777983,0.0
37.696116,0.4090100408297319,0.0
37.700712,0.4359016084402382,0.004999059949083951
37.7053,0.4660787407792657,0.010906922623805094
37.709884,0.5090245211798758,0.017179474323594502
37.714476,0.5644945802137771,0.023751027560251468
37.719076,0.6309344184139652,0.030447102282757585
37.723668,0.7091212855139423,0.03725201044322046
37.728256,0.7952130742948256,0.044285091341161376
37.732848,0.8889654153283238,0.05149515447035073
37.737428,0.996141469442761,0.05863589441749831
37.74202,1.112776944705109,0.06592190377560052
37.746608,1.2397712755630155,0.07336351437313736
37.751188,1.3790455156259216,0.08079142811242436
37.755796,1.530066784588617,0.08821821392139136
37.760384,1.6879713560704248,0.09577364788529369
37.764972,1.8634302587289742,0.10325352542830808
37.76956,2.052068505040171,0.11071182724587653
37.774148,2.2540082797181613,0.11809942978061816
37.778744,2.472270298799698,0.12539949161054625
37.783324,2.7025576180262036,0.13264852732738813
37.787924,2.9372096851450644,0.1397610247255607
37.792512,3.1631015375839993,0.14187680249618193
37.797112,3.385629782028896,0.1430646315306291
37.8017,3.6024626692792463,0.14380994556604734
37.8063,3.8093915379737315,0.14430284355879056
37.810892,4.010791375636445,0.14462397556248202
37.815488,4.207395290552261,0.14474017657305066
37.82008,4.398181663559387,0.14460883383673653
37.824672,4.582495429638467,0.1442726472117188
37.829272,4.75469561267532,0.14399189380879407
37.833864,4.919890308478918,0.14353025868387972
37.838456,5.078978951496902,0.14287819087330755
37.843048,5.226320565615097,0.1422312352229908
37.847636,5.364491269462303,0.14155159459585676
37.852232,5.497455354971545,0.14070187703966178
37.85682,5.615319043218698,0.13992373400976654
37.861412,5.7164056500226135,0.13920433858939849
37.866012,5.80095954481158,0.13854292207137758
37.870612,5.870168672910164,0.13795224312151266
37.8752,5.928163652414171,0.13737513315553218
37.879792,5.9728673431831245,0.13695883808532672
37.884384,6.0141735241411505,0.13653132244831634
37.888964,6.053592553306622,0.13604314381295574
37.893556,6.0862607042988675,0.13558990627523743
37.898152,6.119329311250437,0.13500643263561743
37.90274,6.143193106114127,0.13447090390424143
37.907336,6.157241165319211,0.1340286408231343
37.911924,6.167236649694008,0.1335701717903666
37.916512,6.170114701753136,0.13315708857044173
37.921108,6.165997506210745,0.13277953366984363
37.9257,6.1571726708187136,0.13237803072040866
37.930304,6.1442952605963965,0.13195667172550332
37.9349,6.125566406648499,0.1315377271937271
37.939504,6.100208859241521,0.13112474389814063
37.944092,6.0689998681089605,0.13071227691831944
37.948684,6.031817248536676,0.1303088279627179
37.953264,5.997655345001142,0.12978844797886138
37.957856,5.958707758350448,0.12929387466488956
37.96244,5.915341042727032,0.12879775759631512
37.967036,5.86935406702619,0.1282722985856124
37.971624,5.823978014896075,0.12769640406185598
37.976212,5.7769252785848115,0.12713187342236865
37.980816,5.723332131711721,0.12666585630885782
37.985408,5.665774692905602,0.12627223843065732
37.989996,5.6059296463476045,0.12592828375394743
37.994584,5.547639099256611,0.12557294221140514
37.999176,5.488326933003826,0.12523682747761153
38.003764,5.4278709628751,0.12492538969844294
38.008344,5.370235480803463,0.12456098645584061
38.012936,5.317097170970065,0.1241255759449047
38.017532,5.263103568137649,0.12374842693495534
38.02212,5.207721792001,0.12341395955866219
38.026704,5.1589245678748075,0.1230161058274135
38.031284,5.112625419111895,0.12264893933034136
38.035872,5.069068715140554,0.12229100644518381
38.040468,5.030830574589582,0.12191749935373161
38.045056,4.990593337163651,0.12163980048049253
38.049656,4.956696282319886,0.12132511410714535
38.054248,4.928772855915847,0.12100248957790519
38.058848,4.901182081837356,0.12077027396911362
38.063444,4.876988817569794,0.12056155938908139
38.068036,4.858725040293329,0.12029070998675746
38.072632,4.850521368103764,0.11992627532444668
38.077208,4.851600551267598,0.11947236259125765
38.0818,4.853501125613561,0.11907217926252742
38.08638,4.864684555312923,0.1185904144154413
38.09098,4.880287113985007,0.11810969654517978
38.095576,4.901208236077459,0.11762372927073673
38.100172,4.9255268679808415,0.11716835354581963
38.104768,4.952465759961649,0.11674832498538631
38.109356,4.98574483452462,0.11630375209995704
38.113944,5.027285145279194,0.11580786302556743
38.11854,5.0651496749776594,0.11542735727864155
38.123128,5.105223769162487,0.11505016747178994
38.127716,5.147140873691238,0.11470935289320162
38.132304,5.1913897274204945,0.11436619829771436
38.136888,5.240668633693202,0.11398441033389978
38.14148,5.294078158061712,0.11358515337452509
38.146072,5.345077889964197,0.11325458020042191
38.150668,5.399553174943129,0.11288825927424577
38.155252,5.456848947979149,0.11248655499947716
38.159852,5.513778166872734,0.1121247903958638
38.16444,5.5641669752044915,0.1118637106187012
38.169032,5.609936426583864,0.11167086490802945
38.17362,5.658892920162763,0.11141397321995317
38.178212,5.701020492302915,0.11122485361352495
38.182808,5.747601095232679,0.11094148671752203
38.187396,5.794259741427959,0.11060885680997345
38.191992,5.839974811726965,0.11024129171942817
38.19658,5.884501936701403,0.10985609988480784
38.201168,5.92460993270312,0.10946594632016897
38.20576,5.954169084761353,0.10917218567614412
38.210356,5.99034669064693,0.1087451997197746
38.214952,6.025825090064522,0.10826573071750441
38.219528,6.059049783547126,0.10773538103608898
38.224128,6.090675836114097,0.1071642457757985
38.228716,6.1177605749942,0.10659226958151588
38.233308,6.134907393501551,0.10606786924067356
38.2379,6.153764798006939,0.10543124230187732
38.242496,6.167425823806104,0.10478165292955023
38.247088,6.176545535918399,0.10413005478740066
38.251684,6.178547815715032,0.1034866516320269
38.256272,6.177030400986591,0.10281360627070979
38.260872,6.171993291733075,0.10211273704224333
38.26546,6.165890421869138,0.10138422219453636
38.270056,6.154513130033458,0.10069110675077149
38.274644,6.132464809540152,0.10008520759897255
38.279232,6.101422144570364,0.09955555500710472
38.28382,6.068047730400071,0.0990211981181466
38.288412,6.0327081211717095,0.0984566255738778
38.293008,5.994670208600404,0.09790955035190788
38.2976,5.961862576552211,0.09726928245302628
38.302196,5.9201827847416855,0.09669209389066526
38.306776,5.874660885712277,0.09615531897288138
38.311368,5.825296879463988,0.09565713590503964
38.315956,5.774789069339757,0.09517548289057087
38.320548,5.7224823903202315,0.09470159252902435
38.32516,5.674672883538944,0.09418383994916377
38.329748,5.625597388167573,0.09368922053558568
38.334356,5.58077469560615,0.09316826389597467
38.338948,5.536607068064083,0.0926497028829849
38.343556,5.499390546674908,0.09208555706156489
38.348144,5.469247316152771,0.0914691765397953
38.352736,5.445933007069379,0.09081991953387082
38.357332,5.416488983015225,0.09025523140987474
38.361924,5.394240434542254,0.0896332803615299
38.36652,5.3788208075080295,0.08897803337434033
38.3711,5.3721511555219905,0.08826966156526304
38.3757,5.364748395251079,0.08760842319672367
38.380288,5.35612378783871,0.08702878854958343
38.384888,5.353306482703293,0.08643717521327876
38.389476,5.351677122892446,0.08587795670226073
38.394064,5.354589076768465,0.08533767880166931
38.398648,5.361753833454433,0.08478138050767092
38.40324,5.377424195760295,0.08419861679374016
38.407832,5.394160318676579,0.08365604533692397
38.412424,5.418380428050965,0.0831041967572983
38.417016,5.4457095363593595,0.0825675180877904
38.421604,5.475781089459327,0.08207110853752594
38.426192,5.506141153436213,0.08161673548638533
38.43078,5.538466412471167,0.08119845027924712
38.435368,5.571202367097189,0.0808158270217698
38.43996,5.605370636476066,0.08045629264433048
38.444556,5.639050166998364,0.08013617748927801
38.449144,5.681724041997139,0.07976759178755659
38.453736,5.725830231748773,0.07942180582120614
38.458316,5.774555778452792,0.07905396271636107
38.462912,5.82021646767143,0.07872841029564001
38.467504,5.872295382737749,0.07836746920892866
38.472092,5.932591392547046,0.07796162262966995
38.476696,5.991210718175191,0.07756394128339528
38.481288,6.050729478250984,0.07717020113308547
38.485876,6.114212530259806,0.0767453210568924
38.490472,6.178595016716275,0.0763228048452189
38.49506,6.238602515648652,0.07592121210815361
38.499656,6.301141991761198,0.0754747945776568
38.504252,6.361716272815674,0.07500877568522302
38.508852,6.420613869688999,0.0745496086385008
38.513436,6.479222955685407,0.07406590391570825
38.518036,6.540241834147837,0.07354960997107826
38.522616,6.601993820895141,0.07299875097210903
38.527212,6.661291873727794,0.07245075649914418
38.531804,6.719035427093442,0.07190639375099454
38.5364,6.774691600686874,0.07134441418084611
38.540984,6.824296102575064,0.07079821321327807
38.545572,6.867071683024508,0.07025966465796812
38.55016,6.9049393956446465,0.06972291084267404
38.55476,6.942518597387866,0.06915744123131148
38.559352,6.976089365749429,0.0685879261941487
38.563944,6.9998443984523835,0.06800365861425012
38.568532,7.019468813059536,0.06741269068386456
38.57312,7.035084794285031,0.06681165686947342
38.577708,7.038885942976958,0.0662481274173991
38.582308,7.041499146344318,0.06565987436915681
38.586892,7.040881166063525,0.06505933768300154
38.591488,7.030125037430313,0.06449365788479312
38.596076,7.012706313521128,0.06396066836346154
38.600656,6.992300775392081,0.06340175162828637
38.605248,6.965965750271937,0.06283442987087268
38.609844,6.929614761513519,0.062291584508419026
38.614432,6.888644415802717,0.061761617944619665
38.619024,6.843299082567822,0.06122905689463161
38.623612,6.786016732085213,0.060725420301951605
38.628216,6.725014459097867,0.06022878658207383
38.632812,6.66017007889164,0.059744932280801306
38.6374,6.594304079523618,0.05926086527137079
38.641996,6.522308365184835,0.05881950314446763
38.646588,6.450312650846052,0.058370419829066815
38.651184,6.373331025412447,0.0579482809418851
38.655764,6.297415160589263,0.057553862852516686
38.660364,6.225874283290173,0.05715168978036057
38.664944,6.152045798239206,0.05677161574998301
38.669548,6.087822581235444,0.05633531793478651
38.67414,6.02029013731801,0.05593005681309975
38.678736,5.954312192867582,0.055528382825437095
38.683324,5.894752474264833,0.055103327468887
38.687928,5.838790493452676,0.05466744993054592
38.69252,5.78671476130803,0.05425699273763857
38.697112,5.738403093116749,0.05387825949757227
38.7017,5.69704253107836,0.05350148470246829
38.7063,5.655559784325825,0.05312582733195389
38.71088,5.618329840383238,0.05275603847696485
38.715464,5.595613032317162,0.05236333124498073
38.720052,5.573429104556296,0.05198694424960144
38.724652,5.55856283709076,0.05159519716453037
38.72924,5.550892045206405,0.05119734525259051
38.733832,5.5505389136173795,0.05078538569514105
38.738428,5.551618096781214,0.05039535101229809
38.743008,5.556050648307346,0.050014991093002475
38.747604,5.564980372071721,0.0496326033068742
38.752192,5.575464595303098,0.049268023942307115
38.75678,5.590323806058568,0.04890827999082142
38.761376,5.602406670205578,0.0486109457205215
38.765956,5.617965087429034,0.048319976031419354
38.770548,5.638675741910085,0.04804486327668841
38.775132,5.664416448934586,0.04779451784710495
38.779724,5.691711655426091,0.047560225827250315
38.784316,5.711444832193976,0.04734716718108692
38.788896,5.73207744340951,0.047135038065480854
38.7935,5.750666816301457,0.04693813384293914
38.798088,5.775307860898649,0.046757719927522194
38.802688,5.800603970515195,0.046592950222357134
38.807276,5.824101211236447,0.04643195827792302
38.811876,5.8522178089100825,0.046265443700618705
38.816468,5.8761257452224,0.046134409574740645
38.82106,5.8951699551540395,0.04602480155472819
38.825652,5.909350438705003,0.045935486728399984
38.830248,5.917767761427643,0.04586578379276605
38.834844,5.9252856497026345,0.04579548946840679
38.83944,5.926918192435156,0.0457522900561041
38.844028,5.918945467120471,0.04574252662069894
38.848624,5.901489658472725,0.04575983243856645
38.853212,5.878759427853237,0.045768519394545314
38.857804,5.849488786671922,0.04579054782675796
38.862384,5.811101616299984,0.04581714659742005
38.86698,5.761799047842126,0.04584755464287977
38.871572,5.705833884108295,0.045900075503092226
38.87616,5.653588642879202,0.0459471019826999
38.880756,5.593004122192987,0.04600802458093839
38.885344,5.526123560373237,0.0460677781597074
38.889936,5.44910485020107,0.046141184745206225
38.894528,5.366811718057161,0.04620380473636744
38.899116,5.271071210647162,0.046323806548776984
38.903708,5.166747054351751,0.04647704410710903
38.908288,5.062012202465276,0.046596423216825444
38.912892,4.952657993626413,0.04672703121123764
38.917488,4.841749285320545,0.046840639923618824
38.922076,4.7319843808906175,0.04693748642426436
38.926676,4.619765542546038,0.04701117008476243
38.931276,4.508035443058042,0.04704728653671097
38.935868,4.397693516874276,0.047049176686731364
38.94046,4.29348130566127,0.046992467637807005
38.945052,4.189024725019975,0.04695842341089336
38.949644,4.090331305207001,0.04689247328893046
38.954244,3.9888173973369403,0.046834387784918226
38.958824,3.887958554486236,0.04680124956300983
38.963424,3.791430557710996,0.04669521973058479
38.968016,3.6922042575928127,0.04658457266263854
38.972612,3.599518368036456,0.04645120159751061
38.977204,3.512351269880132,0.046302365061918295
38.9818,3.424406921990306,0.046134896323594875
38.986396,3.335440954938686,0.0459691227466105
38.990992,3.2524825181436814,0.04574104656819243
38.99558,3.171567319672264,0.045483483987902376
39.000176,3.087587263715466,0.04525315194645005
39.004764,3.006305511101612,0.045023088397051395
39.009352,2.9210594665547287,0.04482614405154361
39.01394,2.8328707492366116,0.04464849851617625
39.018532,2.744437662490203,0.04448470529500384
39.023128,2.655638021601357,0.04436039485843139
39.02772,2.5694144993413093,0.044244291949258184
39.032312,2.4837238573864715,0.04416217317624926
39.036892,2.401875322650517,0.04405417616913888
39.041488,2.310543704581501,0.044002140776097605
39.046068,2.227429181255462,0.0439436443888835
39.050648,2.1502000034718924,0.04380463205262296
39.05524,2.0695394140605052,0.04376800034973796
39.059828,1.9907998782585596,0.043696360592024565
39.064416,1.9051533777523506,0.04375460674961595
39.069012,1.817219269494263,0.04393845093514368
39.073604,1.7355812023697104,0.04413267753559182
39.0782,1.6548425696928057,0.04433430670868271
39.08278,1.5748811867494035,0.04455915208176924
39.08738,1.4959414229677945,0.044740397663507035
39.091956,1.4189227127956268,0.04258602785219334
39.096556,1.3441916103753377,0.04042095936356785
39.101148,1.2779219721263162,0.03823402797663659
39.105744,1.2171711252773274,0.036039460210565914
39.110336,1.1598958315047845,0.03385496505726651
39.114932,1.1008216688369457,0.031655684942620964
39.119528,1.0371281492167221,0.029462755585101523
39.124124,0.9724130104347048,0.02727428924827944
39.128712,0.9062655568998292,0.02509048348039087
39.133304,0.8512778708791644,0.02287617726561686
39.137896,0.7946135006773498,0.020661871050842853
39.14248,0.7359058921519481,0.0185048475393881
39.147068,0.6770760989124008,0.016302841745611397
39.15166,0.6180019362445621,0.014140863932815315
39.156248,0.5680001613187196,0.01186454287248539
39.16084,0.5193865596971073,0.009479588826397971
39.165436,0.4716723925231431,0.007094876640342139
39.170024,0.4322975048063008,0.004711509933182313
39.174624,0.3975419740418435,0.0023294161830547115
39.179204,0.36716143080147967,0.0
39.183796,0.3403786253517073,0.0
39.188392,0.314905949940648,0.0
39.19298,0.28955545924373444,0.0
39.197576,0.2651044029944686,0.0
39.202172,0.24257440035464412,0.0
39.206776,0.2276064274384396,0.0
39.21136,0.22571927564588756,0.0
39.215948,0.22779641578636392,0.0
39.220552,0.23388198930849693,0.0
39.225132,0.23612545561174716,0.0
39.229724,0.24172229027729744,0.0
39.234316,0.24936236326643477,0.0
39.238916,0.26415377038812676,0.0
39.243504,0.280088981385758,0.0
