Time,Force,Position
35.800864,0.23976395138157605,0.0
35.805456,0.2054472596890255,0.0
35.810044,0.17100838328232923,0.0
35.814632,0.13914562550443088,0.0
35.819244,0.11112497494541523,0.0
35.823832,0.08682424689113669,0.0
35.82843999999999,0.0640780183038625,0.0
35.833028,0.043008473897738334,0.0
35.837636,0.02655828644399911,0.0
35.842228,0.014849640656790475,0.0
35.846816,0.007882536536112445,0.0
35.851412,0.0026861578298885244,0.0
35.856004,9.404123330408093e-05,0.0
35.8606,0.0001880824666081619,0.0
35.865184,0.0011815581475600942,0.0
35.869784,0.001181558147560094,0.0
35.874371999999994,0.001181558147560094,0.0
35.878972,0.0011815581475600942,0.0
35.88356,0.0011815581475600942,0.0
35.88816,0.0031966529903055497,0.0
35.892751999999994,0.008032235890140231,0.0
35.897347999999994,0.013889437951768432,0.0
35.90194,0.02371093194642505,0.0
35.906536,0.03238862206514248,0.0
35.91114399999999,0.038900889146127195,0.0
35.915735999999995,0.04631259067475976,0.0
35.920336,0.053846476917537994,0.0
35.924935999999995,0.0633014167697576,0.0
35.929528,0.07197910688847503,0.0
35.93411999999999,0.08077898172133813,0.0
35.938708,0.08855723739240769,0.0
35.943296,0.09342096377308397,0.0
35.947883999999995,0.09825654667291865,0.0
35.95247199999999,0.1038975227870971,0.0
35.957055999999994,0.10647364141589498,0.0
35.961648,0.1154398424115319,0.0
35.96624,0.12326223953122965,0.0
35.970828,0.12994083277498816,0.0
35.975424,0.13649724130460103,0.0
35.98002,0.1418158047249706,0.0
35.984607999999994,0.14521331453589886,0.0
35.989203999999994,0.14722265104259655,0.0
35.993792,0.14220283813088525,0.0
35.99838,0.14000351327626315,0.0
36.002976,0.14164629564052383,0.0
36.007568,0.14043468813080587,0.0
36.012172,0.14442969895905064,0.0
36.016748,0.15841701124041688,0.0
36.021339999999995,0.18640505835656115,0.0
36.02592,0.2274944058598356,0.009807436435955389
36.030512,0.2829510423403251,0.019309058234760076
36.0351,0.3571499553221231,0.028413228022981074
36.039696,0.45021332951937554,0.03704612123408018
36.044288,0.5584212424273451,0.04549924120724612
36.04888,0.6856158012649147,0.05379779132163516
36.05347999999999,0.8200263149471446,0.06221966380439545
36.058076,0.9719131165405983,0.07058912084712642
36.062664,1.1425421946353607,0.07883815196067853
36.06725599999999,1.3344896678602296,0.08688426600065051
36.071836,1.5428918098345288,0.09489648059937587
36.076428,1.7639065133393754,0.10297955436011194
36.081016,2.0008430052884414,0.11106053322296168
36.08560799999999,2.2587313382251764,0.11911315065933162
36.090192,2.530253851854254,0.1271856542096093
36.094784,2.8152883614615263,0.13528547808112623
36.099372,3.122774830443107,0.14321963453901898
36.10396,3.441865664346854,0.15097158818131917
36.108552,3.7548945869136183,0.15869887441077227
36.11314,4.0610402069612705,0.16637035324219565
36.117728,4.358381470880368,0.1642155147429882
36.12233199999999,4.645774574794972,0.16236930719969683
36.12692,4.920110519771075,0.1609134796791075
36.131508,5.179834806341671,0.1598858554689658
36.136104,5.425602499526118,0.15903688510876307
36.140692,5.656880719019203,0.1583263037207439
36.145284,5.879388484200623,0.15742647133491924
36.149864,6.088506438117995,0.15652683165140027
36.15445999999999,6.282069157733583,0.15570839485109922
36.159052,6.453536232485564,0.15510510728531038
36.163648,6.60531745483996,0.15455800714595738
36.16824,6.745097039234536,0.15389095590044877
36.172844,6.8689106937362645,0.15320887794073665
36.17743599999999,6.972872169677635,0.15254771030376216
36.182028,7.061478639296887,0.15182729506989293
36.186616,7.134441591717098,0.1510228358405837
36.191208,7.183510030378405,0.1503779760621748
36.1958,7.212614345396944,0.1498867050537564
36.200392,7.235534564364356,0.1493547185687723
36.204984,7.2467960373292355,0.14890329607687583
36.209576,7.254205163443492,0.148392230422042
36.214164,7.254164204916537,0.14786750070931404
36.218752,7.249127095663021,0.14730671064473244
36.22333999999999,7.231043067102743,0.14686280145428002
36.227936,7.207718518387612,0.14639621129182678
36.23252,7.176988026479895,0.14595520317363195
36.2371,7.140283906132454,0.14553457112227036
36.241696,7.098383407078787,0.14512815753861585
36.246276,7.051941594338253,0.14473882174587266
36.250856,7.000303402891497,0.14436697607007304
36.25546799999999,6.951563742767345,0.1438941057347398
36.260056,6.900492333442689,0.14342953329410266
36.264664,6.847211359631671,0.1429668128705701
36.269252,6.794296939963091,0.1424746234047886
36.27384,6.739583651399214,0.1420014146347581
36.278432,6.6842594392646095,0.14155988930057334
36.28301999999999,6.63126697633051,0.14109921938522413
36.287624,6.580894773473836,0.14064598196158842
36.292216,6.53056671206579,0.14022838326313897
36.296812,6.488089191258284,0.13971014657993489
36.3014,6.442835323842316,0.13927410408672974
36.306,6.40482107345616,0.1387782167879797
36.310588,6.369060529004994,0.1383171134898585
36.31518,6.345036773821876,0.13773777918828448
36.31977199999999,6.324166159021397,0.13718224524670544
36.324364,6.313233464593673,0.1365342096535528
36.32896,6.305209541120293,0.13592832115904577
36.333552,6.300993823048906,0.13535367521903205
36.33814,6.301852298969598,0.13477522012752646
36.342736,6.314203194730049,0.13410072415362034
36.347328,6.3265201886736095,0.13352529148118153
36.35192,6.341990322999807,0.13298138666183446
36.356508,6.364455704927526,0.13240703170195345
36.361096,6.390729292257238,0.13186846678327432
36.365684,6.4204003893978765,0.13134450777856493
36.370284,6.456167299692387,0.13080629413445763
36.374872,6.497619327549705,0.13023582104122103
36.379456,6.541935984912741,0.12967158865987238
36.384048,6.589650152086705,0.129127066912722
36.38864,6.637164091281006,0.12865101541882462
36.393224,6.688319909714527,0.1281735064511895
36.397808,6.741807477348553,0.12770324690941232
36.402388,6.79979221722082,0.1271887645212269
36.406996,6.858920760969027,0.12666265790762582
36.411584,6.921769227221969,0.12609506687146094
36.416184,6.982574455151325,0.12557833448414454
36.420776,7.047221790299564,0.1250166805191709
36.425364,7.116199971523267,0.12438730222890339
36.429972,7.182968588260612,0.12376462797086274
36.434564,7.246506021349799,0.1231734436067299
36.439156,7.309999312990359,0.12254285600336787
36.443748,7.371649594286996,0.12189615417832442
36.448344,7.428514192468474,0.12127745814305524
36.452936,7.485823388057907,0.12060067969444994
36.45753199999999,7.544110061360504,0.11987746965865022
36.462116,7.599243594280464,0.11913677255257352
36.466716,7.6513903129805625,0.11840956107126079
36.4713,7.7019383907650285,0.11765441919146752
36.475892,7.746635024823913,0.1168939197847395
36.480488,7.790099572109603,0.11608564556744311
36.48508399999999,7.833231467069746,0.11522027341281686
36.489688,7.867080506676489,0.1144148370419838
36.49428,7.894467178986924,0.11363887225364246
36.498872,7.913103876249172,0.11292808500285127
36.503464,7.928220878986345,0.11220941167808804
36.508056,7.93994037191259,0.11147396583314145
36.51264,7.943765182789668,0.11075706926515794
36.517228,7.9345872158086115,0.11012331947145806
36.521812,7.921400815445899,0.10949732131386809
36.526404,7.90277366694867,0.1088749769887893
36.530984,7.883325127269311,0.10821371447617324
36.53558399999999,7.861911392531882,0.10753259180921391
36.540164,7.839964777489242,0.10683666217580536
36.544756,7.811844306027213,0.10617983982036984
36.549352,7.7785715973075895,0.10554833379497551
36.553932,7.73900284745443,0.10495911699686578
36.55852,7.6919942525917975,0.10443254719880082
36.563116,7.638567431881483,0.1039543664560805
36.567704,7.586939480066462,0.1034567413042779
36.5723,7.529303997994826,0.10302668382177968
36.576892,7.466682604828368,0.10265032239473555
36.581484,7.40970218777609,0.10221448306625192
36.586072,7.353743389885604,0.10175886163959853
36.590672,7.304325002556945,0.10123884213189682
36.59526,7.251475203600468,0.10077277353596986
36.599864,7.195849058035529,0.1003674750748449
36.604452,7.143864791709811,0.0999707068964032
36.60903999999999,7.099486696556341,0.0995370196679938
36.613632,7.056540916155729,0.09910564899751538
36.618224,7.017237014994338,0.09868418412712436
36.622824,6.977732885853283,0.09831285335137908
36.62742,6.939949582342005,0.09797258761827281
36.63202,6.905641831907174,0.09761022437506754
36.636616,6.877796448768651,0.09723599896501844
36.641208,6.853837314297638,0.09686200987060592
36.645808,6.8314768207422585,0.09652715930568598
36.65039599999999,6.816067433339771,0.09615381633488156
36.654984,6.80801984768124,0.09576324109244747
36.659572,6.804757945137869,0.0953708107417798
36.664164,6.80959095262333,0.09492216744775109
36.66876,6.822152315995183,0.09443962703162326
36.673352,6.833858386368016,0.09400810716357477
36.677936,6.849983585713573,0.09359845205499158
36.682524,6.8654978614884,0.09322582388331344
36.68711999999999,6.887308178396762,0.09281392747894336
36.691708,6.916313970886308,0.09235767182280635
36.696292,6.9469964475570025,0.09190028123396543
36.700904,6.97898905426641,0.09146160477811624
36.705492,7.016011713519268,0.09101171939999776
36.710088,7.052667818629689,0.0905831030998977
36.714668,7.094720530425997,0.09012698709418343
36.71926,7.140493164727042,0.08964887521436504
36.72386,7.185777060171505,0.08920455536004668
36.728452,7.229384271434818,0.08876983677305751
36.733048,7.27466816687928,0.08833718112031906
36.737636,7.327636276761509,0.08784167176115304
36.742236,7.383669244129118,0.08732101319992251
36.746824,7.4430114384104,0.08676430227584557
36.751416,7.498100829881732,0.08622514065133564
36.75599999999999,7.552823667210628,0.08571316974390523
36.760604,7.605092570624872,0.0852100918997975
36.765196,7.6527421170867305,0.08473330208953822
36.769792,7.69446217655749,0.0842712511275625
36.774376,7.737981104923547,0.0838052955091258
36.778968,7.780844968270248,0.08333876985812413
36.783556,7.821377082416441,0.08287336141642437
36.788152,7.858433643486188,0.08242021990194752
36.79274,7.896467682269099,0.08192532519407748
36.797324,7.936012079070389,0.08140505632956359
36.801916,7.977066833890054,0.08085435353086681
36.806504,8.012192101718622,0.08031764159325787
36.811096,8.038200840356565,0.07982404357866693
36.815684,8.060734025918062,0.07934064144370297
36.820276,8.083511580907851,0.07884890965653212
36.824864,8.10125908335419,0.07836280177992201
36.82946,8.115120337133018,0.07787058016996734
36.834048,8.12268554977831,0.07740399396763496
36.838636,8.120112614071187,0.07698513018178196
36.843228,8.11676242863056,0.076562847924992
36.84782,8.106827691179479,0.07613703820064081
36.852408,8.094316835099598,0.07571444898254057
36.857004,8.087158444256977,0.07523522237798533
36.861592,8.081921107023799,0.07474224695503112
36.866188,8.06997703306602,0.07425004774729324
36.87078,8.052391982994061,0.07378604002620505
36.875376,8.03018757596972,0.07334054831810882
36.879964,8.00924915753546,0.07287297294880499
36.884564,7.982058839416297,0.07246071683469614
36.889144,7.946529241840009,0.0720831514397808
36.89374,7.907401906473133,0.07171387332714443
36.89833599999999,7.869951255287403,0.07134234154671547
36.902936,7.838385949644146,0.07092854754070542
36.90752,7.806820644000887,0.07051227600546987
36.912116,7.7685927430816575,0.07012850389303284
36.916712,7.732818776077079,0.06974578822332814
36.921308,7.694635016606477,0.06939395135080285
36.925896,7.657883571888735,0.06905170366108213
36.930492,7.625873668837523,0.06868173362412551
36.93508,7.5943966460915195,0.06832447484865381
36.939676,7.568971295050762,0.06795934478068145
36.944264,7.542935020439276,0.0676212855217938
36.948852,7.514488953361766,0.06731562698796542
36.95343999999999,7.4896406240748465,0.06700020021824496
36.958036,7.468678543455439,0.06670022176597615
36.962628,7.452213635074269,0.06638768528149996
36.967212,7.440123714217194,0.06606862804572583
36.971808,7.4290995539705404,0.06577994858407303
36.976396,7.424860173714004,0.06545284313041616
36.98099199999999,7.42781626903865,0.06510873687032574
36.985576,7.435924601620892,0.06476484581452287
36.99016399999999,7.441867511165402,0.06444203502498669
36.99476,7.45206322351986,0.06412425743854233
36.999344,7.4661010430932,0.06378871574112613
37.003932,7.493341868504339,0.06340214221589532
37.008524,7.521604313077271,0.06301050988988176
37.013116,7.554363929888442,0.06261259077125746
37.01772,7.588145165861407,0.06220832293229644
37.022308,7.625157585482528,0.06181784957872789
37.026908,7.666012112322529,0.06141290523050563
37.03149199999999,7.707766073610179,0.061012057934311456
37.036088,7.753850880973295,0.060574067409106876
37.04068,7.804921599431232,0.06011175277953398
37.045272,7.854437818422165,0.0596478549376217
37.049868,7.906241645164976,0.059163141216903595
37.054464,7.95828984133608,0.05867222220512846
37.059052,8.00866135332603,0.05818127433853248
37.063636,8.05694548554377,0.057668079800865024
37.068228,8.101631879970915,0.057164622276652755
37.07281999999999,8.144397220788619,0.05667373694585103
37.077412,8.184708627691672,0.05617977086576065
37.082,8.228329261508396,0.055658119058688914
37.086588,8.264632235029792,0.05515270020188467
37.091184,8.2988919702276,0.05466319443451065
37.095772,8.318804895711672,0.05422468095723307
37.100352,8.335897333138655,0.053794424375737324
37.104944,8.347470979165605,0.0533743737420135
37.109536,8.35749012572555,0.052945275275728745
37.114128,8.360435981418458,0.05251544011616535
37.118716,8.355941992101892,0.05210011687269166
37.123296,8.344130342489997,0.051693464134139694
37.127888,8.326433347335632,0.05130952735188466
37.132468,8.300030518581709,0.050954692404150806
37.137056,8.263778052352288,0.05063699596627947
37.14165199999999,8.220862990846895,0.050335208983809804
37.146252,8.171040964637237,0.050059378842991636
37.150844,8.117132461780406,0.04980317737195323
37.155436,8.06220233976178,0.04954827303851955
37.160028,8.002041937220042,0.04932361949037717
37.164608,7.931621201611741,0.04911426096749591
37.169208,7.854948566318533,0.04894185485539222
37.173796,7.770469531873413,0.04879359473052599
37.178396,7.681004586333471,0.04866561586982345
37.182984,7.582955991908117,0.04855913186261104
37.187576,7.487727885539852,0.0484444835081239
37.192168,7.385714999181469,0.048351330911370304
37.196764,7.277938951994762,0.048274850819151414
37.20136,7.164810439570796,0.04823793842644601
37.20596,7.053236426613834,0.0482089419392637
37.210552,6.93782030643799,0.048190467887681915
37.215144,6.817173905739032,0.04821069484984577
37.21973199999999,6.693462647554693,0.048250114725283844
37.22432,6.566930901313265,0.04829625763337021
