Time,Force,Position
35.710388,1.5513838025330333,0.035041859171150665
35.715004,1.415447016224062,0.03266769568529082
35.719596,1.2896483782675086,0.03026609176516413
35.724188,1.1725997153591423,0.027880250770993077
35.728784,1.0628687127461043,0.025495383177719252
35.733372,0.9630314890571928,0.023130119359362926
35.737968,0.867569252892375,0.02076714932941623
35.74256,0.7811013612040354,0.018407162885311967
35.747152,0.7044050637256767,0.016051568503347192
35.751744,0.6310621346096181,0.013724045741954693
35.756336,0.5647924963605967,0.011430877428970617
35.760916,0.5028978456356687,0.009118418734808155
35.765516,0.4465219863107736,0.006782042470848978
35.770104,0.38990175755758705,0.004487459985480563
35.774704,0.3357171919421089,0.0022748609306018353
35.779292,0.28833567709369223,0.0
35.783884,0.2541571680830739,0.0
35.788476,0.22333202743475564,0.0
35.793072,0.1949608207010896,0.0
35.79766,0.17480670871039986,0.0
35.802256,0.16041575754803425,0.0
35.806844,0.14757930585267298,0.0
35.811432,0.13756334221440092,0.0
35.816024,0.1313894857950116,0.0
35.820604,0.1258706943949788,0.0
35.8252,0.11753141493785682,0.0
35.8298,0.12023995791253918,0.0
35.834392,0.13191918317854945,0.0
35.838984,0.1554676220584944,0.0
35.843584,0.19141815485758484,0.007901442390259864
35.848172,0.2401373357182578,0.015602263089992203
35.852768,0.30415714182068304,0.02308609159135866
35.857356,0.38250009545169517,0.030559134679430083
35.861944,0.48015210770611616,0.03784761741200429
35.866548,0.5887921699037678,0.04518181371706195
35.87114,0.7067511977582406,0.05268254003833692
35.875748,0.8277514209129431,0.06034043232550366
35.880336,0.964218595472172,0.06789038430830735
35.884924,1.1163970908642182,0.07536427161860806
35.88952,1.2778686812414013,0.08283947919955663
35.894108,1.4495769424999971,0.09039261378212202
35.898704,1.6347089168395317,0.09792640210672109
35.90328,1.8304441162029177,0.1054755528996338
35.907872,2.0357609214283596,0.11305117102979849
35.91246,2.2554008741823885,0.12060923452239808
35.917068,2.493083896969741,0.12807207754343794
35.921656,2.7270808990692466,0.1355011635693743
35.926256,2.947321535762265,0.14296757673266453
35.930848,3.1576140124507894,0.15039680510506798
35.935444,3.3613897407626387,0.14981933478758977
35.940028,3.5547285702134115,0.14942178571043363
35.944624,3.736775207804089,0.1492702618176969
35.949212,3.908096435656771,0.14909462669990448
35.953808,4.068325699629021,0.14903521910109885
35.958396,4.220161303063781,0.14889036378572484
35.962984,4.363314735084135,0.1485624942797456
35.967564,4.498563245423579,0.1480610876939049
35.972164,4.622964161310884,0.14760324461201962
35.976752,4.7335748099748125,0.14723149953952205
35.981348,4.835669613387107,0.14682108121631682
35.98594,4.932269287584521,0.14621699012133543
35.990528,5.016833422005225,0.14558839961757497
35.995124,5.08989489695443,0.1449348233485138
35.999712,5.150676462698634,0.1442598979038107
36.004304,5.196479815894896,0.1436225637026713
36.0089,5.22742714125736,0.1430269163972495
36.013488,5.2521564687518065,0.1424848774323776
36.018092,5.2838369023991465,0.14183266682883566
36.02268,5.313307771560125,0.1411937583143745
36.027268,5.333539926816334,0.14073832938228675
36.031864,5.349230768385676,0.14030923068392662
36.036452,5.3654883920771175,0.13977719131869246
36.041048,5.378514832120405,0.13928014250345602
36.045624,5.385611785172593,0.13886646041693318
36.050232,5.389066858985561,0.13846276650352768
36.054812,5.391333987473964,0.13804066432880346
36.059412,5.392535355351945,0.1375900189584957
36.063992,5.3854754870383195,0.137232833497175
36.068592,5.375550989218978,0.13687533127176418
36.073188,5.3609629929986236,0.13654968894837516
36.077784,5.340201140358875,0.13631877122288785
36.082376,5.312488181566239,0.13618877385919798
36.086972,5.2828100277155325,0.1360415234857334
36.091568,5.251166678806757,0.13587791613651196
36.096164,5.219479188449353,0.13565570150411269
36.100764,5.181495656958413,0.13554103865235662
36.105356,5.145144668199997,0.13534515777079892
36.109944,5.107605734117009,0.13511769553485167
36.114532,5.06928955030052,0.13489088260941676
36.119124,5.037103081454792,0.13450904975035846
36.123712,5.003239928427915,0.13414482662894722
36.128304,4.966800656772239,0.13380814593876778
36.132904,4.929950689525499,0.1334403072324043
36.137484,4.8955105147447835,0.13298344704771836
36.142072,4.861847589697569,0.1325158480331581
36.146668,4.825364176593264,0.13209992442794885
36.151256,4.7850386562700775,0.13176209704142827
36.155848,4.747289254575692,0.13138532525118055
36.160432,4.713137590671894,0.13094071814934502
36.165024,4.678985926768099,0.1304910303098884
36.169628,4.642791024540716,0.13009144453023047
36.174216,4.6118705442850745,0.12960347027858754
36.178804,4.5794397060110565,0.12918401376938665
36.1834,4.55203892028049,0.12869499874533954
36.187992,4.525459525732053,0.1282607332469807
36.192588,4.503132933993564,0.12776469645333544
36.197168,4.478152180360761,0.1273794435789277
36.201764,4.449373460957704,0.12714460602697328
36.206344,4.421005437145711,0.12693771222090278
36.210944,4.389861066725255,0.12685467969435976
36.215536,4.363624564134107,0.1267185366455093
36.220132,4.338087268010942,0.12665369882865032
36.224716,4.315048047251057,0.12662747344768963
36.229304,4.290176055778987,0.12678065060193855
36.233892,4.268046509098489,0.1269459356719528
36.238492,4.249436656943065,0.1271265374882261
36.243084,4.239865290712747,0.12720640955276483
36.247676,4.2326698151315645,0.12733961172551636
36.252268,4.226295730732511,0.12753287111108402
36.256856,4.226261828915622,0.12767646306587715
36.261444,4.233345359414399,0.12776764591727557
36.266036,4.244848018885897,0.127856267649776
36.270632,4.2674324026060875,0.12779926062429262
36.27522,4.290715992794263,0.12781842104125318
36.279816,4.318907450811744,0.12779194579429415
36.284396,4.348819734459002,0.12780803121482703
36.288984,4.387359808440302,0.12770771906442768
36.293568,4.4318293694127,0.12753421666947695
36.298156,4.481084613500257,0.1273296510402205
36.302764,4.537413148454851,0.1270202685300867
36.307352,4.596728497629308,0.12671657629651847
36.31194,4.662339887937299,0.1263217528086479
36.316536,4.732570635197677,0.125858442846151
36.321128,4.807132228533519,0.1252646090695757
36.32572,4.880672202707569,0.12470354993894936
36.330316,4.9572770343669985,0.12407478850448281
36.33492,5.030528497664129,0.12350048460374953
36.339508,5.106844818446637,0.12285698508756429
36.344108,5.185204377552735,0.12217785649422928
36.348688,5.260743448601741,0.12156367040621158
36.35328,5.335338943754473,0.12092500168694274
36.357868,5.406703255259051,0.1203184410340486
36.362468,5.471360830039028,0.11979740397751477
36.36706,5.533031590599142,0.11928099680752996
36.371656,5.590038852758244,0.11878739406105855
36.376244,5.651987884563539,0.11815884596940877
36.380836,5.70902904853953,0.11757961672571011
36.385436,5.760629464381005,0.1170221538266851
36.390024,5.811286304326204,0.1164385702746291
36.394612,5.85895633005154,0.11587034633842347
36.399204,5.902862291823511,0.11531034814287167
36.40378,5.940305886299173,0.1147936452648856
36.408376,5.969121690440792,0.11435801163052135
36.412968,5.999037157009724,0.1138566665430748
36.417556,6.026210178787084,0.11333661756036863
36.422152,6.051662374934667,0.11278803738803278
36.426732,6.075271560738325,0.11221367104554007
36.431324,6.09728210562635,0.11160180301746123
36.435912,6.112708098503921,0.11102507590847333
36.440492,6.127557069627653,0.11038854592407106
36.445088,6.135454934598494,0.10980892962572648
36.44968,6.14150978922541,0.10919965124002415
36.454268,6.146376698527761,0.10856913059315634
36.45886,6.151976716114983,0.10789096414329143
36.463448,6.158842722292292,0.10717991961830783
36.468044,6.15557058011718,0.10658425412476039
36.472632,6.152132111779297,0.10595037738855186
36.477232,6.152780120088588,0.10525142958469742
36.481812,6.145577587797339,0.104610308238998
36.486412,6.134000067981998,0.1040022461667513
36.491,6.120990233413797,0.10338500007087985
36.4956,6.106059345236154,0.1027890770428273
36.500188,6.09791323704863,0.10210226605262374
36.50478,6.081716360280902,0.10153519400861372
36.509372,6.068339971570264,0.10093448596676466
36.513968,6.052798159821894,0.10037288298166486
36.518556,6.037789228378735,0.09982595357684067
36.523152,6.021636493059635,0.09930204768496699
36.52774,6.012801418035866,0.09870941607107193
36.532328,5.999757681650776,0.09818315248620052
36.536916,5.991866182523282,0.09762507953678023
36.541496,5.987328051758087,0.09705354132130019
36.546092,5.982178997422165,0.09652040309392884
36.550684,5.975641769782011,0.09602570170599946
36.55528,5.971680660770655,0.09551982942040868
36.559856,5.972993973731041,0.09497688361084125
36.564452,5.9720196789395485,0.09447900241056931
36.56904,5.9658151036249425,0.0940626737611139
36.573628,5.96541783058729,0.09362685318688062
36.57824,5.965797807283138,0.09318938318953904
36.582828,5.9687539026077845,0.09273953927309375
36.587436,5.974408301275376,0.09226788525802548
36.592024,5.975976223295791,0.09185744429245557
36.596616,5.9840845558780345,0.09138288261670119
36.601204,5.992970138193779,0.09091390630842441
36.605792,6.003654589404818,0.09043379901122225
36.610388,6.01151855255877,0.08997944440776799
36.614984,6.018116527122636,0.08955557368030023
36.61958,6.020994579181766,0.08916831456421008
36.624168,6.030413041802721,0.08872312189275353
36.628768,6.041996927461408,0.08824747314049998
36.633356,6.051659759510655,0.08779438417331692
36.63796,6.0625885801499875,0.08731290404215296
36.642548,6.075682823827052,0.08679882923496497
36.647152,6.082358841656437,0.08633254269340647
36.651736,6.087602544732961,0.08585571832854291
36.656332,6.0974656047618705,0.08534617612556145
36.660924,6.111415141437956,0.08478452213626386
36.66552,6.126097786398913,0.08418187756096794
36.670108,6.1436009194169605,0.08355721058859066
36.674696,6.161226237149153,0.0829302070253472
36.679284,6.177174870700196,0.0823060015726365
36.683872,6.194389492841324,0.08165565087561205
36.688464,6.2090279963536545,0.08101583333955405
36.69306,6.219824392647102,0.0804116805912021
36.697652,6.228699735331108,0.07982598246962762
36.702248,6.240517750786348,0.07921013270370904
36.70684,6.249759647612791,0.07859716454383786
36.71142,6.255281621934497,0.07800787748375777
36.71602,6.257205858465612,0.07743978874077567
36.720608,6.25451073804434,0.07690289567413852
36.725204,6.251282737317859,0.07634806350433482
36.729788,6.246255867696083,0.0758005884290602
36.73438,6.23660964112192,0.07527914709619436
36.738976,6.229783902604846,0.07473444694450106
36.743568,6.224757032983068,0.07418206958609315
36.748156,6.211268699190025,0.0736852533328411
36.752752,6.197780365396981,0.07318909269812547
36.757344,6.182126608566202,0.07272152690845082
36.76194,6.166717221163717,0.07223968662411057
36.76652,6.147343541828201,0.07179168696666326
36.77112,6.12989091610213,0.07132730059128962
36.775704,6.113215540109558,0.07086643270495249
36.7803,6.097561783278782,0.07039364795498412
36.784884,6.084972883933384,0.06988865975528095
36.789484,6.070585115692691,0.06938686591460475
36.794068,6.057096781899646,0.06888219119857676
36.798664,6.0482278050589855,0.06835316171069479
36.80326,6.0438560004565645,0.06780737115035344
36.807856,6.037563142244703,0.06727184147017164
36.812444,6.031148099318696,0.0667407606280803
36.817036,6.0269426208790495,0.06623145391078548
36.821624,6.025191076354054,0.06572817276677446
36.826208,6.030512822696096,0.0652118025659073
36.8308,6.0375112532192885,0.06469871049311468
36.835396,6.0432436951523965,0.06421164939783354
36.839984,6.055516547647333,0.06368992126971447
36.844584,6.062681304333298,0.06321525590764632
36.849176,6.072177810219771,0.06275677478728753
36.853764,6.079020154211928,0.06235424584641653
36.858364,6.084718694328148,0.06196449733074614
36.862952,6.08890687642599,0.061613438396850316
36.867544,6.089130766590804,0.0612925665868367
36.872136,6.0860454298419455,0.06101352335608456
36.87672,6.081694104503002,0.06075886046186782
36.881332,6.085559873907036,0.06048015357505445
36.88592,6.087504589701627,0.06021317842193995
36.890508,6.089082751353782,0.059968811005138255
36.895104,6.090660913005937,0.05972557757645074
36.899692,6.093793574125097,0.059491915146792085
36.904288,6.10130122276835,0.059257647697696175
36.90888,6.105088948906865,0.059037545759307336
36.913472,6.109898294207175,0.05881023308838501
36.918064,6.109066663393306,0.058607300174194465
36.92266,6.108112847865291,0.05841209453730609
36.927248,6.1061374131754835,0.058225126883784596
36.931852,6.107759716276266,0.05803438762756942
36.936436,6.115022995491228,0.05782121782228643
36.941036,6.119587971363245,0.05761261426107087
36.94562,6.126318370272996,0.05738073562588355
36.950212,6.144330721411103,0.057107975512473125
36.9548,6.1651635606063,0.05682522266677811
36.959396,6.189594137592088,0.05653707840158864
36.963996,6.2196656906920555,0.05622832250100054
36.968588,6.24781619018258,0.05592908393206663
36.973176,6.267260856073548,0.05567722642655198
36.977772,6.289159455879166,0.05543704094862637
36.98236,6.312201859560724,0.055184485407151304
36.986952,6.335122078528135,0.054940937398808586
36.99154,6.364704892771519,0.05467384931072642
36.996136,6.391467218957814,0.05441855701357115
37.000728,6.4218272829347,0.05416023509569439
37.00532,6.449244674140351,0.05391965641729954
37.00992,6.479360368688946,0.053676775538201035
37.014508,6.509353878523395,0.05344232077117959
37.0191,6.543966745310229,0.05319943719264065
37.023684,6.571917016821092,0.05298380495912685
37.028276,6.597046800274865,0.05277814920429694
37.032884,6.620499899547488,0.05256698032671318
37.037472,6.642031945210669,0.05236451826928962
37.04206,6.654203092254935,0.05219059868787598
37.046656,6.663798120670403,0.05201266926055866
37.051244,6.671716464904721,0.05182978177875083
37.055836,6.677958124957889,0.05164307159154407
37.060416,6.684077600296911,0.05146183925481424
37.065012,6.691463064226018,0.05125955088612918
37.069592,6.697294028688121,0.05104630415681554
37.074192,6.698139082055401,0.050860883225887485
37.078776,6.6952642129179445,0.050683154909883746
37.083376,6.682661891019136,0.050548303594398554
37.087972,6.666584016043882,0.05040740960905425
37.092568,6.645109534382741,0.05026790387921386
37.097164,6.622735618273953,0.050127795414036086
37.101748,6.596886149088718,0.049981390930682004
37.10634,6.568338376560539,0.04983515143190703
37.110932,6.53055189012759,0.04970362009210755
37.115512,6.495053011446521,0.04954370275707683
37.1201,6.457510894441864,0.04939653421878477
37.124688,6.42152327690421,0.049260687388724675
37.129276,6.38463622491891,0.049123785048856186
37.133868,6.346849738485961,0.048985402894879515
37.13846,6.304976775405837,0.04887355543238426
37.143056,6.261304943430419,0.048759645624172815
37.147644,6.210726146750737,0.048679562666146446
37.152244,6.159370100337554,0.04859163417970559
37.156832,6.108913488372018,0.04850101415321674
37.16142,6.052449346149867,0.048444382165036604
37.166016,5.995207954194213,0.04838089843852865
37.170604,5.936822758362619,0.048331166480602886
37.175208,5.877782497511672,0.04826789145098896
37.179796,5.818253497804139,0.048233275398997064
37.1844,5.760401182277757,0.04820481365768681
37.188996,5.702548866751374,0.048174720750585404
37.193588,5.643308377920762,0.04817459645254419
37.198184,5.578426912975972,0.04819064383898478
37.202776,5.516243751374124,0.04820668417173212
37.207372,5.449851928410957,0.04825975127126138
37.21196,5.381006171533138,0.04829811059794407
37.21656,5.310483730474169,0.04832787682530836
37.221148,5.238040235805757,0.04836519628983722
37.225748,5.161754633918464,0.048420188012264366
37.230336,5.090699312554284,0.04842289599163905
37.234944,5.019277437047665,0.04844974707717727
37.239536,4.9509204190264295,0.04845249370062291
37.244132,4.882441216291048,0.048462750407179726
37.248728,4.807055048851402,0.048518969040779986
37.253324,4.731791066125903,0.04857190179328499
37.257916,4.657670887276341,0.048604256886164286
37.262504,4.582773458693278,0.04862955640523637
37.267092,4.509019833986153,0.04863319347921375
37.271684,4.433711709812026,0.04862092225303186
37.276272,4.353006978952011,0.04860901570664629
37.28086,4.267438521711319,0.04863026270472131
37.285448,4.181337184165416,0.0486230222901171
37.290048,4.098955769124251,0.04860679431697182
37.294636,4.0127322468642035,0.04861814907050115
37.299212,3.9220115523659156,0.04863734247273067
37.303808,3.834111345924718,0.048636660519277744
37.308396,3.739548544207548,0.048678510359563484
37.312992,3.642287439147434,0.04872363940356976
37.31758,3.547969006858555,0.04874383353454294
37.322172,3.4458441754177658,0.04882398322505344
37.326764,3.3411432253481776,0.048898735275876834
37.331352,3.2334996025073552,0.04900728799801884
37.33594,3.121358807428293,0.04912428336276761
37.340536,3.014203923444053,0.04919224836375006
37.345124,2.909991712231048,0.04922958688738601
37.34972,2.79887253631378,0.04937046678829942
37.3543,2.686976110663009,0.04949603901698375
37.358896,2.5718926428127125,0.04971365438445166
37.363488,2.4579529788383545,0.04988505389198958
37.368088,2.3456899990451467,0.05010423276530846
37.372668,2.231872519784935,0.050331776163498564
37.377268,2.116133986915282,0.050604469799581255
37.38186,2.002560877083361,0.050756175784066014
37.386456,1.8921748094509665,0.05080059298382654
37.391036,1.7855086643233096,0.05083878188583861
37.395632,1.6776987153197127,0.04839391757253415
37.40022,1.5773286113255904,0.04591509023388117
37.404816,1.480800614550351,0.043432381716249045
37.409408,1.383250998613318,0.040963983135493105
37.413996,1.288521870733374,0.03847366263571597
37.418584,1.1917495045298432,0.03597899193285447
37.423168,1.0959987574881058,0.03345998971684415
37.427756,1.0083429204751988,0.030932400211641207
37.432348,0.9177444106910572,0.028422800364279896
37.436944,0.8260020970309763,0.02593216216108735
37.441528,0.7457861050275437,0.02335854277226453
37.446124,0.6688012966722656,0.02079944449207292
37.4507,0.5975796491453115,0.01816980861568864
37.455292,0.5277903163712162,0.015586007912098538
37.4599,0.4646635788730926,0.012953884082933347
37.464488,0.41257442417503465,0.010288258073784473
37.469084,0.3667813106105117,0.0075890780465367805
37.473672,0.3194778390276125,0.0050102769607887395
37.47826,0.2767937243970984,0.002510687969179062
37.482856,0.23782953227132142,0.0
37.487448,0.20246307793613574,0.0
37.492044,0.16901767721039143,0.0
37.496632,0.1368824065233601,0.0
37.50124,0.11026592723636157,0.0
37.505828,0.08802443547345662,0.0
37.510428,0.07604327677711505,0.0
37.515008,0.06945872476666061,0.0
37.519604,0.05927643496561473,0.0
37.524196,0.05485730599289299,0.0
37.528792,0.0572229570102889,0.0
37.533372,0.05844480415174562,0.0
37.537968,0.061832074330935044,0.0
37.542556,0.058871130782756305,0.0
