Time,Force,Position
35.542764,0.2865223774326827,0.00864666330228486
35.54735599999999,0.23064714048994955,0.005818694227862237
35.551948,0.18119012939489704,0.0028927443115218253
35.55654,0.13688535555744027,0.0
35.561119999999995,0.0969555692440771,0.0
35.565704,0.06602012740719246,0.0
35.570283999999994,0.042402345865636286,0.0
35.574872,0.026224409333554285,0.0
35.579463999999994,0.011600972268476638,0.0
35.584044,0.005438999374666668,0.0
35.588635999999994,0.0020975145379459256,0.0
35.593219999999995,0.0003105291682295425,0.0
35.597812,0.0003105291682295425,0.0
35.602419999999995,0.0003105291682295425,0.0
35.60700799999999,0.0003105291682295425,0.0
35.611596,0.0003105291682295425,0.0
35.616187999999994,0.0,0.0
35.620776,0.0,0.0
35.625367999999995,0.0,0.0
35.62996,0.0,0.0
35.634564,0.0005990400451490381,0.0
35.639152,0.000599040045149038,0.0
35.643752,0.000599040045149038,0.0
35.64834,0.0005990400451490381,0.0
35.652939999999994,0.0005990400451490381,0.0
35.657528,0.0005990400451490381,0.0
35.662128,0.0005990400451490381,0.0
35.66672,0.0005990400451490381,0.0
35.671316,0.0005990400451490381,0.0
35.67590799999999,0.0013202648044437465,0.0
35.680504,0.006759369045118471,0.0
35.685103999999995,0.028853370014886623,0.0
35.689699999999995,0.06334946490380026,0.0
35.694295999999994,0.1088594804076289,0.008858182655034205
35.698891999999994,0.15998680984048538,0.018439460529999254
35.70348,0.22081792984954385,0.02794160633903412
35.70806399999999,0.29495057822539567,0.03704445591254541
35.712652,0.3777653980156559,0.04625321099986467
35.717251999999995,0.4736373767444181,0.05525493605869215
35.721836,0.5828108838399738,0.06404649541677344
35.726423999999994,0.7036652600953803,0.07274315953193326
35.731016,0.842262311981612,0.08109877210214486
35.735595999999994,0.9942830769487826,0.08934143310274263
35.740188,1.1596053702827467,0.09750638035851023
35.744775999999995,1.3390064417170064,0.10559216027802032
35.74936399999999,1.53170904151806,0.11362209737870121
35.75396,1.7365693658099681,0.12165500357139439
35.758548,1.954242479612087,0.12969281385999024
35.763136,2.1839511331909143,0.13774496596575944
35.767728,2.4299600128819785,0.14566160239554193
35.77231999999999,2.6788130428152814,0.1533894678551645
35.776912,2.9104782957142796,0.16110378031356068
35.781504,3.132317573322932,0.16877284031059261
35.786108,3.344286734192607,0.16754404944253815
35.79069199999999,3.554114134209702,0.1655305228147293
35.795292,3.7559144278317445,0.16357109948941556
35.799879999999995,3.947233681144083,0.16194843524392924
35.804483999999995,4.1352673697279,0.1601186247982907
35.80907199999999,4.309344464925567,0.1585124367284383
35.81366799999999,4.4701200317564425,0.15711641435933205
35.818264,4.619759493258256,0.15577876513247113
35.82286,4.753032568907895,0.15477568571125236
35.827451999999994,4.874558615657746,0.15386284698722777
35.83204799999999,4.98368256848845,0.15301156253600184
35.836648,5.080893166256592,0.15217827288943084
35.841244,5.164924420372085,0.1513911201429149
35.845839999999995,5.2369201347108705,0.1505913009526274
35.850435999999995,5.2985128520054685,0.14970739244588566
35.85502399999999,5.347170595075712,0.14882450560527005
35.859612,5.3780296375409185,0.14808295134114224
35.8642,5.402348269444302,0.14750514307713553
35.86879999999999,5.427321966367041,0.14693129640959188
35.873388,5.450452652945855,0.14634532989914711
35.877979999999994,5.471784470629374,0.1457950234097727
35.88257599999999,5.49090672382653,0.14526278482722624
35.887156,5.510639900594417,0.1446883634349878
35.89174799999999,5.524077036228768,0.14422591726429645
35.896336,5.532484119319669,0.14383616510022545
35.900915999999995,5.5422793757147994,0.14339187472108472
35.905511999999995,5.5505201326429265,0.14295797475414265
35.91009999999999,5.557983639837551,0.1425320523780797
35.914691999999995,5.5613165289363735,0.14215264921858953
35.919287999999995,5.5594971807776,0.14184675973776772
35.92387599999999,5.55816657147541,0.1415028698888987
35.928472,5.551972235792543,0.14126576058377563
35.933052,5.546266638966259,0.1409893404416826
35.937656,5.542848649891853,0.1406440953685425
35.942235999999994,5.539186291389155,0.14031998489129366
35.94683199999999,5.5361348564571875,0.1399471441156527
35.951415999999995,5.532428356505863,0.13956855801785992
35.956016,5.5310094643064165,0.139124745877303
35.960612,5.527913887925819,0.13869963004693495
35.965208,5.523063584098554,0.13835556526001297
35.969787999999994,5.520500888023167,0.13794440291625001
35.97437599999999,5.514340454157189,0.1375902301415024
35.978976,5.504093543644036,0.13733157756755632
35.983571999999995,5.497688740349767,0.13699464530300093
35.98815999999999,5.492061186788998,0.13665306366709606
35.992748,5.486189263799939,0.13633035296320922
35.997339999999994,5.485181067191558,0.13590900274960852
36.00193599999999,5.483029066707234,0.13552027019070778
36.006524,5.486518042337093,0.1350274344330198
36.011115999999994,5.494870744347624,0.13443367723734997
36.01571199999999,5.500280773586923,0.1339015495790197
36.0203,5.508755660311601,0.13329599246513504
36.024896,5.5176412426273425,0.13271733664628085
36.029484,5.523584152171851,0.13220233687597407
36.034076,5.524663335335681,0.1317841415027219
36.038664,5.5262753988047235,0.13138065668035923
36.043252,5.53058576561671,0.1309363550471117
36.047852,5.53080965578152,0.13058583573414667
36.05244,5.534631283736924,0.13018230413901036
36.057028,5.537675661958824,0.12978044334702382
36.061624,5.537943693572263,0.12948111615443772
36.066208,5.5415650935480025,0.1291462190044642
36.07081599999999,5.548251351009124,0.12874256840898476
36.075408,5.556614292651395,0.1283244308703863
36.08000799999999,5.562278930950723,0.12794600625276245
36.0846,5.5726851109165825,0.12748932980497835
36.089196,5.577983195073472,0.12714492821351628
36.093776,5.583281279230362,0.12679949977301364
36.098376,5.587191190083022,0.1265060432064958
36.102968,5.589835112345598,0.12625366554018852
36.10756799999999,5.596076772398762,0.1259520059260865
36.11216,5.603095682185432,0.12564857743581143
36.116752,5.608437907790953,0.1253611038784129
36.12134,5.612391960092242,0.1251209779437834
36.125924,5.619533054593059,0.12480617260285734
36.130512,5.630516256312757,0.1244284616753947
36.135108,5.637535166099425,0.12412570754869418
36.139696,5.644798445314387,0.12380419936001694
36.14429199999999,5.651284474795846,0.12348854612639171
36.14888,5.660957546476832,0.12310102878357873
36.153472,5.672263160890339,0.12264696786007324
36.15806,5.684834763893932,0.12215848198368362
36.162652,5.695485313288082,0.12170380751162502
36.167248,5.70458136321523,0.12125776853765041
36.171836,5.713921782570668,0.12079172052767405
36.176436,5.715822356916631,0.12043756193486312
36.181024,5.719111104566826,0.12003499513250938
36.18561999999999,5.725709079130691,0.11955601464537495
36.190212,5.730219673922343,0.11906642035048542
36.1948,5.737262245894164,0.11850509555685666
36.199408,5.739152580608388,0.11799127344158714
36.203996,5.7387111661221075,0.11748379638581245
36.208588,5.738636305778263,0.11694902217023159
36.213184,5.741992857062235,0.11632858357740548
36.217772,5.746371027508003,0.11569144505388364
36.222376,5.742409918496647,0.11516696640649464
36.226968,5.742657470846611,0.11455525894751925
36.23157199999999,5.739062915977693,0.11399862439458154
36.23616,5.730849004156389,0.11350214124516539
36.24075199999999,5.721857842601584,0.11300777064025486
36.24534,5.712622311618488,0.11253080948128746
36.24994,5.700688477292447,0.11208481711626408
36.25451999999999,5.69259675018529,0.11158157605732646
36.25912,5.68426065364984,0.11109560473956354
36.263712,5.679277925476691,0.11058725094309976
36.26830399999999,5.678015119808279,0.11002943026187711
36.272892,5.679450617482811,0.1094440560570548
36.277488,5.677454703529524,0.10894087346834151
36.282076,5.677790538776746,0.10843462417268916
36.286672,5.675350027415505,0.10801761657081728
36.29126,5.679860622207157,0.10754358953578891
36.295844,5.686458596771023,0.1070843418359596
36.300432,5.695143951107105,0.1066417754434248
36.305032,5.704362185748397,0.10621943827062791
36.30962,5.711048443209519,0.10586614646393086
36.314212,5.724685806823533,0.10545720866081566
36.318808,5.7359133779715235,0.10510942114509329
36.323396,5.754458609414841,0.10468138593440346
36.327988,5.778400447544048,0.10419942429897877
36.332576,5.804551850159613,0.10373073472677999
36.337168,5.83070325277518,0.10326394048053325
36.341756,5.861107458200694,0.10277717001072542
36.346344,5.889346240588476,0.10233918580219917
36.35095199999999,5.918484457423906,0.10189591170412556
36.355544,5.945945990078186,0.10146539860661333
36.360144,5.973163153304173,0.10105501575279417
36.36474,6.000791012121226,0.10067556702486458
36.369328,6.028541055652426,0.10028664241789716
36.373924,6.057312718345418,0.09988700432750694
36.37851199999999,6.086450935180848,0.09946382044877433
36.38310799999999,6.1119914142256855,0.09907691451295872
36.387688,6.136876828251168,0.09868344664822289
36.39228799999999,6.15918612364785,0.0983059055851984
36.39688,6.179696550149238,0.09794627739113959
36.401484,6.201350780526565,0.09756271765419756
36.406072,6.221817065579326,0.09715976853830671
36.410672,6.243427154508025,0.09673378521749548
36.41525599999999,6.2634827439697185,0.09631217698164814
36.419852,6.279818410926678,0.09592756650055152
36.424444,6.290102406178393,0.09557707169895346
36.42903999999999,6.302551824467839,0.09519239997670054
36.43363599999999,6.31152568968084,0.0948310166629197
36.438236,6.3160023826556,0.09450202043058044
36.442824,6.319824010611005,0.09416573358656219
36.44742,6.321602400242822,0.09385740350590493
36.452008,6.32117122538828,0.09353849492170509
36.456596,6.3164872477237894,0.09323777531988989
36.46118799999999,6.313968693097033,0.09290134945250363
36.46578,6.307730215965537,0.09259840062124576
36.470364,6.300958858528831,0.09227868200478996
36.474956,6.29353243607277,0.09194967827454371
36.479548,6.286350383044999,0.0916054689308844
36.48414,6.281455937769104,0.09121877261665773
36.488732,6.273985373864416,0.0908415839107898
36.49332,6.264305245473363,0.09045109693714909
36.497908,6.252704063472871,0.0900798198265029
36.502524,6.242368870062463,0.08968010321876269
36.507112,6.231911491937908,0.08928846807348514
36.511724,6.22386390627938,0.08884680360108975
36.516312,6.222234546468531,0.08835717724220282
36.5209,6.220238632515244,0.0878929306128598
36.525496,6.216443849666662,0.08743883403652669
36.530084,6.212649066818082,0.0869798624974483
36.534688,6.2075882953794155,0.0865484596954783
36.53928,6.207391250321427,0.08606790348031489
36.54387199999999,6.21042538891159,0.0855885175217232
36.54846,6.212560093054105,0.08511152299535185
36.55306,6.212651558873036,0.08466092613282744
36.55764799999999,6.218384000806143,0.08416557272860625
36.562252,6.224771507758607,0.08368035026752846
36.56684,6.231691895016284,0.0832122374473516
36.57144,6.2347701750550755,0.08277775383784973
36.576024,6.235560847341988,0.0823838066067141
36.580616,6.24174812631479,0.08196024177719687
36.585204,6.255008696154627,0.08150749758294935
36.5898,6.265981658242587,0.08109206619829752
36.594388,6.276465881473965,0.08070861303478885
36.598984,6.284906866381754,0.08035013785678093
36.60357199999999,6.294657981328257,0.08001397835783482
36.608156,6.302365857951173,0.07970455778084529
36.612736,6.303655508726408,0.079433010874647
36.617332,6.308542897292235,0.07914404390066739
36.62192399999999,6.322136119457622,0.07878092877544922
36.626516,6.336750960784801,0.07840630884545645
36.631112,6.349322563788394,0.07805839672562219
36.63569999999999,6.358296429001395,0.07772811515985545
36.640296,6.37471013922387,0.07735273430065398
36.644884,6.393167087769932,0.07695658350884636
36.64946,6.405983060201816,0.07660135270410905
36.65406,6.420475716814851,0.0762475158476129
36.65864799999999,6.434191123694383,0.0758906371788738
36.663236,6.456001440602744,0.07550073702136303
36.667832,6.479977180548839,0.07508385613814378
36.67242,6.499211378828402,0.07470162729521945
36.677012,6.510883547384347,0.0743719953551119
36.681608,6.528441061482762,0.07399383680312689
36.686204,6.548286183333054,0.07358520008870136
36.690792,6.569397293773431,0.07315326678251141
36.695392,6.588831720032658,0.07272423177885964
36.699972,6.605690027663088,0.07229919847831437
36.704576,6.631131984178932,0.07181782582750655
36.709168,6.652976202904184,0.07135165964308306
36.713764,6.668157826353464,0.07093274346445305
36.718348,6.683828188659326,0.07048877993634672
36.722944,6.695123563441094,0.07005242337714407
36.727548,6.708462176546449,0.0695964865469073
36.732144,6.714072433765412,0.0691493502401686
36.73674,6.718006006803225,0.06870233061076787
36.74134,6.723205568431122,0.0682314919056046
36.745932,6.723008523373131,0.06777609702499922
36.750528,6.723178032457578,0.06729993464199525
36.755104,6.719461292874514,0.06680723694624854
36.759692,6.713168434662651,0.06631505619327624
36.764284,6.708508119183311,0.06577902755795052
36.768876,6.708955899512938,0.06519792893305038
36.773472,6.706050311480266,0.06461524147764747
36.778052,6.697870301475853,0.06403952259731535
36.782644,6.689035226452083,0.06345225424804904
36.787232,6.678523467247163,0.06286098872082983
36.791828,6.6662128391469455,0.06226899199028129
36.796424,6.645685116303754,0.06169927121541894
36.80101199999999,6.6233585245652655,0.061128240466051226
36.80562,6.604096790312157,0.06053046114766329
36.810196,6.5847128713449035,0.05993835396187086
36.814792,6.565451137091795,0.05933289483779974
36.81938399999999,6.5434910994957445,0.05872900798713768
36.823972,6.525661679995496,0.0581342389391075
36.82856399999999,6.506810641333452,0.057544495036891435
36.833144,6.48603854906197,0.056960141681431785
36.83774,6.468331314275866,0.05634736416362483
36.84232,6.451523513937409,0.05573192574808239
36.846924,6.426664945018752,0.05516538907800797
36.85151199999999,6.399640953062361,0.054615611071606056
36.856112,6.37098441837345,0.05410382268229426
36.860704,6.335543103694419,0.05362183296435398
36.865296,6.296792562101716,0.05317127847455766
36.869884,6.2546106088811975,0.052757127375492284
36.87448,6.210018863194653,0.05237420222392616
36.879076,6.166204367241611,0.05199301784942639
36.883676,6.123167121022071,0.05161245175220157
36.888268,6.085404296774274,0.051230366011784274
36.89286,6.047274918384039,0.0508641831363349
36.89744399999999,6.0019942058612505,0.05054722306370599
36.90203999999999,5.949562159205906,0.050279840627627095
36.906628,5.897662992855773,0.050028332871561255
36.91121999999999,5.84347621875376,0.04980198980557595
36.915812,5.778418188014457,0.04963789388357392
36.920404,5.711727614542631,0.04951706564961468
36.925,5.645203367233579,0.04943922903980398
36.92958,5.576391512172649,0.049387226422462516
36.934172,5.502349376588606,0.04937956655363999
36.93876,5.439589193232919,0.04933293088287521
36.94334799999999,5.376584640448941,0.0492998914045336
36.94794,5.313824457093256,0.049247303476215455
36.952528,5.25159715404278,0.04921706084229687
36.95712,5.189125481564014,0.0492029066153888
36.961712,5.127553243532895,0.04918856307747811
36.966312,5.066880439949424,0.0491720015843391
36.970904,4.999300671661689,0.049198667872279014
36.975484,4.931720903373955,0.04922112426688231
36.98008,4.853514247877219,0.049299327465323874
36.98466,4.776451396256424,0.04935783947859623
36.98926,4.704252271016304,0.04938791815186399
36.99384799999999,4.635895252995068,0.04940249652210232
36.998448,4.567660419687977,0.0494040285731278
37.003032,4.501224455276181,0.04940546389272164
37.007616,4.44193982499694,0.04934002589175903
37.01222,4.383266118288428,0.049223888124028656
37.016812,4.319562359036466,0.049077492774504246
37.021404,4.252793742299122,0.04896090532193222
37.025996,4.183326822218836,0.048845210739771626
37.030584,4.099635277138958,0.048791543284197346
37.035172,4.016965351220873,0.048723770903301225
37.03976,3.926366841436731,0.0487247967797331
37.04436,3.836012701080881,0.04870280747892454
37.048948,3.7433268115245237,0.048642086974229934
37.053544,3.652317606149317,0.048595630143928634
37.058128,3.555545239945786,0.048592005049130124
37.062704,3.4627371656752834,0.04855181088306839
37.067288,3.368663102814696,0.04854878363704137
37.071872,3.279452766334785,0.04851464239910249
37.07646,3.1864003226359907,0.04850351969942109
37.081056,3.08374261088999,0.04858260580329235
37.085648,2.9785087805151917,0.048646325710610186
37.09024,2.872008961550309,0.04875860836911712
37.094836,2.7619114047948345,0.048881495526510645
37.09943199999999,2.651569478611068,0.049016063026963146
37.10404,2.5341984030088924,0.049288363073438084
37.10863199999999,2.420425065197309,0.04955516098778049
37.11322799999999,2.307018281528162,0.04978548146995288
37.117816,2.1964319859161043,0.050020372938873764
37.12242,2.0916088511323703,0.05020949572334
37.127008,1.9830657938439005,0.050438645439782895
37.13160799999999,1.8793864629361061,0.050648928703546196
37.136196,1.772886643971222,0.048214311565843396
37.1408,1.6697401933686387,0.04580843211663612
37.145392,1.564261993565549,0.04338694693751517
37.149984,1.4628702704096332,0.04093143110181881
37.154572,1.3603347433777782,0.03849115799086737
37.159164,1.2560003474506274,0.036032276320327905
37.16376399999999,1.1543642548664201,0.033571079351170215
37.16835999999999,1.0571031498063064,0.031106322682245544
37.172956,0.9703467472410477,0.02857179818885447
37.177552,0.8852670288569389,0.02605187767288838
37.18214,0.8003094951869758,0.023503913498221982
37.186724,0.7188275145934581,0.02094483654636634
37.191312,0.637035004831711,0.018406307829170805
37.195908,0.5656911725906113,0.015763067007703108
37.2005,0.4967351145242256,0.013137870169170436
37.205076,0.4330534784295813,0.01052680842981257
37.20966799999999,0.37386901457317623,0.007899636832456593
37.214256,0.31905953824086475,0.00529244190750597
37.218848,0.27054610304208826,0.0026582340735775323
37.22344,0.22652984008155105,0.0
37.228028,0.18880961825454876,0.0
37.23262,0.15378769977049,0.0
37.237208,0.12439487387503038,0.0
37.241808,0.09787856101086748,0.0
37.2464,0.07598160509908951,0.0
