Time,Force,Position
35.286024,0.38412650619766514,0.013178952598068509
35.29062,0.3174020309089503,0.01054094821563844
35.295216,0.25075745731910815,0.007956954260984075
35.29979599999999,0.19310722820574447,0.0053441061341505764
35.30439199999999,0.14355190912121144,0.002696333873379055
35.30898,0.10446553228128864,0.0
35.313579999999995,0.07269681573669433,0.0
35.31816,0.0483679442015742,0.0
35.322759999999995,0.03352215599951525,0.0
35.327352,0.029836135311667546,0.0
35.33194399999999,0.03281270989979181,0.0
35.336535999999995,0.04209370681983471,0.0
35.341128,0.051252519025731934,0.0
35.345732,0.06208801541277918,0.0
35.350328,0.07574399985691567,0.0
35.354916,0.08850054985340429,0.0
35.359508,0.09741499263101017,0.0
35.364096,0.09717062320271884,0.0
35.368692,0.09999111125980806,0.0
35.373279999999994,0.09962455711737105,0.0
35.37787599999999,0.10004363390681988,0.0
35.382468,0.10898041438125844,0.0
35.387055999999994,0.13453633133454593,0.0
35.391648,0.17470390669333982,0.0
35.396227999999994,0.23254799794302064,0.008148044209611065
35.40082399999999,0.2949013594960346,0.01671943339180615
35.405407999999994,0.3687573805205463,0.025210576364989253
35.40999599999999,0.45579274519770563,0.03355278975969035
35.414587999999995,0.5526540851652125,0.04185736225334848
35.41917599999999,0.6608958998900715,0.05004154455492978
35.423779999999994,0.7772089624586105,0.05827974779448103
35.42837599999999,0.9077229878415907,0.06635133286524732
35.432964,1.047041369353125,0.07454229089009139
35.437568,1.1952862917073592,0.08275505071111276
35.442159999999994,1.3486156476854103,0.09108113917590321
35.446768,1.5145914670108984,0.09935726562546672
35.451348,1.6970558569027072,0.10756217746398389
35.455943999999995,1.8997287398655722,0.11565450611556463
35.46053199999999,2.111205978956992,0.12377858150061058
35.465132,2.3415815810807548,0.13173709996835753
35.469716,2.5871253841003874,0.13948747449222956
35.474312,2.8212004294654096,0.14716514079062623
35.47890399999999,3.038898849346521,0.1547858140722759
35.4835,3.2393653507447002,0.16239376467647496
35.48808399999999,3.4146713497938883,0.16197598987895118
35.492676,3.5844822196281942,0.1610676213085505
35.497276,3.7436457229900237,0.16015813385731634
35.50185999999999,3.8876646876411343,0.1593874109394964
35.506448,4.022224231144334,0.15858809847527244
35.511036,4.141517051222673,0.15789834121346275
35.51562,4.249629624523322,0.15709259902142741
35.520219999999995,4.342353289684962,0.1564147146441509
35.52480799999999,4.42958182563172,0.15551440541435577
35.529408,4.505552071535271,0.15458811841664663
35.533987999999994,4.573983949900353,0.15351422182745045
35.538568,4.632834222403381,0.1524196258390729
35.54315999999999,4.680304020149054,0.15134460763233154
35.547748,4.711896170899135,0.15038426697928672
35.552336,4.736849388558393,0.14929469203599127
35.556928,4.749811207889572,0.148280691658351
35.561519999999994,4.750337031484714,0.1474201740794464
35.566112,4.752994376300703,0.1466210962180379
35.570704,4.7556178192997995,0.1459439986041384
35.575304,4.761638772109825,0.1452737884277965
35.579896,4.779640883616192,0.14439998891341208
35.58448799999999,4.794988833228245,0.14364114736608785
35.58908,4.8088705662705475,0.14301669257005234
35.59365999999999,4.825372559390278,0.14240720413703473
35.59826,4.841918693958637,0.1418629246662842
35.60283999999999,4.8625174033572796,0.14133319775759998
35.60743599999999,4.8835709497956135,0.14089102630798558
35.612019999999994,4.909165809920817,0.140428184947637
35.61661599999999,4.934027561761147,0.14004178095813868
35.621196,4.963797181430783,0.13960300959447908
35.62578799999999,4.996187061177844,0.13918797952154063
35.630388,5.02477897515465,0.13891800958863154
35.63498,5.055213899475379,0.13867866654991973
35.639568,5.090067952768831,0.13842639220551772
35.644155999999995,5.122922909187324,0.1382904087117548
35.64873599999999,5.148382162044972,0.13835792863066745
35.653332,5.17580660996069,0.13844316698243067
35.657923999999994,5.203108873162263,0.13853867321955618
35.66251199999999,5.239527665554458,0.13847136694672962
35.667103999999995,5.277623142127805,0.13838601212718898
35.671688,5.312775945929916,0.13837236870476513
35.676283999999995,5.354591345007999,0.138228804318222
35.680871999999994,5.400493220733258,0.13798795363539393
35.685464,5.451014453410902,0.13767347749461703
35.690059999999995,5.500758436355044,0.13736468182689338
35.694647999999994,5.550213908422267,0.13702691044016257
35.699236,5.5991365001842786,0.13667216603318436
35.703827999999994,5.640208551345751,0.13642779618411305
35.708428,5.677272169125567,0.1362183697711609
35.713024,5.709672288504371,0.13604325570259385
35.71761599999999,5.739696517234038,0.13583477890734305
35.722212,5.773885265876399,0.13547444059541192
35.7268,5.801733831936596,0.13515913389182416
35.731396,5.828472495937741,0.13477245299922677
35.735983999999995,5.855900126775133,0.13428578334301833
35.740584,5.886837212505862,0.13363748278928403
35.745172,5.911922854511008,0.1330015642444373
35.74977199999999,5.931934302524077,0.13236562682735664
35.754363999999995,5.942374384306829,0.13180557676269045
35.758959999999995,5.949416956278651,0.131231868695841
35.763555999999994,5.950241530382456,0.13068699675977644
35.76815199999999,5.941250368827653,0.1302260565477357
35.77274,5.929228251604355,0.12972194990143548
35.777331999999994,5.907390398722449,0.1292962373709215
35.781924,5.8843204590673475,0.1287985237265605
35.786511999999995,5.856176325420166,0.12829466215833862
35.791092,5.826555735571499,0.12773501942466828
35.79568,5.799833677045437,0.12706473420179587
35.800259999999994,5.772945292356601,0.12634726757893397
35.804852,5.739883051248377,0.12570161139705682
35.809444,5.699625334558969,0.12515197191290348
35.814024,5.655114815059614,0.12463910428046783
35.818616,5.615179511064015,0.12399368454013902
35.823207999999994,5.5658833084495,0.12349438760348526
35.827791999999995,5.510946129720806,0.12308023219124424
35.832404,5.454087897382672,0.1226917031043844
35.836983999999994,5.394042622845011,0.12237673774155022
35.841592,5.34017120472674,0.1219727803952408
35.846183999999994,5.285566678323595,0.12162296486080262
35.850772,5.231495032225661,0.12128163751300804
35.855363999999994,5.18347505783297,0.12086547900335477
35.859964,5.140118581841293,0.12042655660127523
35.86455599999999,5.0937413898128625,0.12010388897330881
35.86915199999999,5.054193119223177,0.11970323197544697
35.873743999999995,5.016487858977417,0.11932576488043835
35.878324,4.982835173561942,0.11897749500211371
35.88292,4.949881694614453,0.11868902791120707
35.88750399999999,4.918526856582596,0.11844761894781967
35.892104,4.891713332237607,0.11819744952157592
35.896696,4.8741826632460175,0.11786128820849943
35.901292,4.870676391274356,0.117360145787123
35.90588,4.8713448788471245,0.11688560262680638
35.910472,4.872101649317148,0.11652635811808394
35.915071999999995,4.8865162626646645,0.11603699287829396
35.919656,4.906005070004259,0.11555988400827821
35.924243999999995,4.93171187521187,0.11507155561451278
35.92883199999999,4.96784533964882,0.11447364771013112
35.93342,5.002756956944312,0.1139816909030034
35.938008,5.048217418183287,0.11338031655101904
35.942595999999995,5.096420324213835,0.11280576758964204
35.947188,5.143767937245363,0.11230317836823597
35.95178,5.192181310887311,0.1118371573458019
35.95636,5.2443587484826235,0.11136621249263501
35.960952,5.297357577260069,0.1109602079589673
35.96553599999999,5.347457874714907,0.11065854726218509
35.970127999999995,5.400134290798541,0.11033822960750136
35.97474,5.458984563301567,0.10995838264414387
35.979327999999995,5.521310388881036,0.10955469546487942
35.983923999999995,5.5822480411562765,0.10920525330782503
35.988504,5.646905615936255,0.10882408397757891
35.993092,5.703756791564321,0.10857940722879063
35.997688,5.759830717458885,0.10833977932271134
36.00228,5.81614901278174,0.10808443685379723
36.006879999999995,5.8669485167045625,0.1079025292048027
36.011472,5.917459509750465,0.10768833197419743
36.016068,5.963717699986421,0.10750783777845492
36.020647999999994,6.00343547966055,0.10741178026482774
36.025251999999995,6.044008552333699,0.10725994941878343
36.02983999999999,6.076608899692163,0.10718582044849308
36.03444,6.105322998383114,0.1071149033579532
36.039028,6.135791824520735,0.10698028438867313
36.04362,6.167360313085666,0.10677589780312709
36.04821199999999,6.199373399058551,0.10649428974174793
36.052808,6.2270895407728615,0.10619360734753597
36.057396,6.259092387114008,0.10576494364283485
36.06198799999999,6.2875755389300805,0.1053195458009451
36.06658,6.3077974545545485,0.10491267772104179
36.071164,6.321679187596854,0.1045188279986887
36.075752,6.3342066491518185,0.10406495919944159
36.080352,6.337329070639239,0.10366993148890083
36.08494,6.338975035925172,0.10321923837474645
36.089536,6.3341586339147975,0.10278220330468778
36.094128,6.322102614874613,0.10235836149207539
36.098708,6.307670705185291,0.10188584687774424
36.103308,6.288575297094956,0.10141012478511795
36.107896,6.263017521708314,0.10094527197720145
36.11248,6.235983290120186,0.10042061512946895
36.117076,6.200976333217371,0.09995566600421034
36.121664,6.164126365970632,0.09945304968063674
36.12627199999999,6.124944649523386,0.09894516755536092
36.13086,6.080610695818547,0.09846357732068686
36.135456,6.032923373751406,0.09799050956130484
36.14004,5.981760498607819,0.09753229841771918
36.144628,5.929942558444877,0.09705764658172009
36.149224,5.872605826881901,0.09662762819571889
36.153804,5.816290714480718,0.09617299095175565
36.158404,5.761652286260685,0.09570574941486701
36.162992,5.703826815841127,0.09528821814807431
36.167592,5.642569933793751,0.09493601929877084
36.17218,5.581068682318083,0.09459605019461753
36.17677199999999,5.519855941719336,0.09428492206958694
36.18136,5.46391762309233,0.09393172060054615
36.18595199999999,5.412764987580483,0.0935725451969866
36.190552,5.364599166288499,0.09321923082418367
36.195144,5.323140081721114,0.09283544419175833
36.199732,5.292884906116569,0.09238737099282762
36.204328,5.2672932289130365,0.09194373286602839
36.208916,5.250573711471836,0.09143386776667825
36.21350399999999,5.239172757451008,0.09094188110074043
36.218092,5.237421212926014,0.09039128786835965
36.222688,5.243275839573268,0.08981542962581043
36.22727999999999,5.250729107136153,0.08929609324460829
36.231872,5.259781015614671,0.08883180908612974
36.236456,5.271208814742324,0.08842552966668074
36.241048,5.2871779275568445,0.08803890940140045
36.245644,5.303846246839349,0.08771924787113766
36.250232,5.326321868398807,0.08739179684693649
36.254824,5.360367953063543,0.08699145757621111
36.25942,5.401365143881168,0.08655785853722792
36.264012,5.451889559480482,0.08608524437800022
36.26862,5.507566212337392,0.08559587392586943
36.273208,5.567373483290104,0.08511230007137048
36.277812,5.636175098719295,0.08458148875080122
36.2824,5.706164659473052,0.08408705084960327
36.286988,5.777464350265524,0.08362730740769694
36.29158399999999,5.848641856343851,0.08319252217202441
36.296176,5.924316534660416,0.08274666375375242
36.300772,6.002567331605779,0.08231005877977382
36.305348,6.078364194636491,0.08187952473966176
36.309948,6.151218384895968,0.08149390329363211
36.314528,6.21830941432712,0.08116489166832233
36.31912,6.286788617062503,0.08080445907841693
36.323716,6.35845486199741,0.08040342149873068
36.328316,6.433796887988429,0.07993709162340593
36.332908,6.509505468121883,0.07945469092589166
36.3375,6.581083430159534,0.07897144976644642
36.342088,6.647631339653737,0.0785012462072546
36.346684,6.707228142995047,0.07806191945660519
36.351272,6.765392631583499,0.07761818403930412
36.355868,6.817749817894998,0.07718522301304871
36.360456,6.868019624434282,0.07673756008734824
36.36503999999999,6.913381563144263,0.07629324491117374
36.369628,6.948561212053198,0.07586920589144464
36.37422,6.9791995472752655,0.07542169936625608
36.37881599999999,7.003497699915169,0.07495994809633309
36.383404,7.019290246935176,0.07450911803537572
36.388,7.021713461954615,0.07410466992798467
36.392588,7.013710017744712,0.07372199999020204
36.39718,7.003252639620158,0.07333471509863508
36.401768,6.9871101439327985,0.0729367592354119
36.40635999999999,6.969124637901515,0.07249931482663499
36.410968,6.943410775983837,0.07206802298385497
36.415556,6.911767427075062,0.07163736556513695
36.420152,6.870108114528013,0.07124449773342621
36.424744,6.819576642218633,0.07087244310356644
36.429332,6.767735039870539,0.07047443024518588
36.433928,6.711518449998351,0.07007973663616128
36.438512,6.653625175945015,0.0696795008653609
36.443108,6.587759176576991,0.06929453824621243
36.44769599999999,6.514453332199496,0.06894246753320861
36.452296,6.437671934745555,0.06858671807576674
36.456876,6.357825679806232,0.06825482167989486
36.461476,6.276713436276824,0.0679390149753982
36.46606,6.195356823319126,0.06763017537129218
36.47066,6.110813168161901,0.06735130736901696
36.475252,6.0298672507952675,0.06705157849821344
36.479848,5.955217374562168,0.06672603497236324
36.48444,5.884820301139017,0.06639370963073182
36.489032,5.8171215310588105,0.06604629893023932
36.493624,5.750732891017317,0.06571599124309295
36.49822,5.687697619338123,0.06538185127121059
36.502808,5.6346783112972005,0.06500439486960714
36.5074,5.586156175494518,0.06460809711715525
36.51198,5.547527818615961,0.06418103942721148
36.51656799999999,5.519814859823324,0.06371463621689126
36.521156,5.501096245507166,0.06322421031942332
36.52574799999999,5.493293029276927,0.0627004268233624
36.53034399999999,5.487044312513694,0.06218441231771678
36.534928,5.490689374674586,0.06164463904459867
36.53952,5.505494204349691,0.06105683682213203
36.544112,5.523285848244657,0.060499223631543884
36.548704,5.544675229930215,0.05993178707141038
36.55329999999999,5.574159521644605,0.05935132343276857
36.557888,5.613004711977909,0.058739736229855836
36.56248,5.660066997054189,0.05810515772129241
36.567068,5.711382084940418,0.05748654227426077
36.571656,5.767316529779031,0.056861486476742364
36.576256,5.823783854922857,0.05625853384466972
36.580848,5.881805679533686,0.05567455313251299
36.585444,5.944324676382754,0.055087963845427634
36.59002,6.010197041594122,0.05452012850569692
36.59462,6.073537429625319,0.05400942906740529
36.599208,6.135367459638143,0.05354095430871497
36.603812,6.196053685775026,0.053098196284253975
36.608396,6.2527756199788795,0.05268725718575762
36.612988,6.306432696697355,0.052309388554675394
36.617572,6.353304993425709,0.05197125361039265
36.622164,6.4019761590493625,0.051633986763592904
36.626772,6.446805217454132,0.05131849208719747
36.631364,6.484605126440491,0.051050153364578355
36.635964,6.517785678474467,0.05079063155674802
36.640564,6.549822426632504,0.05054556371822231
36.645152,6.573519895333416,0.05032038859648319
36.649748,6.584547238501743,0.05015606895475886
36.654336,6.591732474451187,0.05000772176874899
36.658924,6.587513573458129,0.049896705545253224
36.663512,6.5748332082938035,0.04980849355406868
36.668108,6.560720528376619,0.049700202958334674
36.6727,6.540067437897608,0.04960666758922829
36.67728,6.513240490999207,0.04950692349076416
36.68187999999999,6.476397580462535,0.04941499407289308
36.686468,6.431581944611178,0.04931702532433622
36.69105999999999,6.38508962457867,0.049211854300172136
36.695648,6.329358590641392,0.04912053039940352
36.700228,6.2693747538941675,0.049012890407073184
36.70483599999999,6.199130584080377,0.04892583869697559
36.70942,6.122223818990616,0.048860905987032056
36.714012,6.041841500824409,0.04878437490321878
36.718608,5.95401933764873,0.04872002027480897
36.723196,5.865542109453694,0.048640338365309864
36.727792,5.776165446811008,0.04855965331682252
36.732372,5.683313231091877,0.04846965900732918
36.736976,5.588539961763305,0.04838476157606576
36.741564,5.493355996843668,0.04826659785791095
36.74616399999999,5.391509436648059,0.04817230836521981
36.750752,5.294404418118981,0.048062752191196274
36.755352,5.194889607123878,0.04799785686422423
36.759944,5.0883456467103665,0.04798466720231725
36.76454,4.980780067135061,0.04798253651745958
36.769124,4.870027445360229,0.04801362162053998
36.77372,4.761728757500051,0.04806372636825756
36.778308,4.655106753821022,0.048122454955885956
36.782904,4.542843774027814,0.04820381927459149
36.78749199999999,4.42853755591102,0.04831503527835229
36.79208,4.310922110880554,0.048481315966760245
36.796668,4.194206100297735,0.048661623723074365
36.801256,4.077734459143208,0.048834852924762
36.80584399999999,3.957953591075008,0.0490705230953077
36.81043999999999,3.840626656921461,0.04934607775220996
36.815032,3.723177538053768,0.04963766684820903
36.81961999999999,3.6056062344719293,0.04995654479415394
36.82421599999999,3.4889343653377387,0.05027590496192789
36.828796,3.374061365098844,0.05060484364448897
36.833376,3.263318982955751,0.050976146014972475
36.83797199999999,3.156540892745687,0.051321302365212144
36.84256,3.0488633680879746,0.051677291164182106
36.84717199999999,2.946538308667521,0.051939972265548355
36.85176,2.850998029237186,0.05215548400915881
36.856364,2.759177672311588,0.05236358658049212
36.860956,2.6700556187289335,0.052589500898543994
36.86554399999999,2.579134696250983,0.05284202930998267
36.87014799999999,2.4889910235065353,0.05312928352093605
36.874736,2.4014234693908847,0.05347012094340939
36.87934,2.3206406952653515,0.05373918624632845
36.883936,2.2456210819681424,0.05395845968719513
36.888532,2.1780413136804078,0.05413028159689352
36.893108,2.1179013904021473,0.05424161735865013
36.897708,2.055962598228591,0.05439969438795528
36.90229599999999,1.9955341640734114,0.05444852476009887
36.906904,1.9344506648988753,0.05444813476776965
36.911492,1.8718126662573347,0.05441423451712744
36.91608,1.8063541795587048,0.05441919163893593
36.92066,1.7380752048029857,0.05449649942127104
36.92525199999999,1.6642774386472337,0.05471835514589171
36.929852,1.5904796724914816,0.05200389964315543
36.93445199999999,1.5170484604781667,0.049278983084099885
36.939044,1.4406745756936168,0.0466083641534127
36.943636,1.3625018220137712,0.043953287519965724
36.948224,1.2789324616480384,0.041293763862891554
36.952812,1.1925426132252166,0.03860357403960902
36.95739999999999,1.1070521992500426,0.035874162282371856
36.961996,1.022705589150808,0.033108088189684956
36.966588,0.940768771517597,0.030272997430008174
36.97118,0.8583432150278036,0.027479515254154117
36.975772,0.7775943427191601,0.02470335765457486
36.980352,0.6948379923371741,0.02195304721802529
36.98494,0.6118372725268968,0.019254202811088975
36.989532,0.5362763977260935,0.016470442710272138
36.994124,0.46394670657344483,0.013756304796694534
36.998716,0.39586981823074396,0.011083970694904665
37.00330399999999,0.3339667863074324,0.008418190767878943
37.007896,0.2783597955176558,0.005722210634579741
37.012488,0.22917103057555968,0.002944937450783915
37.01707999999999,0.18742211064293784,0.0
