Time,Force,Position
35.591252,0.08287500202341128,0.0
35.595839999999995,0.07077165861292405,0.0
35.600424000000004,0.06136661854538035,0.0
35.60502,0.055105991751926764,0.0
35.609607999999994,0.052363546960355056,0.0
35.6142,0.051053416921642045,0.0
35.61878,0.05109604584707819,0.0
35.623372,0.053750207741393594,0.0
35.62796,0.058412193619214674,0.0
35.632548,0.05923207227815299,0.0
35.637136,0.060174135651237005,0.0
35.641728,0.06111619902432101,0.0
35.64632399999999,0.06238218761440587,0.0
35.65089999999999,0.06184930730919504,0.0
35.655496,0.05784087392753846,0.0
35.660084,0.05383244054588189,0.0
35.664676,0.05072344161187317,0.0
35.669259999999994,0.05067930016324502,0.0
35.673852,0.05267839703820389,0.0
35.678439999999995,0.05737579725610634,0.0
35.683032,0.06015214386456742,0.0
35.687624,0.07114558521600484,0.0
35.692228,0.08688056823397285,0.0
35.696828,0.10229162603493998,0.0
35.70142,0.1175378701963253,0.0
35.706008,0.1293085612812649,0.0
35.710604000000004,0.1457088489503282,0.0
35.715183999999994,0.17136832978763894,0.0
35.71978,0.2089411656875125,0.006731952509697296
35.724372,0.2636576371730621,0.013594394641199308
35.728972,0.33605062454949874,0.020258276369284674
35.733568000000005,0.4190468369497851,0.027156379878639354
35.738164,0.5030410063267144,0.03466248890244944
35.742744,0.5993150849086436,0.042257791781150016
35.747336000000004,0.7096679415908684,0.04983259867635943
35.75192799999999,0.8314012730304452,0.05741296917155721
35.756519999999995,0.9630827644745151,0.06499209008725287
35.76110799999999,1.101281004295261,0.07269037918625343
35.765696000000005,1.248527969672852,0.0804711194099226
35.770284000000004,1.4090323219686083,0.08811421506542197
35.774872,1.5796070189830038,0.09576330456574428
35.779464000000004,1.7546110846018599,0.103522448264509
35.78405599999999,1.9345773991303883,0.11137165846020118
35.788652,2.128211796168147,0.11918149928342653
35.79324,2.3347370259816334,0.12694406556036805
35.797832,2.554685968876059,0.1347292615104689
35.802424,2.7789216163973243,0.14239318559496114
35.80703199999999,2.9911114845101396,0.14992594659194172
35.811616,3.18978935664476,0.15064430042264051
35.816204,3.3737333856597287,0.15123615731224088
35.820812000000004,3.532028173469125,0.15217983878622546
35.8254,3.6845834626353478,0.15275563055710736
35.829988,3.8363851642532216,0.15262100758343217
35.83458,3.975251891646735,0.15241207265518686
35.839168,4.100694905959311,0.15224254290603464
35.843772,4.210915338295651,0.15213661558150549
35.848364000000004,4.308367122570409,0.1520631226707507
35.852964,4.396115116268966,0.15188210891499976
35.857547999999994,4.475469449430035,0.15162220558939882
35.862144,4.541322026244646,0.1515150865887477
35.866724000000005,4.598903127235913,0.15134352522359365
35.871331999999995,4.652054859622721,0.15098601637497536
35.875924,4.698078920062123,0.15051247479091745
35.880520000000004,4.733133201335239,0.15005269305714694
35.885116,4.7559517148519825,0.1496550674709204
35.889712,4.774463044478412,0.14909952030103016
35.894304000000005,4.786145452666092,0.14867334073277966
35.89889599999999,4.7992262737897455,0.14837575636200587
35.903492,4.813539181686593,0.14815808757955148
35.90808799999999,4.831616153536806,0.14791704443841963
35.912679999999995,4.864616956854595,0.1474019675101991
35.917280000000005,4.891243675773331,0.1470872712229212
35.921868,4.918691785874198,0.14683489495387567
35.926464,4.954889871023252,0.14644383044228648
35.931051999999994,4.997017443163407,0.1459735727899163
35.93563999999999,5.050426967531918,0.1452789811976315
35.940231999999995,5.106412610529229,0.144544136548274
35.944816,5.169838098536013,0.1436827635586499
35.949408000000005,5.238782377942829,0.1427379633425819
35.953996000000004,5.308503907083147,0.14178755536490364
35.95858,5.377981066795174,0.14087574252150964
35.963168,5.448357660954849,0.13997959529186166
35.967755999999994,5.519755874276317,0.13907410625890132
35.972352,5.594218945083168,0.13812049149024153
35.97694,5.671991242803688,0.13709137477332556
35.981528,5.744122564410029,0.1361945581049417
35.986124000000004,5.816986994301247,0.13525206089172445
35.99071599999999,5.890340163049046,0.13428285494390524
35.995307999999994,5.9631604514916345,0.13330558576214938
35.99989599999999,6.035814413771449,0.13230339517015643
36.004492,6.099718401003076,0.13143505836249586
36.00908,6.166765288985603,0.1304430610816392
36.013679999999994,6.227716363814256,0.1294832307422792
36.01826,6.278118594699427,0.12867314720960216
36.022859999999994,6.320503958821282,0.1279259705059851
36.027444,6.348498371780772,0.127385216494261
36.03204,6.372850905501042,0.12684572424909252
36.036632,6.3862438996867645,0.12641887481122796
36.041224,6.388799539052085,0.12608925604287352
36.045812,6.387546973015413,0.12571965015094777
36.050408,6.379176974663075,0.12538747492622934
36.05499999999999,6.364466793728573,0.12508994286260308
36.059592,6.344438049373704,0.12480469852164405
36.064184,6.31692531856073,0.12457852529734073
36.068772,6.282050786003801,0.12440090421874908
36.07336,6.242879309188295,0.12421390768265057
36.077952,6.197001095648187,0.12408209229484209
36.082548,6.143516710935834,0.12401951615132267
36.087136,6.08663481641255,0.12393312431331917
36.091736,6.023945619612314,0.12388759299402746
36.096324,5.962233900525242,0.12376825216035105
36.10092,5.897823878095227,0.12367346789575794
36.105504,5.834557659541151,0.12354437060543617
36.110092,5.774600667900746,0.12333460486667158
36.1147,5.716686914583929,0.12307947603627445
36.119292,5.666579560419023,0.12268511480763364
36.12388,5.618515444577704,0.12224398441970287
36.12847599999999,5.572005828203389,0.12179224498080002
36.133064000000005,5.529093949619666,0.12128901851270142
36.13765599999999,5.489413254684097,0.12075922947623895
36.142252,5.453208112824974,0.12018683067968658
36.146844,5.413693744052178,0.11968914549412377
36.15142,5.375122951175659,0.11922803327759612
36.156024,5.335819050014266,0.11881917260558994
36.1606,5.299257593644445,0.11842445391212018
36.1652,5.266460201227989,0.11802216710811489
36.169792,5.2416355341262175,0.11751768474842757
36.17438,5.223761973177338,0.11693255844245719
36.17896,5.20953029146768,0.11635122714785691
36.18355199999999,5.2027825962161245,0.11571030768178912
36.18814,5.194935238537257,0.11515182402113844
36.192736,5.186232587859372,0.11465739418543937
36.197324,5.181171816420705,0.11417217694919919
36.20191199999999,5.176932436164168,0.11374033575527104
36.206500000000005,5.1790332384897955,0.11328742029610038
36.2111,5.181711062569261,0.11290991048754076
36.215688,5.18766421174551,0.11257359314303036
36.220272,5.2020007818275085,0.11218091626559434
36.224868,5.2238213383676095,0.11174760530866233
36.229456,5.24928377414693,0.11133445070804313
36.234048,5.280186958060766,0.1109188957858482
36.23864,5.3217611706322305,0.11039456682747596
36.243228,5.372329727680173,0.10978314964326547
36.247832,5.434468747833393,0.10906416924383681
36.25242,5.501882189958354,0.10830577714746148
36.257024,5.5733040654649715,0.10754594307517876
36.261616,5.643626278544278,0.10687889913853751
36.266204,5.716158056109944,0.10623146360831413
36.270796,5.788856159838384,0.10562982681888082
36.275384,5.862331513300328,0.10504920720546859
36.27998,5.9440239615052475,0.10439278642120577
36.28456799999999,6.031357385824345,0.10367172064226068
36.28916,6.1185686254292975,0.10297146064750932
36.293748,6.207700918643692,0.10225367976199133
36.298348,6.290292801296259,0.10161968830668773
36.302932,6.370430750034174,0.10099826882242713
36.307532,6.448481318999874,0.10037025753243166
36.312128,6.519214227670245,0.0998245673442417
36.31672,6.579686803274053,0.09939296121967894
36.321316,6.633330457439116,0.0990037604753686
36.325912,6.683865112670169,0.09862153196773207
36.330508,6.728225911481832,0.09829144738141359
36.335104,6.7640811046736005,0.0980128107135973
36.339692,6.787832954454882,0.0978082597420586
36.34428799999999,6.806554751692714,0.09762627613309821
36.348876,6.820735235243678,0.09743667682024032
36.353464,6.836381935364389,0.09716385604638536
36.358052,6.847487321798233,0.096882396124416
36.362644,6.854540133401792,0.09656090177813738
36.36724,6.852065720223663,0.0962897002072218
36.371824,6.839164647816195,0.09607485432614529
36.376412,6.821600077007714,0.0958547346776285
36.381,6.795652085293484,0.0956612347820808
36.38559599999999,6.76618439905418,0.09544009344997971
36.39018,6.73524025661339,0.09516445243702398
36.394768,6.698488811895646,0.09490240030738167
36.39936,6.658994922386331,0.09461085355827352
36.403952,6.615859153637796,0.09429768207085709
36.40854,6.574722481764222,0.0939098439760686
36.413136,6.531131875975994,0.09352279643953183
36.41772399999999,6.481611783196669,0.09315476144268003
36.42232,6.432458244559781,0.09276065381909801
36.42691599999999,6.380362033151656,0.09239637485812757
36.431512,6.330064690638828,0.09201477172602712
36.436092,6.277435598925495,0.09162451196484568
36.440696,6.221208769421568,0.09125411860338868
36.44527599999999,6.155376671870435,0.09097960505154266
36.449868,6.09097688907216,0.09070924737563604
36.454464,6.030052659350333,0.09041283980803028
36.459056,5.972726167419097,0.09008704877014519
36.46364799999999,5.9173207290973,0.08973549975940684
36.468244,5.8622038016524245,0.08941144071311245
36.472836,5.814404534502877,0.0890240979994424
36.47743199999999,5.764972724620807,0.08868471083810388
36.482024,5.715585056187365,0.08838997101367127
36.48662,5.6751917322304015,0.08802875638991023
36.491208,5.6374186683508665,0.08770248887718156
36.495796,5.605575091462429,0.08735341953183799
36.500384,5.576718328793852,0.08701705764668674
36.50498399999999,5.558654779497051,0.08660773730786993
36.509576,5.550240639696085,0.08614911898483411
36.51416,5.540438326590887,0.08572637420013679
36.518756,5.536932054619225,0.08526152289341755
36.523336,5.538700204619303,0.08477114696908274
36.527928,5.5489739602392785,0.08426000995149803
36.532520000000005,5.564033398974414,0.08375336733402147
36.537108,5.586821193595941,0.08321669487287424
36.54172,5.614106160455708,0.08266053408193953
36.546308,5.643356322373544,0.08214233211572532
36.550920000000005,5.678658155996624,0.08160951159262851
36.555504,5.719522922468364,0.08109116365634086
36.560096,5.763863242016551,0.08056441110478707
36.564692,5.81233417966054,0.08004920634513571
36.56927999999999,5.8689000273333605,0.07949651401510334
36.573876,5.935726208072743,0.07887858045932257
36.57845999999999,6.004229072993276,0.07827705034430424
36.583052,6.075552425970897,0.07766420534289761
36.587644,6.150229147310819,0.07706080229031011
36.592244,6.227604171993685,0.07645533431321676
36.59683199999999,6.302935958352964,0.07589232710202408
36.60143599999999,6.372626768598065,0.07537663663645161
36.606028,6.448857989404992,0.07482605682618916
36.610624,6.525866459945421,0.07428948301384974
36.61520399999999,6.602752745771704,0.0737716159769064
36.6198,6.67334299046445,0.07328836055924608
36.624408,6.7481418965185185,0.07276715624495383
36.629000000000005,6.8253505950386115,0.07221600326138525
36.63359199999999,6.896141067711023,0.07170266581879484
36.638184,6.965499225630576,0.07118229212470653
36.642764,7.030482396026035,0.07067997566553083
36.647356,7.09644304413466,0.07013732300698139
36.651944,7.161992996652219,0.06958096490196866
36.656536,7.219570223855095,0.06905049108011392
36.661128000000005,7.269052541029138,0.06855028935061792
36.66571999999999,7.306353471527176,0.0681150307888871
36.670316,7.337358360891679,0.0677025043233724
36.674904,7.358347286617911,0.0673237788137796
36.679496,7.372629475619542,0.06694277028871518
36.684088,7.3807378082017845,0.06657416447399982
36.688676,7.378830177145755,0.06623742698362295
36.69327199999999,7.377411284946308,0.0658751860040485
36.697864,7.36928565602226,0.06550788948017403
36.702456,7.355108355392969,0.06514339078393214
36.707044,7.332958329448993,0.0647909698393462
36.711632,7.3112970423616,0.06441192366876437
36.716228,7.281418660531232,0.06405690532679584
36.720828,7.239358892024858,0.06375010836634712
36.72542,7.193823570442037,0.06344136738197637
36.730012,7.1439132613351255,0.06313295913319558
36.734612,7.08872853025647,0.06282557204627454
36.7392,7.021240227787667,0.06256936080936129
36.743804,6.94618989559524,0.062342577056888816
36.748392,6.870240128955169,0.06211297361210343
36.752996,6.794779101171679,0.06185131758548351
36.757588,6.724792723339594,0.061522671179339856
36.762192,6.652885291898065,0.06119932119850497
36.76677599999999,6.585841586837215,0.060842022179243394
36.771368,6.518553512348074,0.060491248913981985
36.77596,6.451509807287222,0.06012023277753254
36.780552,6.392272501378283,0.05969665589351655
36.785152,6.331891391593404,0.059282396803745405
36.78975199999999,6.268733935200063,0.05891855428864124
36.794344,6.209951466330818,0.05854906582904019
36.798936,6.156565604147459,0.05816549200039896
36.803524,6.1028131878216625,0.057797038649788954
36.808108,6.0526585092864575,0.05741782045084517
36.812696,6.01378578297961,0.056990923921346054
36.817292,5.983007966701593,0.05654973128412224
36.821884,5.955583518785876,0.05611393459177313
36.826464,5.937031230632491,0.055671468878116595
36.831056,5.931193209460323,0.05520406414488562
36.835644,5.930751794974041,0.05472632185057753
36.840236,5.936484236907148,0.0542481032727327
36.844824,5.9432824394506785,0.05380803637217445
36.849412,5.949103164281043,0.05342513529585155
36.85400799999999,5.959665430777937,0.05302314138911758
36.85859599999999,5.975746488674865,0.05261265075698593
36.863184,5.994281480486444,0.05221310013916525
36.86778,6.017724340127329,0.05183909469970938
36.872372,6.0395346570356905,0.05150994477319494
36.876968000000005,6.0648205270204985,0.05118704652054106
36.881548,6.095991742547777,0.05083166590683954
36.88614,6.126019154199115,0.05049295383497268
36.890728,6.156823815583956,0.0501632651726728
36.895324,6.185096499788626,0.04987422948920395
36.899912,6.211858825974923,0.049621119941842616
36.904512,6.235311925247544,0.04940659658840271
36.909096000000005,6.255045102015431,0.04920233732841179
36.913684,6.273756659621523,0.04900569760751083
36.918272,6.284784002789849,0.04883895539298759
36.92286,6.286328262625115,0.048702084563798716
36.927448,6.284929849689146,0.04857902634813314
36.93204,6.276335961171993,0.048456823435954796
36.936632,6.265043769311898,0.04833416362735634
36.941228,6.24990947023292,0.04822564488176494
36.94581599999999,6.227868206449679,0.04815201268694348
36.950408,6.194178436295643,0.048128087088257575
36.955,6.157545993370372,0.048118659657940266
36.95958,6.112696455702125,0.048116888235103586
36.964176,6.064371364957432,0.04810776025987044
36.96876399999999,6.008484244489119,0.04812052097087141
36.973356,5.947733397640131,0.04815348270928147
36.977952,5.882485378552903,0.04818538659326935
36.98254,5.809919699170346,0.04822259174854842
36.98713599999999,5.734367205567927,0.04822348572085136
36.991724000000005,5.654439724441414,0.04821785742586731
36.996312,5.570381625219099,0.04818536331417684
37.000908,5.48056036516846,0.04817465482621377
37.0055,5.38432087927014,0.04817011093554771
37.010096,5.284605840295372,0.04815847773640909
37.014684,5.186934039644194,0.048129924537031875
37.01928,5.087829924240157,0.04807029243436037
37.02386799999999,4.987582004960179,0.04802302317284046
37.028468,4.886556835946702,0.04796389907404913
37.033056,4.78422153689451,0.04786678595054249
37.03766,4.683929476165906,0.04774940791960496
37.042248,4.586702272922682,0.047602799311055335
37.046848,4.486243886031302,0.04742056138634457
37.05144,4.386684933587571,0.047233775713402176
37.05603599999999,4.283406058639104,0.047047694019543916
37.060624,4.178328314795339,0.04685896510917073
37.06522,4.072473321218074,0.04665172616651814
37.069816,3.9636756548695735,0.04645782464372884
37.074404,3.8565546727022224,0.046266375301685626
37.078992,3.74894495167829,0.046114384221519665
37.08358,3.63953636175906,0.045953964620125486
37.088168,3.5266963602120134,0.045862769600369106
37.09276,3.4111580553220233,0.045772455320907214
37.097352,3.2990953035084787,0.04569846727319003
37.101944,3.1896086703237323,0.04564134566037532
37.10653599999999,3.074481061024807,0.04561021516782057
37.111124,2.955022605650416,0.04567745428568046
37.115712,2.836341400009528,0.045772493396144816
37.1203,2.719581247978082,0.04582772539183128
37.124888,2.605641584003724,0.0458245316019744
37.129484000000005,2.490680300867573,0.045828212768953505
37.134072,2.375474648303131,0.04586979809463861
37.13866,2.2627229296533407,0.04593474369294663
37.143256,2.1472729076606063,0.04599296177058336
37.14784399999999,2.0352984387443183,0.04609062787305659
37.15244,1.927166077046913,0.04613593357325584
37.15702,1.8158466731499814,0.04632907059492851
37.161612000000005,1.7054267037006976,0.04409570237230848
37.16620399999999,1.5957839839849157,0.04186759703446002
37.1708,1.4930482289733975,0.0396167730470084
37.17538,1.3948096462001187,0.0373742919383037
37.17998,1.302578593683455,0.03508945206466763
37.18457599999999,1.2195862550715615,0.03279515084640482
37.189172,1.1349172322785177,0.030484996566857013
37.193764,1.053190882256709,0.02815848109577853
37.19836,0.9771055083490787,0.02581614288609662
37.20294799999999,0.9096037833268618,0.023406487651867328
37.207544,0.8478652191329689,0.020970559008039187
37.212136,0.7838390471871975,0.01858642431191039
37.216728,0.7165036483277544,0.01628456336303315
37.22131999999999,0.6537876064206961,0.013988752598119724
37.225904,0.5956909214660226,0.011669043815921314
37.230496,0.5383714862448515,0.009353793454903286
37.235088000000005,0.48836971131900897,0.007049153456646927
37.239684,0.4422100436120491,0.004711718006866416
37.244272,0.3985043098197414,0.0024207647728269124
37.248868,0.3632600401987014,0.0
37.25344799999999,0.334433996425342,0.0
37.258044,0.30752900626142393,0.0
37.26262799999999,0.2762931700220405,0.0
37.267216000000005,0.2466913890383709,0.0
37.271820000000005,0.2186441075217057,0.0
37.276408,0.1904746412908948,0.0
37.281008,0.16770178174597106,0.0
37.28560399999999,0.14660560638219727,0.0
37.290192000000005,0.12812817857265757,0.0
37.294788,0.11042800049662004,0.0
37.29938,0.0906419551715593,0.0
37.30397599999999,0.07559745151302917,0.0
37.308556,0.06619392396867751,0.0
37.31315599999999,0.05666821171018017,0.0
37.317744000000005,0.04714249945168282,0.0
37.32234,0.0404372752502747,0.0
37.326932,0.033609866334720906,0.0
37.331524,0.026660272705021436,0.0
37.336112,0.020732298237115494,0.0
37.3407,0.013904889321561701,0.0
37.345304,0.007077480406007908,0.0
37.349900000000005,0.0020489403857498166,0.0
37.3545,0.0009846922985201464,0.0
37.359096,0.0009846922985201464,0.0
37.36368399999999,0.0009846922985201467,0.0
