Time,Force,Position
35.767684,0.24390154813401618,0.004961950606150581
35.772279999999995,0.19528870382328153,0.002507662272201511
35.77686799999999,0.15129521646493185,0.0
35.781464,0.11461938940191059,0.0
35.786052,0.0850168532059265,0.0
35.79063599999999,0.058889870086388144,0.0
35.795227999999994,0.03648280947158687,0.0
35.79981599999999,0.021393409152114073,0.0
35.804404000000005,0.010923365785026206,0.0
35.80899599999999,0.0039288754943840746,0.0
35.813592,0.0014315574419811997,0.0
35.81818,0.0014315574419811997,0.0
35.822779999999995,0.0014315574419811997,0.0
35.82736799999999,0.0,0.0
35.831959999999995,0.0,0.0
35.83654799999999,0.0,0.0
35.841136000000006,0.0,0.0
35.845732,0.0,0.0
35.85032,0.0,0.0
35.854907999999995,0.0,0.0
35.859511999999995,0.002986056908985559,0.0
35.86409999999999,0.005727744389679775,0.0
35.868696,0.0057277443896797745,0.0
35.873276000000004,0.006181824118495605,0.0
35.877876,0.006181824118495605,0.0
35.882464,0.006181824118495605,0.0
35.887060000000005,0.008478914191235289,0.0
35.891644,0.012452688445125003,0.0
35.896244,0.015038289394784177,0.0
35.900836,0.017135151487860673,0.0
35.905424,0.017135151487860673,0.0
35.910011999999995,0.01818673223399306,0.0
35.914608,0.02840922325111656,0.0
35.919212,0.05001218902559207,0.0
35.923804000000004,0.08083020651968684,0.0
35.928392,0.12458319823813793,0.011405636177699505
35.932987999999995,0.18061609916158888,0.022032694471257504
35.93757599999999,0.2499505284518332,0.03201701375037342
35.942164000000005,0.3292772591951989,0.04199567978011519
35.946740000000005,0.4207617144294189,0.05172202031679599
35.951336,0.5200296639412769,0.06143395704671466
35.955932000000004,0.6349308910204348,0.07082975490156598
35.960511999999994,0.7678405290051499,0.08000451061625297
35.965104,0.9142968220958271,0.08910338839949405
35.969684,1.0799494714166287,0.09792434547713398
35.974276,1.260257920591565,0.10671083550225234
35.978883999999994,1.455867752319131,0.11535235038281837
35.98347199999999,1.6681766222244185,0.12386024724856637
35.988084,1.9020482566881038,0.13220983665310604
35.992672,2.1546621676530977,0.14047809886934293
35.997271999999995,2.430647194392647,0.14853660685645845
36.00185999999999,2.7220250695037547,0.15642000336703893
36.006460000000004,3.0127037381468793,0.16428114706417757
36.011064000000005,3.2978975172068608,0.17216012238174794
36.015652,3.58205943747331,0.17998975447808516
36.020247999999995,3.861836130583928,0.17634139919248326
36.024828,4.13559505380619,0.17346507254770688
36.029428,4.402436772692451,0.17121701123016864
36.034016,4.672577478860646,0.16882551370275606
36.038616000000005,4.937066969282923,0.16666794617278022
36.043204,5.199581025015392,0.16445178624107784
36.047804,5.453701420210372,0.1625065310136484
36.05238799999999,5.702370827639098,0.16069625293948092
36.056984,5.943868421671792,0.15889071703916052
36.061564,6.168711118975392,0.1573637380994068
36.06616,6.380208146463572,0.15587622555013472
36.07075999999999,6.579381123298122,0.15447387311794974
36.075352,6.758912389183716,0.15323648258998884
36.079944,6.918513433243434,0.15214382496749412
36.084536,7.062148547410304,0.15108358053913176
36.089116,7.184753777323989,0.15021964032496654
36.093696,7.286783960024179,0.149565110742134
36.098292,7.382219351082174,0.14886771592383785
36.102884,7.4727366346791255,0.14809862552310754
36.10748,7.552450465272565,0.14736773069331716
36.11206,7.622793157615348,0.1466764778963859
36.116652,7.681432962506973,0.14601942727031683
36.121244,7.734255225489907,0.14530544614756202
36.125832,7.767690386583912,0.1447649624305252
36.130436,7.790810833530987,0.14421779055307551
36.135024,7.799407904969812,0.14374728022787667
36.13962,7.798223142566918,0.14327772247570925
36.14420799999999,7.782637189369919,0.1428715765382576
36.148796,7.754493055722741,0.14253935882476015
36.153400000000005,7.71967608716785,0.1421829386925114
36.15799199999999,7.682927825371779,0.1417292500721776
36.162584,7.632599763963734,0.14136340652986598
36.167164,7.580995474333866,0.14090197777952324
36.171764,7.522395937102478,0.14047412371259652
36.176352,7.4559017178219245,0.14008804573174277
36.180952000000005,7.388297596482318,0.1396321334736757
36.185536,7.32167095285588,0.13911343513056132
36.190136,7.2471937686289,0.1386748415669815
36.194724,7.1658876629631765,0.13829736374798374
36.19932,7.085969730601683,0.1378682072536066
36.203908,7.004741668201476,0.1374205434093812
36.208504000000005,6.926578463286647,0.13691008038734467
36.213092,6.845472585600586,0.1364353328781966
36.217688,6.767842260990969,0.13591693746366776
36.222276,6.696796488391807,0.13533205665192521
36.22686399999999,6.633356886964893,0.13466503398912266
36.231452,6.5715159264536105,0.13402363178611773
36.236032,6.511273606857961,0.13340915073646936
36.240628,6.45610548125439,0.13278662713259054
36.24522,6.405767180214607,0.13217080788398175
36.249816,6.356294411805582,0.1316304229450466
36.254404,6.318069693808023,0.13101118736578096
36.259004,6.28418606151767,0.13043384660562937
36.263592,6.262572098800574,0.12976291026616374
36.268188,6.2478753404194824,0.12910997990509746
36.272784,6.234454810260216,0.12856182059213192
36.277372,6.22933965774118,0.12799458793175894
36.281976,6.233307132595879,0.1274023387440989
36.286568,6.2461128653960225,0.1268007465161328
36.291156,6.265180737512811,0.12622456144797087
36.29575199999999,6.287201522032572,0.12574055629342748
36.300340000000006,6.317405499478421,0.12525257436896875
36.304936,6.355670485136214,0.12476980784448494
36.309528,6.402118663720093,0.1242840065617079
36.31412,6.449676744363022,0.12387938474748358
36.318712000000005,6.500143595960298,0.12353403282379287
36.323312,6.552741968778415,0.12323845061243749
36.327904,6.614911707826851,0.12290181077384199
36.332504,6.684565433333389,0.12252142554819026
36.337092,6.761825330012174,0.12209581249842048
36.341684,6.843504355663683,0.12167734846365166
36.346272,6.924450273030315,0.12131141540034569
36.350864,7.010548427654545,0.12091720824119838
36.35546,7.095502778402836,0.1205642851722734
36.36004799999999,7.185565224960095,0.12014166918876237
36.364644,7.281635201773969,0.11964056713043031
36.369240000000005,7.377172298282633,0.11914568163188849
36.37383199999999,7.476018621704968,0.1186067943581725
36.378420000000006,7.579317975916915,0.11800530241162312
36.383012,7.679386146480708,0.11742825245545485
36.38759999999999,7.783618836957193,0.11675575188824186
36.392188,7.887030136251546,0.11606911117483416
36.396784,7.985900121859032,0.11539580274731995
36.401376,8.082638586245674,0.11469387070291875
36.40595999999999,8.178144963859118,0.11395254512894624
36.410556,8.268577147480487,0.11320906441007367
36.415144,8.36174153626169,0.11237442160957994
36.41974,8.44737779713616,0.11155011346026367
36.424336,8.527284798999194,0.11072663747539326
36.428916,8.59377832741303,0.10997117598198748
36.43352,8.650411978719628,0.10921506009126741
36.438104,8.70413685907188,0.10841904154453863
36.442692,8.746369319584375,0.10766812571928909
36.447288,8.778908229152407,0.10694386852757166
36.45188,8.801875772490119,0.10624457655644437
36.456476,8.812451461540425,0.10559023583848479
36.461056,8.813333599646269,0.10495921655254183
36.465656,8.803089872054791,0.10434631510361582
36.47024,8.7788997907089,0.1037725950177428
36.47484,8.747059396742134,0.10319179891706441
36.479424,8.706424886278551,0.10262142694788488
36.484024000000005,8.653154152099274,0.10209419451243262
36.48862,8.590967116709034,0.10157983070723832
36.493216,8.519619410679542,0.10108741371051169
36.497812,8.438622295154214,0.10064017457793568
36.5024,8.353861115675523,0.10017846765405716
36.50698799999999,8.259328341986848,0.09976527499075512
36.511576000000005,8.157722277431136,0.09938556623499026
36.51616799999999,8.045978064523007,0.09907466525719841
36.520764,7.938320328262052,0.09870702662105116
36.525356,7.834382514505833,0.09829847404430522
36.52994,7.724803724635435,0.09792834123837879
36.53452,7.612771000850386,0.09755580631569474
36.53912,7.504213830141783,0.09715695192237382
36.543712,7.394268486128949,0.09677858433899006
36.548292,7.287309956335977,0.09640064765986854
36.55288399999999,7.181539371867574,0.09603534248093779
36.557464,7.079943546943601,0.09568971744351568
36.562052,6.984443535173499,0.09534575064627715
36.566664,6.893607021804411,0.09499665905498166
36.571248,6.80310316076087,0.0947095325625283
36.575844,6.721515600928289,0.09440317704281365
36.580432,6.649865961468463,0.0940657757145466
36.585024,6.582146712124777,0.09376977203151202
36.58961599999999,6.519746026201459,0.09348330381879873
36.594208,6.462297349556074,0.0932263757843595
36.5988,6.415686027731093,0.09293506999467216
36.603384000000005,6.381833114335957,0.0925921871611329
36.60798,6.361760228532456,0.09218542028579711
36.61256399999999,6.343941048663945,0.09183108674936473
36.61716,6.333117116396955,0.0914877840392324
36.621756000000005,6.333130538950367,0.09111757242260485
36.626356,6.346313065524688,0.09072596122109083
36.63094,6.367756828290614,0.09032462134507166
36.635532,6.401592445343946,0.08990675494186062
36.640132,6.444710917750675,0.08946815261875324
36.644728,6.497889495244305,0.08901000506999003
36.649332,6.555198690833738,0.08855064854224039
36.653924,6.61639413509068,0.08810421896443629
36.65851599999999,6.683929761929786,0.08766999440803155
36.663108,6.759438114083577,0.0871972964045869
36.66769599999999,6.838299834599669,0.08672792159792245
36.672284000000005,6.9185938698686185,0.08627818149598034
36.676872,7.006205565432897,0.08578721805902667
36.681468,7.103711039921302,0.08525245483906364
36.686064,7.201338699123853,0.08471474688605847
36.690652,7.2972896741452535,0.08419553018860423
36.69524799999999,7.393362833880801,0.08368706984631127
36.699836000000005,7.487514940006905,0.08320632694678465
36.70442799999999,7.58587570749433,0.08268596029588128
36.70902,7.681660356352957,0.08218558315796075
36.713604,7.776912124906373,0.08168357636263916
36.718216,7.867378210344629,0.08118675182069865
36.722804,7.952936427953584,0.08070240196335121
36.727408,8.029333974923285,0.08023275645869685
36.732,8.100701469349536,0.0797768679861378
36.736588,8.16662821564127,0.07931456714821594
36.741184,8.230589766874935,0.07883577105470956
36.745772,8.291808873317029,0.07833683657520266
36.750376,8.345910547443458,0.07782761807768244
36.754964,8.395348723168873,0.07731042799049044
36.75955999999999,8.439879031064983,0.07679587784233805
36.764152,8.479745840560081,0.07627084405999733
36.768744,8.512006478882931,0.07575587851398682
36.773336,8.53702750017597,0.07523825973662347
36.777928,8.563681064201532,0.07468925303799326
36.782520000000005,8.581462468464759,0.07416255156466668
36.787116,8.588572844070358,0.07366438017503157
36.791696,8.589098667665503,0.07316116183159661
36.796292,8.58177395066011,0.0726728057860489
36.800888,8.563900389711234,0.0722030067663206
36.80548399999999,8.534578550371226,0.07175423198631621
36.810072000000005,8.500881723507124,0.07131075311795138
36.814668,8.459867236347694,0.07088968689148527
36.819256,8.416398815273613,0.07046086298296513
36.82384,8.367000907208432,0.07002941922603886
36.828428,8.314127446066806,0.06959746317141052
36.833028,8.255857378239293,0.06917504865828154
36.83762,8.195788441516484,0.06875268498394572
36.842208,8.135719504793677,0.06832434751884457
36.8468,8.073729514461427,0.06790091725754346
36.851388,8.009041220786234,0.06747885169976425
36.85598399999999,7.942187504073307,0.06707255285878846
36.860572000000005,7.8772548409698215,0.06665084214734579
36.86516,7.804393594000279,0.06627305158974865
36.86976799999999,7.723848132592972,0.06592845372074475
36.87435599999999,7.651519765928641,0.06555458484381503
36.878948,7.584710190664342,0.06515701406626283
36.88353599999999,7.522275602924138,0.06474941073192665
36.888124000000005,7.463194383546233,0.06434054271044355
36.89272,7.417071800577835,0.06388383124119541
36.897312,7.381864615695358,0.06339473762162527
36.90190799999999,7.348211930279885,0.06290920878182298
36.906496,7.320855285997946,0.06240678773195064
36.911092,7.301471367030693,0.06189342814175333
36.91568,7.290060173378125,0.06136914702455393
36.920280000000005,7.281635793945419,0.06086518065770511
36.924864,7.274277175123135,0.060388512672537455
36.92945999999999,7.2700275552348606,0.0599293628252679
36.934056,7.272729041499477,0.05947202767440431
36.938652000000005,7.283525437792925,0.05900525693106507
36.943236,7.300373505791616,0.05854159263237966
36.947832000000005,7.327604091571015,0.058045337068881334
36.952432,7.355367557655625,0.05756694268209409
36.957028,7.393269172092654,0.05706297983245649
36.96162,7.440287315720307,0.05654319301508095
36.966212,7.488204893795607,0.05603016119169389
36.9708,7.541519078556795,0.05551826377299274
36.975392,7.597287197232636,0.05502060264293933
36.97998,7.652810946480185,0.05453708828774133
36.984576,7.70028392714753,0.05410387735965225
36.98916,7.744447680901204,0.05370517648439613
36.993748,7.795029660502559,0.053300129867739125
36.998344,7.847166139570917,0.05290826084476859
37.002928,7.8953383267062485,0.05254016760124174
37.007512000000006,7.940323471642053,0.05219915852422417
37.0121,7.986208051025504,0.05185947538107605
37.016688,8.036179107056132,0.051496695549213795
37.0213,8.07768869891549,0.051153061539291805
37.025888,8.112535695498876,0.05083191516417424
37.03047599999999,8.135856370425614,0.050549516471806395
37.03506,8.154435503685823,0.050281022862885334
37.039648,8.16214338030874,0.05006111273999002
37.04424399999999,8.16858526834157,0.049857560238683936
37.048824,8.17196229888902,0.04967191556018489
37.05342,8.167655114998707,0.04950987239215068
37.05799999999999,8.153620478347039,0.049381488195576737
37.0626,8.128836769772224,0.049292519287851534
37.067184,8.095469412311997,0.04922628171710819
37.071776,8.05850431706118,0.04915967538698781
37.076368,8.019862537629212,0.049087239983827316
37.080964,7.976723585959004,0.049014796776887096
37.08556,7.923324301222233,0.048958774964128954
37.09015599999999,7.863384605923636,0.048913743123875655
37.094744000000006,7.794983446453771,0.04888572613359757
37.09934,7.7213078650121645,0.0488511921041353
37.10392,7.639293004113438,0.04882757191824676
37.108508,7.5485723096151505,0.04883126945908316
