Time,Force,Position
35.183604,0.04766581169804959,0.0
35.188204,0.043252782351236044,0.0
35.192792,0.04255967550915957,0.0
35.197392,0.04084494950528957,0.0
35.201972,0.039907473234921755,0.0
35.206568,0.03807056251690609,0.0
35.211156,0.036233651798890425,0.0
35.215752,0.03508984792295123,0.0
35.220356,0.03615560853337291,0.0
35.224956,0.03341926336770939,0.0
35.229548,0.030805102916191544,0.0
35.234136,0.030414886588603952,0.0
35.23872,0.03834028753298777,0.0
35.243312,0.05830122825408011,0.0
35.2479,0.09365107711418098,0.0
35.252488,0.13989266187505117,0.009928943843457189
35.257072,0.19739253667912768,0.019453611433795842
35.261652,0.2710144279070868,0.028586697670885074
35.266244,0.3616577700065763,0.0372556955567252
35.270832,0.4634752592578465,0.046020521238023755
35.27542,0.5803931457712056,0.05451811151479481
35.280028,0.7120448754042169,0.0628736985494402
35.284616,0.8536889064903496,0.07134101870591839
35.289224,1.0103111501244257,0.07965562902641642
35.293812,1.1810121718587974,0.08787469347460727
35.298404,1.3659141564076103,0.09599766016683531
35.303,1.5639954846090707,0.10407790005519453
35.307596,1.770965311830512,0.11223198691304999
35.312192,1.988005483770592,0.12038006087027144
35.31678,2.2198175406530445,0.12846426868901917
35.321384,2.468973461100836,0.1363207323725377
35.325972,2.723022869740364,0.14414225036720787
35.330572,2.965447434194249,0.15198540009689873
35.33516,3.1945263288327124,0.15980442622854335
35.33976,3.411403357531693,0.16758020691821932
35.344344,3.6167335853105484,0.16537594911012038
35.348944,3.8108055230461977,0.16354666816729485
35.353528,3.99361917073864,0.16205106276645628
35.35812,4.159900106416135,0.16100606219886063
35.362716,4.318764859269307,0.15980822307561438
35.367308,4.462895769002826,0.15884631046385286
35.371908,4.5916377705973375,0.15802324796496567
35.3765,4.714718316814192,0.15695703300654765
35.38108,4.821143966301952,0.15606745480727696
35.385672,4.914634641565357,0.15523581865651748
35.39026,4.99339147370911,0.15448654807637915
35.39484,5.060357135504445,0.15372236383675547
35.399436,5.119129364741956,0.15283738150492857
35.404028,5.165988238916902,0.15193444969782313
35.40862,5.201588823048642,0.15102887993817946
35.413208,5.222133151366921,0.1502794726850258
35.417804,5.237192590102055,0.14953537193715227
35.422384,5.253107321836208,0.1487204192044949
35.426972,5.267756064980278,0.1479506631385898
35.43158,5.283304242571995,0.14716931648243858
35.436168,5.296154116820767,0.14644019185847826
35.440776,5.306427872440742,0.14575143381671943
35.445364,5.314902759165421,0.14510073516130556
35.449952,5.324932145357105,0.14443828499270714
35.454548,5.3322632282058455,0.14382837883658164
35.459136,5.341515364664027,0.1431802341032928
35.46374,5.352932924159942,0.1424718017326138
35.46832,5.3623072453322695,0.14182731480154231
35.472916,5.373724804828185,0.14113020478568644
35.4775,5.382321876267006,0.1404896334321653
35.4821,5.3906745782775385,0.13986752344493658
35.48668,5.396739672536194,0.13931749378247973
35.49128,5.402926951508994,0.1387614469263076
35.495872,5.41054654523465,0.13820559757183254
35.500468,5.4147347273324895,0.13775430346883846
35.50506,5.413159748602007,0.1374228903409204
35.509656,5.413628008195109,0.1370434503748289
35.514252,5.413485344217484,0.13671323065850055
35.518848,5.41808422190639,0.13629083251735458
35.523428,5.422560914881149,0.13588095452186943
35.528012,5.429491541770562,0.13544686389591468
35.532604,5.438221037555269,0.134982863454984
35.537192,5.445029479730535,0.13455639732259198
35.541772,5.449139618562858,0.13417307154877325
35.546368,5.453005387966889,0.13380803811933079
35.55096,5.452784680723745,0.13354047960949933
35.555548,5.449132561852785,0.13337440480223128
35.56014,5.440494531887002,0.1333190945894325
35.564728,5.431612132492928,0.1332826206837362
35.569308,5.423873536974796,0.13321215258005714
35.573916,5.416912191190164,0.1331369552954273
35.578504,5.410317399547969,0.1330321981146128
35.583112,5.401557184868043,0.13298503451804708
35.587704,5.389199232397527,0.13299571001338628
35.592292,5.381049941288329,0.13289921129451132
35.596888,5.379441060740957,0.13268219001768455
35.601484,5.37464513799406,0.1325471250081148
35.606076,5.370215769389597,0.1323827291671106
35.610668,5.362066478280401,0.1322838727007763
35.615264,5.35367281774291,0.13220364796486783
35.619856,5.344624092186065,0.13211733870530543
35.624456,5.334553747467425,0.1320539132985192
35.629044,5.327303890805875,0.13193966903030332
35.633644,5.323896141363207,0.13175167694681464
35.638232,5.324697053281859,0.13146304535341644
35.642832,5.328318453257602,0.13112426607508484
35.64742,5.336148514594662,0.13068493205372875
35.652012,5.344100760645869,0.13023064134078322
35.656604,5.348455268906486,0.12982800116377166
35.661196,5.355508080510044,0.129386390097522
35.665796,5.3630496309701865,0.12890719010721163
35.670396,5.372390050325625,0.12840262481840772
35.674988,5.3846731424522964,0.12784120773453403
35.679584,5.4039853839973775,0.1271346518758283
35.684172,5.419333333609432,0.1265113283888367
35.688756,5.430961360716748,0.1259536772123239
35.693344,5.444632626147651,0.1253529440674979
35.69794,5.460347129902142,0.12471394155241096
35.702532,5.479004306427866,0.1240228925240128
35.707124,5.494063745163,0.1233795517342212
35.71172,5.510022618345784,0.1227276802782636
35.716308,5.528146914566298,0.12202558232407416
35.7209,5.543572907443868,0.12136038458349623
35.725488,5.556300596978495,0.12073516000376647
35.73008,5.568783917084832,0.12013855464586683
35.734684,5.579957107152454,0.11953078512018205
35.739272,5.585367136391753,0.1190185314900832
35.743884,5.5955187072975825,0.11843054480592353
35.748468,5.612210688765238,0.117744003590258
35.753056,5.624038943852218,0.11714193397460468
35.757648,5.635622829510908,0.11655994267608868
35.762232,5.646062911293657,0.11600969269586127
35.766828,5.654581939466963,0.11549420374143948
35.771416,5.659547371298307,0.11507972776030431
35.776016,5.668599279776825,0.11458816702486148
35.780596,5.677651188255344,0.11409569156293296
35.785196,5.684659858410275,0.11364313859870728
35.78978,5.687459867203887,0.11327784543369575
35.794372,5.687317203226263,0.11296264492409203
35.798956,5.691916080915171,0.11257784386133142
35.803548,5.695493339442284,0.11221350067393514
35.808156,5.698826228541108,0.11186861127011834
35.812748,5.703957986535227,0.1115028305847493
35.817348,5.711665863158143,0.11111721132796308
35.821948,5.712833329219233,0.11081865328406558
35.82654,5.717354163642622,0.11049991423744886
35.831132,5.728537593341985,0.11008736265625492
35.83572,5.737022719698402,0.10970599294767014
35.840308,5.746773834644904,0.10929695357154154
35.844896,5.762410295133877,0.10879979999830311
35.849492,5.776125702013409,0.10832853363188638
35.854084,5.791107097483025,0.10782530637476725
35.858676,5.805311243219139,0.10732335088593507
35.863268,5.8182052589165405,0.10680708576668188
35.86786,5.827012797966766,0.1063617955451784
35.872452,5.8406840633976715,0.10585181745796954
35.87704,5.853700263809219,0.1053321739804277
35.881628,5.871824560029734,0.10472998393472815
35.886236,5.890970475412041,0.10411154195972903
35.890828,5.907662456879697,0.10350650517114306
35.895436,5.927297111118587,0.10286560654858495
35.900024,5.947420504214061,0.10219778369316969
35.904612,5.969831505061412,0.10148728861492942
35.909208,5.988889137546465,0.10079517603396167
35.913796,6.0117888772504005,0.1000511798710466
35.918388,6.03006926000195,0.09935858898828535
35.922968,6.0446297202487616,0.09871029018857688
35.927568,6.061111234105016,0.09804096653704404
35.93216,6.069009099075856,0.09747319816048337
35.936752,6.072654161236748,0.0969295129436148
35.94134,6.082428938368401,0.09629809465178611
35.94594,6.092325900214201,0.09566320972762936
35.950524,6.104143915669441,0.09500831252544065
35.955116,6.119804038343565,0.09431556552309474
35.959708,6.139795007093153,0.09355203173381864
35.9643,6.1541449997285635,0.09284940257577746
35.9689,6.172337099582856,0.09210797053048825
35.9735,6.1839887888753236,0.0914284625177606
35.978092,6.196784282043731,0.09073076242639677
35.982684,6.209579775212137,0.09003372881589522
35.987272,6.217100846408802,0.0893682404476956
35.991864,6.220657625672437,0.08874937025413793
35.996444,6.219350678555399,0.08818315053059543
36.00104,6.219065350600153,0.08760196983563584
36.005632,6.2182471423396946,0.08700400975384064
36.01022,6.2177954882216735,0.0863805944643176
36.014812,6.217588203531945,0.08574114264869262
36.019392,6.21390536576577,0.08511560940851277
36.023988,6.216230058256212,0.08441610687479538
36.02858,6.21998706549951,0.08372791654294066
36.033172,6.216304227733335,0.08309944127871399
36.03778,6.207879848300631,0.08251021471351495
36.042368,6.197001534953272,0.08192055499244737
36.046956,6.177539572720502,0.08140414403893723
36.051552,6.153091699392909,0.08094063897197432
36.056148,6.130031999369547,0.08043845491790225
36.060744,6.103374561555594,0.07995333744662073
36.065336,6.078515992636935,0.07945424670546548
36.069928,6.050836935661187,0.07897420801606296
36.07452,6.021114640361854,0.07851453135145516
36.079116,5.992047410081876,0.07806096453322033
36.0837,5.9687433406302235,0.07755532242021469
36.0883,5.951202432006893,0.07699910380164537
36.092888,5.934316588402921,0.07645215935247734
36.097472,5.920784113161248,0.07590408267794085
36.102068,5.909050506814871,0.07534589282470384
36.106664,5.898993584649643,0.0747869999243844
36.111272,5.890368977237275,0.07423961761747418
36.115864,5.881377815682469,0.07371611904756456
36.12046,5.873530458003603,0.0731748467813281
36.125052,5.871856956744125,0.07261536722507121
36.129644,5.874802812437034,0.07202901399338235
36.134236,5.880080417330447,0.07145500113198268
36.138824,5.888833575300309,0.07086785609991243
36.14342,5.900407221327259,0.07026163807296552
36.147996,5.914068247126423,0.06968605916816668
36.152592,5.932104260449681,0.06910521080768263
36.157188,5.956925053763056,0.06847935299277949
36.16178,5.982767466238225,0.06784375202314853
36.166372,6.016949158170517,0.06717363141757111
36.17096,6.055628022341047,0.06649340950312545
36.175548,6.090098225150258,0.06586730217133409
36.180132,6.121381385759943,0.06528547443331031
36.18472,6.154585599979068,0.06469665782868644
36.189332,6.181249403636369,0.0641417096916368
36.19392,6.209467706760673,0.06360131926990571
36.198508,6.239607063494418,0.06305670933416828
36.2031,6.276531200218281,0.06247695292172406
36.207692,6.312433717780351,0.06191083223382909
36.212296,6.344249758695247,0.06138184243655292
36.216888,6.37132425794361,0.060880043085383286
36.221484,6.3973771380301825,0.0603905281255763
36.226072,6.421631149221459,0.05990689426134721
36.230672,6.452014875383495,0.05937629905986419
36.235252,6.484075285726683,0.058853791063437695
36.239852,6.51049471995569,0.05835399213003878
36.24444,6.534215850841754,0.057864103548224737
36.24904,6.550785647595264,0.05743575683919952
36.253624,6.566988890206338,0.05702797667051082
36.25822,6.572931799750847,0.05665671322348775
36.262812,6.5736002873236155,0.05628701626323784
36.267408,6.573735894591173,0.05589737436220888
36.271996,6.573216436839374,0.055495468176784
36.276592,6.569099241296985,0.05509827920211674
36.28118,6.570745206582918,0.05467447290753596
36.285764,6.567649630202322,0.05426843771415264
36.290352,6.556869839383959,0.05389512759619091
36.294952,6.537628584394329,0.053549742258029887
36.29954,6.51724352552876,0.05321727714559466
36.304132,6.499923324148572,0.052860874858628434
36.308728,6.485545795539618,0.05248821077244911
36.313304,6.47129045164481,0.052108444430233346
36.3179,6.45319300053112,0.051740712217248755
36.322488,6.426023161675432,0.05142913624310054
36.32708,6.393212346705566,0.051131809106465385
36.331676,6.36461019309702,0.05079655975131809
36.336264,6.328079455622416,0.050500671321423954
36.34086,6.291138022556749,0.05017469317308036
36.345448,6.254973839224583,0.04985369999711462
36.35004,6.221141405092924,0.049548766725692264
36.354636,6.186820232104683,0.04926752934049501
36.359224,6.150866516383919,0.049025522616322356
36.363816,6.110826324015982,0.04880895101298701
36.368396,6.070419577505609,0.04861009559606272
36.372996,6.022983681576825,0.048452092765015366
36.377576,5.977468839257483,0.0482842318249394
36.382176,5.932609061957497,0.048128383271165996
36.386768,5.885339492191488,0.04800681310605229
36.391364,5.833328380758947,0.04789944753979717
36.395956,5.777108607965086,0.047827033809027183
36.400552,5.718601227419348,0.04778155959368675
36.40516,5.65588518551229,0.04777106145127632
36.409752,5.597788500557616,0.0477503899802834
36.414356,5.544555541983619,0.047706093075085006
36.418952,5.494143071466712,0.047651794561743455
36.423556,5.438255950998399,0.04765663917823237
36.428156,5.390952479415501,0.047630986035755656
36.432748,5.34279371483358,0.04765902013284492
36.43734,5.290015593299277,0.04769410732319108
36.441928,5.2355607875838235,0.04772223865506008
36.446516,5.182904850763665,0.04775064762573758
36.451096,5.131637087247738,0.04774695948049979
36.455688,5.081024388751167,0.047761285469489934
36.460284,5.027346832769215,0.04780158387857859
36.464876,4.976489764844354,0.04783483148694108
36.469468,4.926409946652993,0.04787402721987614
36.47406,4.879272801232868,0.04789664953397973
36.478652,4.835200513298123,0.04789460197501154
36.48324,4.795092517296407,0.04786573079313044
36.487828,4.7558839557423385,0.047837951437397275
36.492436,4.713077656397679,0.047809684819227996
36.497024,4.6721924106624595,0.04777286382828069
36.501616,4.627220688280068,0.047772296463823624
36.506204,4.577385239517,0.04779846969999668
36.510792,4.524484933268549,0.047851873523729854
36.5154,4.4757932883814195,0.04785966562526886
36.519992,4.419417429056525,0.047905854147366804
36.524584,4.364674112464151,0.047894127224786094
36.529176,4.312506914500576,0.04789336829453242
36.533772,4.262260770146441,0.04788145648996257
36.538352,4.206618019106421,0.04786904430964181
36.542956,4.149953648904606,0.04786250469689699
36.547544,4.091612594521641,0.04784944630339607
36.552144,4.031594855957527,0.04782992662941745
36.556728,3.967857194888675,0.04782313305053976
36.56132,3.8947586352009083,0.047853741445089276
36.565908,3.821904444941432,0.047852316154202434
36.570504,3.748150820234308,0.04784617656849573
36.575092,3.6732533916512446,0.04785872170748126
36.579688,3.5959020291535295,0.047846513423466186
36.584276,3.512665321113344,0.04789620528690061
36.588868,3.4255865058542763,0.04798084654910985
36.593456,3.333888333642824,0.048104245109040135
36.598044,3.2423123461455168,0.04822226090073643
36.602628,3.148937489752914,0.048355837514981154
36.60722,3.0487778533701935,0.04856408514176502
36.611812,2.9509058247393516,0.04871568356785284
36.6164,2.849069504175481,0.048910276590131474
36.620992,2.744779249696958,0.049078579387501195
36.62558,2.6377906918754928,0.04924103316849578
36.630168,2.5336226221111158,0.049383491905730464
36.63478,2.4266340642896496,0.049547474669061044
36.639368,2.3256530367247996,0.04958321557291652
36.643964,2.2276146819311835,0.04957752442998258
36.648544,2.132641184622948,0.049495379514913194
36.653128,2.0422870442670975,0.049413639104845204
36.657736,1.9440043200451902,0.049484343170289595
36.662328,1.8436783574996964,0.0496186722927418
36.666924,1.7425751452207001,0.049715785829461484
36.671508,1.6451918554464409,0.04973493937871224
36.676108,1.559579256757121,0.049506445044499046
36.680688,1.476132081105534,0.049175671577414974
36.685288,1.402534542929445,0.048599375567653424
36.68988,1.3306136889345064,0.046075286276654
36.69448,1.2635565613202437,0.04352502557496811
36.699064,1.2013631600866572,0.040921064335644755
36.703656,1.143422561663019,0.03835212273415678
36.708252,1.0898569507634746,0.03577290824962147
36.712848,1.0333486670926948,0.033209066341952885
36.717436,0.9791721326224218,0.030662267971798326
36.722032,0.9266722823332988,0.028135975630565413
36.726612,0.8786696042824151,0.025600096344157847
36.731204,0.8274798840320051,0.02318123343766723
36.735796,0.7798879015721866,0.020791859110979242
36.740392,0.7328287994175788,0.01846608820119944
36.74498,0.6906334236436474,0.016111820493238345
36.749576,0.6540790239838944,0.013646453402540434
36.754168,0.6202229276670849,0.011131601590605108
36.758748,0.5877991461031339,0.008654307512684449
36.763348,0.553865006520807,0.006270540648064333
36.767928,0.5156000208630146,0.00407298931702596
36.77252,0.47991115383402005,0.0019429603990121019
36.777116,0.441934679053147,0.0
36.781704,0.4079224962053025,0.0
36.7863,0.37060108644378603,0.0
36.790888,0.3396979025299503,0.0
36.795476,0.3087947186161144,0.0
36.800072,0.27327217774989365,0.0
36.804664,0.24968665413138633,0.0
36.809256,0.23030979187419875,0.0
36.813836,0.2127317985123069,0.0
36.818436,0.1969526740457107,0.0
36.823016,0.18285023376026463,0.0
36.827616,0.1713239121036164,0.0
36.832212,0.16261807850405735,0.0
36.836804,0.15174682186676566,0.0
36.841396,0.14676091077194373,0.0
36.845992,0.14099774994361955,0.0
