Time,Force,Position
35.776504,0.0005457510552233028,0.0
35.781088,0.00165696867340997,0.0
35.785675999999995,0.0017465671298031143,0.0
35.790271999999995,0.0024912306055527673,0.0
35.79486,0.005156947690743795,0.0
35.799443999999994,0.00847772979529133,0.0
35.80404,0.012820131061632389,0.0
35.808628,0.02112682426100187,0.0
35.813236,0.02841189829857782,0.0
35.817823999999995,0.036596406783801626,0.0
35.822412,0.043637111393086236,0.0
35.827008,0.04953401212643166,0.0
35.831596,0.05701799858453396,0.0
35.836188,0.06372473530913408,0.0
35.840768,0.07142050493777521,0.0
35.845364,0.08001570901406417,0.0
35.849944,0.09437407391867729,0.0
35.854547999999994,0.11053130771858609,0.0
35.85914,0.1265663568043492,0.0
35.863736,0.1437452097660515,0.0
35.86832,0.160024628280106,0.0
35.872912,0.1744155794424716,0.0
35.877503999999995,0.18790709615718937,0.0
35.882096,0.1871624326814397,0.0
35.886696,0.18837085726948466,0.0
35.891292,0.2008375719007359,0.0
35.89588,0.22239715353746073,0.0
35.900464,0.24871875610419372,0.0
35.905052,0.2878090067325092,0.010891342539581328
35.909648,0.3357036134893788,0.02147015722863895
35.914235999999995,0.3993095410790659,0.031191796759538502
35.918836,0.4735186936926028,0.040910934168613154
35.923427999999994,0.5550218444163175,0.050694982544499265
35.928016,0.6485605349167409,0.060368733645877165
35.932607999999995,0.753479700174516,0.06987042241287876
35.937188,0.8708009593514369,0.07913707592473038
35.941779999999994,0.9905524902578594,0.08854597544404844
35.946364,1.12066287675984,0.09784441445280921
35.950951999999994,1.262930987752675,0.10706782079900945
35.95556,1.4176453341132849,0.11619001646801339
35.960148,1.586071904431753,0.1252424290886624
35.964735999999995,1.7671890795462861,0.13426427010945047
35.969339999999995,1.9643060863705564,0.14316144593687238
35.973928,2.20236403556955,0.1514788396632149
35.978524,2.4415337541901287,0.1596403763521257
35.983107999999994,2.669401041318872,0.1677445156889243
35.987708,2.8891970806039375,0.17578417450112208
35.992296,3.1016549803301947,0.18375826144709873
35.996891999999995,3.3028987314618754,0.1808543650540622
36.001476,3.5011012872933263,0.17809187901861348
36.006076,3.684491956739609,0.1762082566785707
36.010667999999995,3.8612436930950684,0.1742592643427865
36.01526,4.03016855103514,0.17218407151994358
36.019852,4.189223292236235,0.17016907818823834
36.024443999999995,4.333666375031825,0.16836007375411946
36.02904,4.464030679727119,0.16679399254815325
36.03364,4.5883669749023195,0.16501695138402991
36.038228,4.697969426957869,0.163394875329552
36.042824,4.796147262807437,0.16179446059406435
36.047412,4.879791483517016,0.16025721359363948
36.052,4.95045658855361,0.15874395318993675
36.056588,5.008919827650724,0.1572260533380665
36.06118,5.053015777770621,0.15579752789050802
36.065772,5.0675423362005425,0.15495998811547013
36.070376,5.078471156839877,0.15421757129915997
36.074968,5.091198846374505,0.1534445503942324
36.079548,5.100573167546832,0.15272852151337873
36.084144,5.106349750928571,0.15208798852376276
36.088724,5.113225996737618,0.15135309905230343
36.0933,5.108043040584806,0.1508944760167647
36.097896,5.100772704659779,0.15043557541756672
36.102484,5.090271185086596,0.15001886677367457
36.10708,5.079769665513415,0.1496018950793563
36.111676,5.068368711492585,0.14920248609787368
36.116264,5.0618314838524325,0.14868062691457304
36.12086,5.054517006478775,0.1481638607997096
36.125436,5.043604791314526,0.14771812935370057
36.130036,5.033836380026216,0.1472302410399846
36.134628,5.024723033757261,0.14674583000627617
36.139228,5.015776013651082,0.14630591333690832
36.143816,5.007239689135968,0.14589013631161135
36.148416,4.997193006602476,0.14554425276913147
36.153,4.989478073269493,0.14517736361195147
36.157596,4.986138127460602,0.14473322258366583
36.162176,4.981654377775771,0.14432849629605712
36.166768,4.972839782015477,0.14405603915730356
36.171356,4.9692996082269225,0.14369267006481332
36.175952,4.966170130029433,0.14335223207828288
36.18054,4.959487055489982,0.1431368504832548
36.185128,4.961143260407651,0.14274519725466522
36.189712,4.965131214525828,0.14233213305248696
36.194304,4.969529864235069,0.14194474901256923
36.198896,4.970497102316493,0.14167326703915634
36.203472,4.971219970969626,0.1414236399234312
36.208056,4.969533047156735,0.14126253644631404
36.212644,4.973242730029732,0.14100177738245118
36.217224,4.978384727655588,0.1407386976004247
36.22182,4.985980659196098,0.1404468025822222
36.226408,4.990145179108789,0.14026848284407187
36.230996,4.999706305707368,0.1399932855152281
36.235588,5.010044682039448,0.1397138465691104
36.240168,5.02512460003806,0.13933334811809753
36.24476,5.033419738046554,0.13910683313704517
36.24934,5.0431471908079075,0.13888418143384074
36.253936,5.051853024407466,0.13868803061813922
36.258524,5.06374590020655,0.13840184999829802
36.263124,5.071796668786754,0.13820394857247445
36.267716,5.088553270966514,0.1378208338056506
36.272316,5.108374730631656,0.13736002297528413
36.276912,5.127418940563297,0.13691353527200956
36.281504,5.14862857353267,0.1364111524987367
36.28608,5.171226379806273,0.13585750205740127
36.290676,5.197255597707693,0.13519875252871832
36.295272,5.224306434770908,0.13451908189529616
36.299864,5.250702206814765,0.1338335586257626
36.304452,5.27157918745859,0.13325111730665667
36.30904,5.293844341406645,0.13261832585236283
36.313628,5.317375483944786,0.13194969482407035
36.31822,5.346747830576767,0.1311076737212722
36.322808,5.371212309379444,0.13032261072523713
36.327392,5.397842211219855,0.12949255787052433
36.331988,5.422795428879116,0.1286908030357935
36.336576,5.4566988495662265,0.12770314815302586
36.34116,5.4837733488145926,0.12679513453525848
36.345744,5.512113836653042,0.12584674203174373
36.350332,5.539554890043845,0.12491779231804603
36.354928,5.5635203903582005,0.12402493732197827
36.359516,5.58094548011073,0.12325784479450932
36.364104,5.597715504843903,0.12248903487432557
36.368692,5.609866172624693,0.12179184405010057
36.373284,5.621239590671978,0.12110422931102145
36.37788,5.632368639290972,0.12043959040490661
36.382464,5.644397122357615,0.11976979448633851
36.387056,5.656792159566695,0.11907804767576027
36.391644,5.6721298695470095,0.11833783940316285
36.396248,5.6923313059080005,0.11751817003302717
36.400836,5.712410557554845,0.11671417152293727
36.405436,5.7295471364304555,0.11596513018093893
36.41002,5.740187446192867,0.11536277191063761
36.414616,5.752382255422283,0.11475896259097504
36.419208,5.7589360885375225,0.11423767182530559
36.4238,5.766633725528699,0.1136932526779167
36.4284,5.772410308910435,0.11318516265616392
36.433,5.782806249244556,0.11261741884769666
36.437592,5.7947566890456805,0.1120507352855045
36.442184,5.8077287480086,0.11146900971370824
36.446764,5.825564533352196,0.1108122421372542
36.451348,5.842500884248143,0.11016618384504864
36.455936,5.8553507584969156,0.10958934240542048
36.460532,5.873186543840512,0.1089318765797178
36.465124,5.8900007100223135,0.1082964332035172
36.469704,5.906281995898903,0.10764891904276323
36.474288,5.918843359270756,0.1070492606816
36.478868,5.9285842345855215,0.10648690268055722
36.483456,5.93677061043328,0.10593025655378786
36.488052,5.9377615106998585,0.10544400463039674
36.49264,5.939896214842374,0.10493584189290853
36.497228,5.943296907574975,0.10439459362609466
36.501812,5.952050065544835,0.10375314947375901
36.506404,5.959126539333545,0.1031220981187452
36.511008,5.966325197836402,0.10247752095767358
36.515596,5.967638510796788,0.1019159771590127
36.520204,5.966253520414231,0.10138126516824049
36.524792,5.963969095584025,0.10085622708648696
36.529392,5.958209117677375,0.10035568452352184
36.53398,5.948607032551841,0.09990240234069164
36.538584,5.937738958836222,0.0994817535369712
36.543172,5.9259714506729555,0.09906712818096564
36.547772,5.918534788585153,0.09856928238318428
36.552364,5.908033269011972,0.09811983579603363
36.556956,5.894711261381701,0.09769990988308791
36.561536,5.88024544987549,0.09730273668811805
36.566132,5.869499560874017,0.09686634062020177
36.57072,5.858509302444252,0.09644383511704353
36.575316,5.8488291740532015,0.09603951696123263
36.579904,5.847366140405128,0.09556026245045639
36.584488,5.84398205314761,0.09510551294492098
36.589076,5.842274650071245,0.09464650734285754
36.593672,5.837624574223644,0.09422529561072293
36.598264,5.832730128947752,0.09381898195325508
36.602848,5.833354475071891,0.09336463484628882
36.60744,5.838065297843205,0.09284936000407389
36.61202,5.839833447843285,0.09236716492372563
36.616612,5.839558359519777,0.09191363632417787
36.6212,5.842103759253359,0.09143218332619396
36.62578,5.850290135101119,0.09089625614116308
36.630376,5.86064193398661,0.09032697631002971
36.634964,5.876634708986281,0.08970809809224739
36.639552,5.895858667634107,0.08909562877673632
36.644148,5.915737691301289,0.08849311511233413
36.64874,5.940602626063294,0.08783116666349018
36.653332,5.968288048882387,0.08714807287714273
36.657912,5.995074037253833,0.08647857211901917
36.662512,6.0301993050824,0.08575201753871742
36.6671,6.062748454282169,0.08503888691440381
36.671692,6.090556061815408,0.08437630481735466
36.676284,6.118363669348648,0.08371750418781271
36.680876,6.145149657720092,0.08307819994044573
36.685464,6.1715690919491015,0.08246130093464886
36.690056,6.201830633396991,0.08181420773326842
36.694656,6.230293305949586,0.08118547485370106
36.69924,6.259166674093248,0.08058519765050037
36.703832,6.2938032030652336,0.07993529434270143
36.708424,6.332404023970245,0.07924825279538152
36.713016,6.373947517646493,0.07854512968521575
36.7176,6.413037077408088,0.07785073163365926
36.72218,6.450205583560242,0.07717965071346768
36.726764,6.483409797779368,0.0765548245310232
36.731356,6.5131384589220485,0.07594659122408041
36.735944,6.5423342397595174,0.07532241674083151
36.740544,6.568342978397462,0.0747421715840162
36.745124,6.591531228978315,0.07418376559641741
36.749716,6.612798425949729,0.07364207063345993
36.754312,6.625071278444663,0.07314166571704937
36.7589,6.638365750101391,0.072631755902171
36.763512,6.650638602596325,0.07213100431956726
36.768092,6.659968782320024,0.071653270878342
36.77268,6.6646796050913375,0.0711980657016473
36.777268,6.67167803561453,0.07070956042269763
36.78186,6.672258240290041,0.07025101623744423
36.786464,6.670917391356113,0.0698062772254207
36.79104,6.667366977935822,0.0693432734163044
36.79564,6.662550575925446,0.06890586092204404
36.800232,6.654791501143838,0.06849154590433046
36.804828,6.63742715831502,0.06813849856429723
36.809412,6.616753588572531,0.06782573632422075
36.814012,6.592115726897014,0.06754237467645438
36.818596,6.562081258535611,0.0672731703559552
36.823192,6.530125736564765,0.06701392031966684
36.827784,6.498947464327421,0.06675660238828712
36.83238,6.469035180680163,0.06647391425268569
36.836968,6.438101277871111,0.06619851785500341
36.84156,6.404224702290824,0.06594221410726919
36.846148,6.371003191729894,0.06569421165130875
36.85074,6.338681115616611,0.06544146279880729
36.85532,6.310201146722211,0.06516353025834193
36.859916,6.2835200467231065,0.06487866394282708
36.864504,6.264400976447622,0.0645529451791191
36.869096,6.242217048686756,0.06425324908192659
36.87368,6.22260923955469,0.06395113357831571
36.878268,6.204678114603774,0.06365079354112539
36.88286,6.190999792462804,0.06335300950195859
36.887444,6.176544220588333,0.06305032945906949
36.892028,6.162865898447364,0.06275163931664017
36.89664,6.1557279868682215,0.06242295617513146
36.901228,6.155008301136759,0.062074068801056155
36.905816,6.16287226429071,0.061681449589729924
36.910408,6.180752191082933,0.06126151770888752
36.914996,6.203129290113395,0.06083472148849938
36.919604,6.227183073325008,0.060414112721129794
36.924196,6.250625932965892,0.06002915547713555
36.9288,6.280609203168602,0.0596228162816651
36.933388,6.320075556704373,0.05917709142718508
36.93798,6.3630174633165915,0.058733191258888526
36.94256,6.4018728932816344,0.058323184811289966
36.94716,6.441383388266034,0.05793120718943671
36.951744,6.4846138057551705,0.0575305277727116
36.956344,6.522858312149485,0.057168008172522176
36.96094,6.563678937172597,0.056808897005465264
36.965532,6.60924110386224,0.056434900605417726
36.970112,6.654148205532527,0.0560527629686016
36.974708,6.697134253593372,0.05568436396216178
36.979304,6.738976497778279,0.05533143127914839
36.983896,6.781718176410833,0.05497986175278244
36.988484,6.8222944320056556,0.054651195406620376
36.99308,6.858495700076383,0.05432479418299817
36.997668,6.8880343728711395,0.054028109350800775
37.002252,6.910011015942277,0.05375918187056151
37.006836,6.925447248451586,0.05350927703239607
37.011424,6.938307362332097,0.05325667079546956
37.016016,6.952677834230985,0.052973089487149155
37.020604,6.957687407510957,0.05271602482076753
37.025196,6.953213897457868,0.05249129931255022
37.029784,6.943465965433039,0.05226324668438635
37.034376,6.9337180334082085,0.05203341683648234
37.03898,6.914731387478608,0.051820727320838894
37.043568,6.888304896539534,0.051623944585751834
37.048164,6.859302286971662,0.05142045782459648
37.052744,6.828867362650931,0.05119759642196563
37.057332,6.790870408606581,0.05099597439424304
37.06194,6.749808597076849,0.05081226297431551
37.066532,6.699508071642348,0.050642635499731976
37.071128,6.645731993131401,0.0504652419175537
37.075708,6.584516069610979,0.05030132331936581
37.080304,6.519824593014114,0.05013028246799873
37.084896,6.446427282817688,0.04999299502851087
37.089496,6.371886168745323,0.049867318698483445
37.094084,6.298733227977191,0.04971005762061833
37.098684,6.2264797216567045,0.049549584414796746
37.10328,6.149362488955542,0.049407421588573
37.107876,6.065993356569472,0.04931250399330588
37.112456,5.9825020394692565,0.04922265703726424
37.117048,5.8960680495978055,0.0491469265307932
37.121636,5.80951187501221,0.04907468166484656
37.126232,5.721156831531319,0.049002213600105204
37.13082,5.635744460821662,0.04891070893405772
37.135412,5.551109339845507,0.048824506812055565
37.14,5.465208230279269,0.04875978146797007
37.144588,5.3706012871134705,0.048731894783789684
37.149176,5.273051671176439,0.04872077733883506
37.153768,5.169861079125227,0.04872791687257599
37.158364,5.073210897635842,0.04871378280512573
37.162952,4.9755390969846625,0.04870355779662406
37.167544,4.880687784390573,0.04868239735984941
37.172132,4.787513155977634,0.04866814696178171
37.176724,4.7019005572883135,0.04862702451555861
37.18132,4.610769167198961,0.04859724495369252
37.185908,4.51452968130064,0.04861024802792379
37.1905,4.415347522631086,0.048643975088227306
37.195088,4.3171869831233245,0.04866627366479401
37.199676,4.216328140272619,0.04870005364401978
37.204268,4.113426059098327,0.04876312023947762
37.20886,4.010523977924034,0.04883528781767498
37.213452,3.9076218967497436,0.048903619480482184
37.21804,3.805086369717888,0.0489297479218471
37.22264,3.700507604362446,0.04897528784046622
37.227228,3.595029404559356,0.04902275449628145
37.231832,3.491472258365708,0.049062211513474535
37.236416,3.3922900996961527,0.049127610801481154
37.241016,3.295928429083687,0.0491853070617015
37.2456,3.2050855498712547,0.04923344621514695
37.250192,3.1101561940116476,0.04934449386467637
37.254792,3.017436402638401,0.049527049503447516
37.259384,2.9247166112651546,0.049706812713293025
37.263988,2.830442320424904,0.04985326861157417
37.268584,2.7335919109558553,0.04997445018153669
37.273172,2.6412386737250464,0.05011169008562947
37.277768,2.550562120675387,0.05029259960105412
37.282356,2.4619288059493147,0.05044445213795128
37.286944,2.3711300681855096,0.05067800524641694
37.291528,2.2851950568023813,0.05086538239582432
37.296124,2.2014254684569856,0.05100910627696381
37.300716,2.1213758026163267,0.05114403469445741
37.305304,2.03736184484264,0.05138988815443072
37.3099,1.955801820983605,0.05165185868698199
37.314484,1.8750190468580719,0.051977060835849256
37.31908,1.7930924688566003,0.052430357329916605
37.323668,1.7074459683503909,0.0530098032203246
37.328256,1.6269075636531496,0.05340098368239551
37.332852,1.5435486708988186,0.05089417884295657
37.337436,1.4576136595156899,0.04838489278418354
37.34204,1.374743505617942,0.045832504182181974
37.346636,1.2923620905767763,0.04321790139606231
37.351224,1.2096141213931741,0.04061609634272951
37.355828,1.1263774133529891,0.038047280489118485
37.360428,1.0464940736751043,0.03551436167427614
37.365032,0.9658334842637173,0.03295351606790384
37.369624,0.8883599370518565,0.030336407610594314
37.37422,0.8153835620782348,0.02773508784441332
37.3788,0.7490697823805853,0.02506315861980392
37.3834,0.681734383521142,0.022409653792031022
37.38798,0.6187739721857923,0.019769934618649416
37.39258,0.5569573647263818,0.017120716951960598
37.397176,0.4989828644858542,0.014372250719996437
37.401776,0.44064181010288955,0.01164921955026389
37.406368,0.3860091230337864,0.008860485502689844
37.410964,0.3370174120788616,0.005941442093151854
37.415552,0.295354916610141,0.0028948456955545285
37.420148,0.2524148773604598,0.0
37.424736,0.21680405359698282,0.0
37.429328,0.1901875743099843,0.0
37.433916,0.1633267255946944,0.0
37.4385,0.13928636493649377,0.0
37.443092,0.12293021871605855,0.0
37.447684,0.11041617971450618,0.0
37.452276,0.09393784877992535,0.0
37.456864,0.08387774369302517,0.0
37.46146,0.07331734455866667,0.0
37.466048,0.061735326262514656,0.0
37.470632,0.05003112325221695,0.0
37.47522,0.041924658032510664,0.0
37.479808,0.03381819281280438,0.0
37.484412,0.027266227060102455,0.0
37.488992,0.02469010843130457,0.0
37.493596,0.023779118792781096,0.0
37.498184,0.023779118792781096,0.0
37.502776,0.023779118792781096,0.0
37.50738,0.022868129154257625,0.0
37.511972,0.022868129154257625,0.0
37.516564,0.021957139515734147,0.0
37.521156,0.017326227372473593,0.0
37.525752,0.015515803286302265,0.0
37.530344,0.013461009771839595,0.0
37.53494,0.007564109038494174,0.0
37.539532,0.002566642752796607,0.0
37.544124,0.0024329028477753107,0.0
37.548708,0.00037810933331263943,0.0
37.553304,0.00037810933331263943,0.0
37.557896,0.0003781093333126395,0.0
37.562492,0.0003781093333126395,0.0
37.567092,0.0003781093333126395,0.0
37.571688,0.0003781093333126395,0.0
37.57628,0.0003781093333126395,0.0
37.580872,0.0,0.0
37.585464,0.0,0.0
37.590056,0.0,0.0
37.594644,0.002098934963090822,0.0
37.599232,0.0025211857450316137,0.0
37.603824,0.0025211857450316137,0.0
37.608416,0.007152097888292168,0.0
37.613008,0.009861956422111347,0.0
37.6176,0.011550195794137002,0.0
37.622184,0.011550195794137004,0.0
37.626768,0.011550195794137004,0.0
37.631356,0.013116250452016988,0.0
37.635948,0.01852441232877972,0.0
37.64054,0.023932574205542453,0.0
37.645144,0.02766405190115516,0.0
37.649736,0.03139552959676786,0.0
37.654336,0.034105388130587035,0.0
37.65894,0.03861411555970192,0.0
37.663536,0.042223408541168954,0.0
37.66814,0.046732135970283833,0.0
37.672728,0.05021924423760519,0.0
37.677324,0.05448360223842873,0.0
37.681912,0.056949091343956586,0.0
37.686504,0.0573156454863936,0.0
37.691092,0.05768219962883061,0.0
37.695692,0.06231311177209116,0.0
37.70028,0.05768219962883061,0.0
37.704876,0.05792656905712195,0.0
37.709464,0.05919255764720681,0.0
37.714056,0.06574452339990874,0.0
37.718644,0.07487260778140856,0.0
37.723244,0.08141301834323486,0.0
37.727832,0.08296751781023923,0.0
37.732424,0.08542145172489142,0.0
37.737012,0.09032931955419583,0.0
37.7416,0.09523718738350027,0.0
37.746188,0.09912343605101118,0.0
37.75078,0.09941194692793068,0.0
37.755376,0.10252094586193938,0.0
37.759964,0.10383107590065241,0.0
37.764556,0.10526339065351109,0.0
37.769132,0.10309796761577837,0.0
37.773728,0.10063247851025053,0.0
37.77832,0.0981669894047227,0.0
37.782908,0.09737818448034488,0.0
37.787508,0.09274727233708432,0.0
37.792096,0.09274727233708432,0.0
37.7967,0.0897930443749738,0.0
37.801296,0.0868388164128633,0.0
37.805884,0.08028685066016136,0.0
37.810484,0.07115876627866156,0.0
37.815076,0.06305230105895528,0.0
37.81968,0.05608963971518818,0.0
37.824276,0.04822754392377323,0.0
37.828868,0.039588198398856106,0.0
37.833456,0.030948852873938986,0.0
