Time,Force,Position
38.03347599999999,0.46018796483328245,0.0072807811096968255
38.038064000000006,0.41872569734422493,0.004856192787718527
38.042664,0.37983954848396545,0.002429222202172724
38.047256,0.3416084646430623,0.0
38.051852,0.30955123722154854,0.0
38.056448,0.2827684317717762,0.0
38.061040000000006,0.25717357164657123,0.0
38.065628,0.23313321098837056,0.0
38.070228,0.20987010006367213,0.0
38.074816,0.1900825422154194,0.0
38.079412000000005,0.1806775021478757,0.0
38.083992,0.1694735931850363,0.0
38.08857999999999,0.15765111845443086,0.0
38.093168000000006,0.14378540540023843,0.0
38.097764,0.13057475736540247,0.0
38.10234799999999,0.11981804324521875,0.0
38.106928,0.10881695969674368,0.0
38.11152,0.09577263782468154,0.0
38.116108,0.08223379673966262,0.0
38.120696,0.08277373375493924,0.0
38.125292,0.09175147275633294,0.0
38.12988,0.11366418598208297,0.0
38.134488000000005,0.14924498171706344,0.011237932537744256
38.13907999999999,0.20131434801836345,0.02146586964556152
38.143668000000005,0.26038920155292195,0.03167894591205842
38.148264,0.3367298753873021,0.041133035404713574
38.152852,0.42894819621727354,0.05031477531583896
38.157456,0.5303815687668643,0.05965638051751486
38.162052,0.6508796305115725,0.06864238459505799
38.166656,0.7818587325659847,0.07761264567053926
38.171244,0.91972113713951,0.08652868342848377
38.175844,1.0743606231562741,0.09528580484912136
38.180432,1.2452519525081043,0.10387756701967511
38.18503199999999,1.428178821636644,0.11245089192940987
38.189616,1.623141230541892,0.12100805593905796
38.194216,1.8332040367092288,0.1294314084212219
38.198812,2.060043924319805,0.13770445166687872
38.203396,2.299520035646081,0.14572872474604154
38.207988,2.53871341645181,0.15372980200679964
38.21258,2.766404137786043,0.1617214769580428
38.217172000000005,2.983736003524718,0.1697457500372056
38.22176399999999,3.192097186972064,0.17770510263861614
38.226352000000006,3.3892442218248324,0.17444022158264694
38.230948,3.5743998583495205,0.1721669501667232
38.23554,3.7535716268027435,0.16984767710699214
38.240128,3.916621378832084,0.16828739082110278
38.244716,4.063382788274768,0.16703758345509329
38.249308,4.206692306826158,0.1654944678200038
38.253904000000006,4.334534873973021,0.16432911022156124
38.258492,4.453573084991329,0.16315152262913618
38.263092,4.559598278519764,0.1621117147746417
38.267668,4.650767444214401,0.1612395822688353
38.27226,4.72708058207524,0.16052163106796838
38.276844,4.793401418482957,0.1597604430531912
38.281432,4.848830518989905,0.15897397128254073
38.28601999999999,4.888015418358824,0.15836275569533434
38.290616,4.912588659322237,0.15783025227467648
38.295204,4.921338634370424,0.15764882621245507
38.299808,4.932542543333265,0.15743205635953278
38.3044,4.942969202562602,0.15722468881612547
38.308992,4.954539665667878,0.15697376527278206
38.31358,4.964066890449568,0.1567877622071909
38.31818,4.974205038801987,0.156547087148381
38.32276,4.98393249156334,0.1562841947538215
38.32736,4.993004879305335,0.15602342756354834
38.331948,5.003343255637416,0.1557123766472665
38.33654799999999,5.020999292264825,0.15524277547253354
38.341144,5.033136537492202,0.15490328549643975
38.34573999999999,5.044985271842658,0.15452787676106508
38.350324,5.054502256992609,0.15417705087641093
38.354912,5.06961607680811,0.15363941680915794
38.3595,5.088694188556639,0.15300242309297252
38.364096,5.105073996962225,0.15241605777069603
38.368684,5.117733882863074,0.15191466999260517
38.373272,5.128472715154482,0.15146133152898514
38.37786,5.140599720750119,0.15094593523206293
38.382456000000005,5.146963565517433,0.1505704920196912
38.387044,5.160845298559739,0.14996277668669405
38.391632,5.16981916377274,0.14942250396201417
38.396224,5.178260148680529,0.14886797712428596
38.400812,5.185146634121316,0.14832689061032173
38.405408,5.192644043132829,0.14773390799706423
38.40999599999999,5.199242017696696,0.14716120866338578
38.414576,5.204163308079411,0.1466146230203851
38.419188000000005,5.204465241509743,0.14616640896335964
38.423776,5.203745555778282,0.1457475529577752
38.428372,5.1945644058755525,0.1455170564459051
38.43296,5.187837189887475,0.1452556819693581
38.43754799999999,5.183686092528193,0.1449534547597116
38.442144,5.181456048778353,0.1446068982165642
38.446736,5.174895158953048,0.1443904669732281
38.451332,5.163103988604632,0.14431903103328525
38.45591999999999,5.1607959015892755,0.14404179657996619
38.46052,5.161308302631008,0.14370520902488718
38.465108,5.163619572568035,0.14333633005022506
38.469708,5.166708092238567,0.1429625759473026
38.474288,5.178135891366217,0.14242523604116
38.47888,5.184089040542465,0.14205237355590103
38.483476,5.1938062536720775,0.14166040023100618
38.488072,5.208920073487578,0.14118089899097722
38.49266,5.230984999455967,0.1406056772459918
38.49725599999999,5.251539567405983,0.14009607357776277
38.501848,5.27082814676591,0.13963037995082223
38.506436,5.294247344221644,0.1391243179882575
38.51102399999999,5.3202426603061745,0.13857862172055896
38.51562,5.345993606962414,0.1380538511274281
38.520216000000005,5.37714116030454,0.13743423525078513
38.52480799999999,5.4044466064277845,0.13689429113361026
38.5294,5.4294644447991525,0.13642754915291194
38.533996,5.45501516347573,0.13598133736238255
38.53858,5.483386370209396,0.1354814062341473
38.543164,5.514700249714297,0.13491378432055323
38.54775599999999,5.53502068786776,0.134603333174246
38.552336,5.557017810202374,0.13427892397546612
38.556916,5.580036551698782,0.1339352700908027
38.561524000000006,5.602033674033397,0.13361710451174197
38.566112,5.617246016377896,0.1334391001682651
38.570724,5.635645400921918,0.13318165188563186
38.575304,5.6544113396083775,0.1328991371460632
38.579904,5.666148128876429,0.13277189449328913
38.584496,5.673265561192094,0.13272465758753732
38.589088,5.681160243241263,0.132672784040181
38.593692,5.694818086118756,0.132514757333197
38.59828,5.706021995081596,0.13238113997613882
38.602884,5.722866880158613,0.13215590278009717
38.607476000000005,5.743309503026224,0.13188285522523405
38.612084,5.764895929769772,0.13158472609056265
38.616664,5.791712637036435,0.1311734971146452
38.62125999999999,5.8200397023214725,0.13070765757993275
38.62584,5.8455462795494215,0.13028841376911182
38.63043999999999,5.871419410919807,0.12984910195722268
38.635036,5.895738042823187,0.1294175792045998
38.63963199999999,5.926186389697329,0.12885707905836408
38.644212,5.9490727068478515,0.12841791753239504
38.648808,5.971959023998376,0.12798498082534315
38.653396,5.99815456806257,0.12747864116894753
38.65799199999999,6.029580392649877,0.12686353452771698
38.662580000000005,6.0590851636277465,0.1262853294778467
38.667168,6.0869132504244625,0.12572635763077067
38.671756,6.115230076077761,0.12512649360435177
38.67634,6.141992402264059,0.12453408943210653
38.680932,6.17104233620223,0.12388794121714432
38.68551599999999,6.194695663454517,0.123318876399259
38.690112,6.212463645164332,0.12284819235366828
38.694692,6.222913966578821,0.12248208444295038
38.69928399999999,6.228212050735712,0.12216862096790554
38.703872,6.227214093759068,0.12193367283206667
38.70846,6.222251844849396,0.12176889285152447
38.713052000000005,6.213569673434985,0.12165626131818193
38.71764,6.209218348096042,0.12144957124423697
38.722228,6.2029459691476525,0.12127313348042577
38.726816,6.197695209361061,0.12107726064137252
38.731408,6.19166719984097,0.12088420388383429
38.736004,6.189070601948694,0.12060759287291173
38.74058,6.1837757007134755,0.1203635373292484
38.745180000000005,6.171573834773993,0.12023513951948141
38.74976,6.153853177434476,0.12017744669086432
38.754360000000005,6.1345780206279565,0.12012389367329634
38.758948,6.11182731074499,0.12010433817852402
38.763548,6.09226364306155,0.12001831523701621
38.76814,6.075642648149343,0.11988267308783036
38.772732000000005,6.060287641827224,0.1197101824608283
38.77734,6.043378136038099,0.11954067154191324
38.781936,6.034519398829175,0.11923128849361182
38.786524,6.026926650210336,0.11888570376840825
38.791124,6.0203555207532915,0.11852026510491406
38.795716,6.018403748248632,0.11809373733796295
38.800308,6.01375367240103,0.1176955363213013
38.804896,6.013845138219959,0.11722842138944431
38.809484,6.010094496820004,0.1168207890969676
38.814064,6.005810975114841,0.11639803993063669
38.818656,5.9994842150860865,0.11601111261475455
38.823252,5.9914807708761835,0.11563583586836929
38.82784,5.988996118066313,0.115193985926607
38.832436,5.984712596361145,0.11476964369678457
38.83702,5.985537170464948,0.11425274934741103
38.8416,5.99110328623528,0.1136702920320609
38.84619599999999,5.99756883645326,0.1130762785428544
38.850784,6.010330427804774,0.11241397855306395
38.85538,6.023214203870436,0.11174922106713675
38.85996,6.031478622983712,0.1111412335190307
38.864552,6.032713892678578,0.11064900849828703
38.869156,6.037302530735747,0.11013486285779087
38.873752,6.03817124628818,0.10966890981882482
38.878348,6.04275988434535,0.10916106239106928
38.882936,6.045549653507223,0.10866902233400227
38.887528,6.046418369059655,0.10820377394919882
38.892112,6.054194049316348,0.10763545976882546
38.896712,6.059926491249456,0.10710411948559775
38.90129999999999,6.064515129306624,0.10659593152892395
38.9059,6.067715594059562,0.1061275930580147
38.910492000000005,6.07986626184035,0.10553084792973327
38.915088,6.090750941031052,0.10496512160321536
38.919668,6.099958936040608,0.10441668088144854
38.924264,6.114030657430837,0.10380400075606427
38.92885199999999,6.1308006821640095,0.10317574231962778
38.933448,6.146426903021244,0.1025768960733749
38.938036,6.1649957966497135,0.10194301803723799
38.942620000000005,6.182010190811179,0.10131613258328458
38.94721199999999,6.198535846116061,0.1007245499520255
38.95179999999999,6.216860370316239,0.10011595531443501
38.956388,6.23927137116359,0.09944387839053531
38.96097999999999,6.26204892615338,0.09875410784489014
38.965564,6.289568022809699,0.09802126757240791
38.970148,6.313245012247136,0.0973379590663082
38.97474,6.342685162512897,0.09659440257841018
38.979324000000005,6.377111223873479,0.09579505242048639
38.983908,6.407572993301033,0.09505241863242189
38.988512,6.441099620213968,0.09427563968226223
38.9931,6.478834908488223,0.09344002507261667
38.997688,6.522577727019092,0.0925367854119078
39.002284,6.553650420017375,0.09177971221524699
39.006872,6.5900755782529155,0.09094721736240684
39.011468,6.623313694288933,0.09016745970501464
39.016064,6.6555301911631535,0.08940931335092686
39.02065999999999,6.680184658313756,0.08872179180506727
39.025248000000005,6.701241387673767,0.08805701343034808
39.029844,6.720377063424336,0.08741566921533486
39.034424,6.7365700664036705,0.08680635804459871
39.039024,6.751208569916001,0.08619542842460029
39.04360799999999,6.768911930913712,0.08555097958170442
39.048204,6.786493107197276,0.08491565549183465
39.052792,6.802153229871399,0.08430022723310092
39.057384,6.810129138107757,0.083754895600515
39.061988,6.818227231058261,0.08320230849294767
39.06658399999999,6.823382651237529,0.08268217682501822
39.071172,6.82289709530262,0.08220672006519318
39.07576399999999,6.822655908796001,0.08171696624333473
39.080356,6.8149748772799095,0.08127672059983959
39.084948,6.799609631326052,0.08089788613910699
39.08954,6.779380658991518,0.08056182918683377
39.09413599999999,6.766180836075392,0.08015155777117548
39.098724,6.747750732636155,0.0798033794095396
39.10331599999999,6.7304644330728545,0.07943627486753868
39.107912,6.709458211004818,0.07909115237243322
39.1125,6.691150292279724,0.07873118090219672
39.11709999999999,6.6747634271640734,0.07835365488809047
39.12168799999999,6.658254377334275,0.07798228411135577
39.12628,6.6439107505422115,0.07758058187794326
39.130876,6.626624450978912,0.07720197582534229
39.135464,6.607172728377878,0.07685155859385426
39.140060000000005,6.588986994366932,0.07647604220552195
39.14464,6.570801260355984,0.0760987782964944
39.149228,6.554536579954479,0.07570407572934472
39.153824,6.535451411495884,0.07532457450262978
39.158424,6.516366243037289,0.07494403951631462
39.163016,6.498957758759845,0.07456142087162494
39.167608,6.4841253931111975,0.07417453681429607
39.1722,6.475955622738523,0.07374082291566134
39.17678,6.479189989308349,0.07323238423498649
39.18138,6.485611398077704,0.07268890906803213
39.185968,6.49473111019,0.07214183109435028
39.190568,6.50601624534003,0.0715682089664665
39.19516,6.517423565204206,0.07098986210053689
39.199748,6.535493480344353,0.07037386355375945
39.20434,6.555973187950524,0.0697215535304672
39.208936,6.578373949166138,0.06905995910460593
39.21354,6.601019079810043,0.06838787574586216
39.218132,6.625218709920952,0.06772912864156251
39.222724,6.658124173631419,0.06701906235964619
39.227316,6.691396191484324,0.06629342237686756
39.231904,6.723646590175435,0.06558265050872908
39.236492,6.758717476923636,0.06486355047083744
39.24108,6.799551524500161,0.06411822624023933
39.245676,6.848191971228595,0.06332946951191953
39.250272,6.896832417957031,0.06254546913879332
39.25486,6.946738853275551,0.06174682280304867
39.259456,6.99701184273651,0.06094048553202492
39.264044,7.047162647483321,0.06015161578511834
39.268636,7.0898736072206585,0.059399708575759866
39.273216000000005,7.126577036701381,0.05869041566186214
39.277804,7.159682728391512,0.05799597898435977
39.2824,7.193687854529291,0.057305196379912327
39.286988,7.2228292542863946,0.05663732337574454
39.291592,7.2435091898722295,0.05600085336240181
39.296188,7.265743624925068,0.05538106284677886
39.300776,7.288877494425554,0.054765636513913474
39.305372000000006,7.30816925670716,0.05416512763264468
39.30996,7.321820042874585,0.05358194686754616
39.314556,7.3277866146042445,0.05303254207263145
39.319144,7.331343393867882,0.05251399699331492
39.323748,7.3297920773225504,0.052026128684510654
39.32834,7.325053718577693,0.05156506649952221
39.33294,7.310710091785628,0.05113870618428079
39.33752799999999,7.288193511699215,0.05076360620231674
39.342136,7.262612074127422,0.05040579337413187
39.346728,7.230001487137221,0.05008376033379977
39.351316,7.190361750728609,0.04979731157993228
39.355900000000005,7.1420161807204385,0.04954075486875424
39.360496,7.09305968714154,0.04931142490956561
39.365084,7.042837204972557,0.04909789974169736
39.36968399999999,6.986118453690375,0.04893889268444646
39.374276,6.923147802723287,0.048822785401265
39.378876000000005,6.86377488954679,0.04870272265750851
39.383464,6.8067337255707985,0.04859838279244117
39.388052,6.738044055224013,0.048538686808561556
39.392644,6.660404181849379,0.048523388897639345
39.39724,6.583297188779957,0.048525129370390774
39.401828,6.504924207120446,0.04854621180218632
39.40642,6.427206290480295,0.04857740577232026
39.411016,6.346667885783054,0.0486153108767899
39.415604,6.270871022752344,0.04863779248907716
39.420204,6.1913542372168955,0.04866695053027289
39.424792,6.114535755024391,0.04869456383179889
39.429376000000005,6.034652415346506,0.04874680829180594
39.43396,5.953625271792681,0.048814034192573005
39.43854399999999,5.877339669905387,0.04886522604552485
39.443144,5.802608567485098,0.04893137299905072
39.44774,5.733274071750696,0.04899768764239291
39.452328,5.663040141568645,0.049064727413069734
39.456928000000005,5.594727264996037,0.04912592508047972
39.46151999999999,5.529479245908811,0.049167706804314315
39.466116,5.465375030697521,0.04919654428545801
39.470704,5.40024919632444,0.04923076294722058
39.4753,5.3323028738942675,0.049274831953688446
39.479888,5.269997527578275,0.04930485451583747
39.484488,5.210757038747662,0.04931163999163512
39.48907199999999,5.147674442698166,0.049338349804633294
39.493664,5.09047719219114,0.049328576478293196
39.498252,5.028538400017585,0.04933703034205282
39.502848,4.964678554234587,0.04935637329221999
39.50744399999999,4.895055547623267,0.04940303633428371
39.512036,4.825432541011945,0.049451004168354455
39.516636000000005,4.75196742718174,0.04951996083720017
39.521236,4.683610409160503,0.04954371210923942
39.525828,4.612677272510467,0.04956152328114305
39.530428,4.537002594193903,0.049597983539096065
39.535016,4.457730178086746,0.049640900241563896
39.53959999999999,4.372161720846056,0.04968832426509096
39.544188000000005,4.283117710528918,0.04972672896964134
39.54878,4.192641385458923,0.049728166369438845
39.553376,4.097912257578979,0.04970495122301438
39.557964,4.002528064679678,0.04965411780590953
39.562556,3.899704026770904,0.04962774786065897
39.567144,3.7954476741092704,0.049562003565454225
39.571736,3.6865719644952524,0.04951241789453205
39.576324,3.5739763323764975,0.04947230424186184
39.580916,3.4626466888478267,0.049394768382630586
39.585508,3.339013473929006,0.04938694639552434
39.590096,3.2125597709530958,0.04941738813849824
39.594684,3.0853288182436835,0.04944438459367404
39.59927999999999,2.956298996638975,0.04949549453966833
39.603868000000006,2.8207287644724417,0.04962883980277961
39.608464,2.687323955343639,0.04969896866461828
39.613044,2.5464793012053635,0.04981899135832737
39.617648,2.408577319838323,0.049869581361813756
39.62222799999999,2.2704309690429914,0.0500246248206104
39.626828,2.13252898767595,0.05015130244628309
39.631416,1.9955264407565574,0.04763438645954663
39.63602399999999,1.8571357205329337,0.045125741773110586
39.640612,1.7172346422909346,0.0426533003159203
39.645212,1.5778664443541457,0.04020473074999531
39.649804,1.4353112042178304,0.0377827118448382
39.654396000000006,1.2971309516056089,0.0353443187789862
39.658996,1.1625746964038308,0.03293526503197363
39.663592,1.035336101497381,0.03050918701555821
39.668184,0.915292982172114,0.028081488919347978
39.67278,0.8005242848185882,0.025670710401319654
39.677356,0.6967931702651281,0.02321833072341704
39.681952,0.6023007696164377,0.020716438303788387
39.68654,0.5150038445489304,0.018206069066464544
39.691136,0.4350245797767516,0.015659346200895163
39.695724,0.3660828978046382,0.013028264620738373
39.70030799999999,0.3013940186424727,0.010446636604732993
39.704904,0.24569948395678579,0.007835523297593539
39.709492,0.1933583176333989,0.005290796623590644
39.714084,0.14665812742419046,0.002638840432799348
39.718664,0.10613179363437134,0.0
39.723252,0.07190150097808716,0.0
39.72785999999999,0.045233238045422806,0.0
39.732448000000005,0.0242059512269369,0.0
39.737044,0.00959689025613163,0.0
39.741632,0.002427674294800516,0.0
39.746224,0.0,0.0
39.750816,0.0,0.0
39.755408,0.0,0.0
39.760004,0.0,0.0
39.76458,0.0,0.0
39.76917999999999,0.0,0.0
39.773768,0.0,0.0
39.77835999999999,0.0,0.0
39.782952,0.0,0.0
39.787548,0.0,0.0
39.79214,0.0,0.0
39.796736,0.0,0.0
39.801324,0.0,0.0
39.80592,0.0,0.0
39.810508,0.0,0.0
39.815104000000005,0.0,0.0
39.81969599999999,0.0,0.0
39.82428399999999,0.0,0.0
39.828872,0.0,0.0
39.833472,0.0,0.0
39.83806,0.0,0.0
39.842636,0.0,0.0
39.847232000000005,0.0,0.0
39.851812,0.0,0.0
39.856404,0.0,0.0
39.860992,0.0,0.0
39.86558,0.0,0.0
39.870184,0.0,0.0
39.87477199999999,0.0,0.0
39.879384,0.0,0.0
39.883976,0.0,0.0
39.888564,0.0,0.0
39.89316,0.0,0.0
39.89774799999999,0.0,0.0
39.90235199999999,0.0,0.0
39.906932,0.0,0.0
39.911536,0.0,0.0
39.916124,0.0,0.0
39.92072399999999,0.0,0.0
39.925316,0.0,0.0
39.92992,0.0,0.0
39.934508,0.0,0.0
39.939108,0.0,0.0
39.94369999999999,0.0,0.0
39.948288000000005,0.0,0.0
39.952876,0.0,0.0
39.957472,0.0,0.0
39.96206,0.0,0.0
39.966656,0.0,0.0
39.971244,0.0,0.0
39.975832,0.0,0.0
39.98042,0.0,0.0
39.98501999999999,0.0,0.0
39.989608,0.0,0.0
39.994204,0.0,0.0
39.9988,0.0,0.0
