Time,Force,Position
37.250992,0.0596034405873443,0.0
37.255584,0.045024144970894804,0.0
37.260172,0.03236590296388668,0.0
37.264768,0.019463291528587223,0.0
37.269356,0.010158417883879164,0.0
37.273956,0.004451282029762513,0.0
37.278544,0.0015646342327350871,0.0
37.283148,0.0015646342327350871,0.0
37.287732,0.00047685533100336495,0.0
37.292332,0.00047685533100336495,0.0
37.296928,0.00047685533100336495,0.0
37.30152399999999,0.00047685533100336495,0.0
37.306108,0.000476855331003365,0.0
37.3107,0.000476855331003365,0.0
37.31529199999999,0.000476855331003365,0.0
37.319884,0.000476855331003365,0.0
37.32447199999999,0.000476855331003365,0.0
37.32906,0.0,0.0
37.333648,0.0,0.0
37.338236,0.0,0.0
37.342828,0.0,0.0
37.34741999999999,0.0,0.0
37.352016,0.0,0.0
37.356596,0.0,0.0
37.361188,0.0,0.0
37.365776,0.0,0.0
37.370364,0.0,0.0
37.37496,0.0,0.0
37.37954799999999,0.007071646973196605,0.0
37.38414,0.03194199455142583,0.0
37.388736,0.06872569719221788,0.0
37.39332399999999,0.11423571269604652,0.008858182655034205
37.397916,0.17611211405204907,0.01695500340815386
37.402496,0.24781449069839928,0.025146689193120072
37.407092,0.3304866465110363,0.03327860137449989
37.41168,0.42208534316637303,0.04153730110734774
37.41627999999999,0.5248201451507705,0.049853491452208284
37.42086,0.6411008449302527,0.058002347788853256
37.42546,0.7699058233430259,0.06607959219025301
37.430048,0.9107022000838795,0.0740745893880479
37.434636,1.0645115943146073,0.08194993384058397
37.43922799999999,1.227003159959743,0.08994484115065075
37.443824,1.4011195697905225,0.0979267527503042
37.44842,1.5846954007692133,0.10599721840412361
37.453008,1.7809176950953411,0.11401148204759787
37.457596,1.9879875838736099,0.12202470112786028
37.46218399999999,2.203861828780433,0.13010949891371668
37.466772,2.4308280375676903,0.13816540814157066
37.47136,2.6522329574001273,0.14613812028957338
37.475948,2.8524858082652313,0.15417526232404694
37.48054,3.0424578468002927,0.16211643295493802
37.48513199999999,3.2236594310236883,0.1611358778943784
37.489724,3.3856741413378217,0.16099504962766656
37.494316,3.536064007466312,0.16080436560483458
37.498904,3.678182397771459,0.16060621140942566
37.503496,3.8123958663956996,0.1602469610422863
37.508092,3.93518471881396,0.15979085490005127
37.51268399999999,4.042506619827694,0.15955836064257437
37.517276,4.136526992474635,0.1594073308314548
37.521864,4.218433782079349,0.15935097855964997
37.526452,4.29068092255649,0.15935062052311325
37.531048,4.356166945228665,0.15917537617551714
37.53564,4.4087621351251105,0.15907109217033819
37.54023599999999,4.452142273301937,0.15885391160488171
37.544828,4.480954894521885,0.158748794683813
37.549428,4.500718790184987,0.1586010253888865
37.55401199999999,4.51654205610021,0.1582398291094869
37.558612,4.525770530373239,0.1578061413531725
37.5632,4.537086384418485,0.1573772845577002
37.567792,4.554698279597265,0.15680438285788947
37.572376,4.571577066491171,0.1563087532142945
37.576972,4.589521613995501,0.15584703918074538
37.58156399999999,4.610408834271065,0.15529590566511853
37.58615999999999,4.632317673708421,0.15470713097056388
37.590748,4.651406025088688,0.15419669356510263
37.595344,4.669350572593018,0.1537316694142318
37.599932,4.686562011812471,0.15333582554626912
37.604524,4.705039439622011,0.15288011882537397
37.60911599999999,4.725315736326848,0.1523846791989471
37.613704,4.747635271355271,0.15182881713879914
37.618284,4.766723622735541,0.15132559204087673
37.622872,4.785279093810599,0.15081573219289648
37.627464,4.809309214837063,0.15012374649525223
37.632052,4.833094966435232,0.1494561033037196
37.636644,4.864687117185316,0.14859020310187213
37.641224,4.893703149306602,0.14777392816032905
37.64581199999999,4.915279336418412,0.14713853568566473
37.65042,4.9345237743297155,0.14654019154441497
37.655008,4.951558647754657,0.14596261908984767
37.65959599999999,4.965117968103154,0.14544965925115563
37.66419199999999,4.977122788984647,0.144950689495632
37.668788,4.988350360132638,0.14446064575027057
37.673384,5.002398419337717,0.1439140173194553
37.677976,5.0201664010475335,0.14329390224792612
37.68257199999999,5.0385453063280785,0.14262258495986058
37.68716,5.060355623236441,0.14184651583021704
37.69176,5.082532494287239,0.1410353628199727
37.69634799999999,5.109206537576276,0.1401514039520719
37.700948,5.1379238191889005,0.1392271217166656
37.705528,5.163165547725081,0.1383589685632653
37.710128,5.1876300265277555,0.13749631078502028
37.71471999999999,5.210706332026203,0.13669561121036175
37.719316,5.227897291982178,0.13603698153716184
37.72389999999999,5.246476425242386,0.1353259902026469
37.72849599999999,5.256594094331322,0.1347889086074681
37.733084,5.264790709810819,0.13428786949641328
37.73768,5.273764575023817,0.13377625656198136
37.742268,5.275953660246699,0.13341200395786776
37.746856,5.274955703270055,0.13313530409904026
37.75144399999999,5.275267876332125,0.1328687670331374
37.756024,5.278156168022991,0.13256699771143526
37.76062,5.28157734001907,0.1322812747859648
37.765212,5.277192112863237,0.13216893799989532
37.769808,5.270885832097962,0.13209714359009994
37.774396,5.26756636555255,0.13201553922394801
37.77899599999999,5.260571117951031,0.13205791987246937
37.78357199999999,5.257950857873603,0.13203658165818596
37.788168,5.25136630586315,0.1321015900929034
37.79275199999999,5.2393071039012895,0.13231644750075444
37.797344,5.232155769768735,0.1324839893945291
37.801932,5.226436750389039,0.1326523732613883
37.80652799999999,5.221250611314553,0.1328358803279739
37.811116,5.221094524783517,0.1329633424048644
37.815712,5.220205329967607,0.1331483752923707
37.82030399999999,5.222669503513997,0.13329736708654083
37.824896,5.233350771803365,0.1333112722163549
37.82948,5.249184277350329,0.13326156837648198
37.83407999999999,5.272213258478477,0.13309840422235567
37.838668,5.299617227130715,0.1328754036461957
37.843276,5.324078523011719,0.1327109192096024
37.847864,5.346374395854992,0.13260486825478268
37.852464,5.365971965355321,0.1325394903871967
37.857052,5.396074237350504,0.1322708725916627
37.861648,5.4286304432603405,0.13198588528956504
37.86622799999999,5.4566894769319365,0.13177247705978345
37.870824,5.488957171964853,0.13146073157617938
37.875412,5.520325432550122,0.13117252481837335
37.880008,5.5527153122971855,0.13086231777409155
37.884596,5.590702026709801,0.1304022559886452
37.889188,5.623780873293109,0.1299875105345041
37.893768,5.659147327628295,0.12951684968147423
37.898364,5.6953690749625006,0.12898563791376105
37.902956,5.727704573629197,0.12847832131074485
37.907548,5.7615504303142675,0.12791817356113358
37.91214,5.795885025855921,0.1273264338543573
37.91672,5.824045764978187,0.12682191515581265
37.921316,5.849464059308881,0.1263107006669099
37.925904,5.873816593029153,0.1257776995171759
37.930492,5.895959562263063,0.12524973705727216
37.935084,5.92304430114317,0.12458187263161201
37.939672,5.950862148308148,0.12386292325651686
37.94425999999999,5.983133026262737,0.12303976582827869
37.948856,6.011395470835671,0.12225645919541368
37.953456,6.037937089778825,0.12145014329476346
37.958048,6.0625135136639114,0.12061954353606244
37.96263999999999,6.081038265843754,0.11985293260344934
37.96724,6.094532965480143,0.11912770224627471
37.97182,6.106961904506109,0.11837535463502324
37.97642,6.1151380407221305,0.11766324683057432
37.981,6.130465511070705,0.11682793879085249
37.9856,6.138597505838097,0.11607356168839895
37.99019199999999,6.146973870033781,0.11530784455208254
37.99478799999999,6.156494038105402,0.1145166588271644
37.99938,6.160617599491139,0.11378378545894939
38.003964,6.165884964752813,0.11302998605583432
38.00856399999999,6.172296133890426,0.1122504155452512
38.01316,6.178462933599749,0.11148900555856453
38.017748,6.182586494985483,0.11076442466297833
38.022344,6.187976044961305,0.11000935605409558
38.026932,6.189934183309306,0.10933289672832248
38.031516,6.192014506371454,0.10864989194006432
38.036104,6.194872079167103,0.10797290323956664
38.040704,6.193765360029726,0.10735342830145914
38.045292,6.190371033140469,0.10678331172897683
38.049888,6.194172181832395,0.10614714130329857
38.05448,6.20247050276256,0.10546996724578678
38.05906,6.216165430378614,0.10474547772139413
38.063656,6.232436476623466,0.10400917975698899
38.06824399999999,6.249895468192886,0.10329545611783396
38.07283999999999,6.258159887306162,0.10272620578323258
38.077428,6.2729647169812655,0.10208571686406807
38.082016,6.288424611675726,0.10145918411681466
38.086604,6.302618517780102,0.1008642292325098
38.091196,6.320532346389214,0.10022921085390592
38.095784,6.336647306103031,0.09961464504020363
38.100376,6.353906069692788,0.09898181242029583
38.104972,6.372308637158483,0.09833042536152951
38.109576,6.3946754965572055,0.09763373409688807
38.114152,6.413078064022901,0.09698847663323204
38.11875199999999,6.431602816202741,0.096335198364864
38.12334,6.448983764506645,0.09570537079697596
38.12794,6.459702117534574,0.09514659397396003
38.132532,6.474262577781387,0.09454607158070034
38.13712399999999,6.4880457882946985,0.09394374815926619
38.141708,6.492590284903239,0.09342282597595587
38.146292,6.493659228435333,0.09292180173588252
38.150892,6.488432130833893,0.09246578199602118
38.155488,6.477564057118274,0.0920617208109742
38.160076,6.468328526135176,0.09160702541926292
38.164668,6.464201090961047,0.09108228484169836
38.169256,6.4562315485680335,0.09059730834288515
38.173844,6.441843780327341,0.09016057642462118
38.178432,6.427822566229087,0.0896999985014351
38.183024,6.412002483235535,0.08924973117825524
38.18762,6.393239727470749,0.08882988378981417
38.192212,6.373333167830023,0.08842967842505504
38.19680399999999,6.351627739294003,0.08803929185868489
38.201396,6.327101822700892,0.08767189990014104
38.205984,6.303597525269576,0.08728862367017254
38.21057999999999,6.283280270037785,0.08685835040512516
38.215168,6.264351188110226,0.08639169420927104
38.21976,6.248486963668046,0.0858838152224674
38.224348,6.229802251168778,0.08539744496519859
38.22894,6.211894788403011,0.08491077990608081
38.233532,6.204247658703808,0.08434486667580152
38.23813199999999,6.195456725128666,0.08379512904617827
38.24272799999999,6.189241910182321,0.08323405312961625
38.24732,6.188668071350155,0.08262700867944851
38.251924,6.186828243927905,0.08204894550054616
38.256512,6.182945178182067,0.08149577668560769
38.261116,6.180983166045669,0.0809247718290097
38.265696,6.18748261808054,0.08029010685422708
38.270296,6.197579807906003,0.07964127313848057
38.27488399999999,6.214217408293291,0.07895272942194347
38.27948799999999,6.234452746471172,0.07824649097424538
38.284076,6.252767031039611,0.07755637830336085
38.288672,6.270714761465613,0.0768881126143926
38.293268,6.28571981912038,0.07624633837648112
38.297864,6.304444799279884,0.0755836580798224
38.302468,6.318061683630422,0.07497894305473227
38.307064,6.332089263572024,0.07440260758279833
38.311652,6.349714581304216,0.07381577473597614
38.316252,6.371059821541146,0.07321000374147106
38.320844,6.394326115387517,0.07259244957037879
38.325436,6.412728682853212,0.07202137499309566
38.330024,6.436527857004794,0.07143185711838161
38.334616,6.4603270311563765,0.0708426619297387
38.339208,6.482082966984371,0.07027864765466633
38.343804,6.504738337260015,0.06971508845736159
38.348396,6.529192576430953,0.06914743172931383
38.35299199999999,6.559165607001926,0.06856381325539793
38.357584,6.584152726478075,0.06802765044857358
38.362172,6.602477250678253,0.06753281853373873
38.366764,6.61413917960246,0.06708133870095007
38.371352,6.6238800549172225,0.06664271960063807
38.375944,6.638240287184372,0.06618672522089063
38.38054,6.654521573060963,0.06572026735894662
38.385128,6.673378977566351,0.06525224908713186
38.389724,6.691092578195801,0.06480409643197788
38.39431199999999,6.712403916615841,0.06434626773881591
38.3989,6.732693635874088,0.06389949511736236
38.403496,6.7500406823611,0.06347664690421183
38.40808799999999,6.763301252200939,0.06308992196417904
38.41269199999999,6.77758344120257,0.06269813575582675
38.41728,6.789944576594761,0.06231673630956231
38.42187199999999,6.79895234362465,0.061932653596381775
38.426452,6.807837925940396,0.06155472883558783
38.431048,6.815701889094347,0.06118532325085582
38.43563999999999,6.819601560315269,0.06084213017202162
38.44024,6.822068916783334,0.06048394203729325
38.444836,6.815297559346627,0.06015640934734003
38.449428,6.806727333014627,0.05983036318192015
38.45401999999999,6.803920267510949,0.05947479795720455
38.458616,6.799969398131333,0.059131477721862315
38.463204,6.7972845173418,0.058767050026694474
38.467804,6.791901333209325,0.05840855622727214
38.472396,6.783819845733906,0.05805368539974727
38.476988,6.774716739096694,0.057706032063005876
38.481568,6.762670959688247,0.057374472578479656
38.486156,6.749970115260442,0.0570314671115518
38.49074399999999,6.736492021099137,0.05668253540074213
38.495336,6.721992307776037,0.05634034884071575
38.499928,6.711334701671821,0.055980724208032066
38.504516,6.693647946149194,0.0556653796614723
38.509116,6.6807027322931,0.05533195417289021
38.513708,6.668046029313925,0.05502859595690707
38.5183,6.661396856591365,0.054689313947323126
38.522888,6.655769303030598,0.054342427488663116
38.527468,6.655904910298156,0.05397179341117978
38.532076,6.654163605404899,0.05365118022533364
38.536664,6.657818907197531,0.05332544700603484
38.54125199999999,6.660330405114222,0.05301028592951614
38.54584799999999,6.656590003346008,0.05274348538684446
38.550444,6.655670089634883,0.052467149678980335
38.55504799999999,6.652340383457734,0.052223595963785056
38.55964,6.646068004509349,0.05199379745390767
38.564236,6.643515548065702,0.05175526702892734
38.56882399999999,6.643250699373933,0.05149032746047412
38.573416,6.642863665968019,0.051230403247197145
38.577996,6.640189024810225,0.050996564131957633
38.58259999999999,6.637514383652433,0.050762192683124166
38.587192,6.633818123332846,0.050533747694217604
38.591792,6.625380321346729,0.05031967109749317
38.59637599999999,6.6189857576841975,0.05008950089561811
38.600972,6.602086491526813,0.04989412606724945
38.605564,6.582733291454776,0.04968546256497179
38.61015999999999,6.554429888354889,0.04952407426084708
38.61475599999999,6.51946388997903,0.049381777365709395
38.619356,6.47501480827011,0.0492658245894837
38.623944,6.428233977360682,0.04912962615616709
38.62854,6.372625128137551,0.04903505640473585
38.633128,6.318160082790359,0.04892452847005977
38.637716,6.267004264356838,0.04877761278459277
38.642304,6.211229088970933,0.04863564557643657
38.6469,6.1527556102420835,0.04849269021402828
38.651492,6.088152416542473,0.04839276877202035
38.656072,6.013821770081511,0.04833570313831105
38.66065999999999,5.930418735878551,0.04833676937369384
38.665248,5.844561767760939,0.04832132538410649
38.66983999999999,5.753308192957441,0.04830674890428573
38.67443599999999,5.656946522344975,0.0483303500788964
38.679028,5.5587859828372155,0.048351891844261155
38.68362,5.456661151396425,0.04840011185802871
38.688208,5.351593647184401,0.048466204740559335
38.692796,5.25114549992476,0.048526282335453114
38.69738399999999,5.144812007122651,0.04862351893767207
38.701976,5.034514222387513,0.048756649752001766
38.706572,4.9257709371193785,0.048914893752106774
38.711152,4.817927086298893,0.049077787732520625
38.715752,4.707140562707172,0.04926647167769638
38.720344,4.596720593257889,0.04943991402218835
38.724944,4.485279004646812,0.049619763940247516
38.729528,4.368973689655058,0.04982824121121423
38.734112,4.252424005235012,0.05006329394984887
38.738708,4.136895939976761,0.050290063388794215
38.743304,4.02749758968927,0.05046171813748728
38.74791199999999,3.9230851504966022,0.05059195338525264
38.752504,3.823658622398756,0.05068468238093281
38.757104,3.7229661057108245,0.050813928446697555
38.76169599999999,3.623950273204044,0.05096393883858926
38.766284,3.5251788101255537,0.051102595672112595
38.770876,3.4264073470470646,0.051238622519188065
38.775456,3.3298013070063073,0.05134394044485492
38.780044,3.236382309165076,0.051389640857625256
38.784632,3.1412866271426956,0.051421262539050196
38.789228,3.050932486786845,0.05143263402417943
38.79382,2.9647870077923146,0.051373768967862256
38.798408,2.88015188681616,0.05123368761601936
38.803008,2.7953945811258603,0.05111079991708336
38.807588,2.7134577634926487,0.05097150155475992
38.81218,2.629599892249997,0.05085352380234737
38.81677199999999,2.5426771635219643,0.05080083142266068
38.82136,2.453711196470345,0.05081113811017359
38.825956,2.3670328371706035,0.05072315269284538
38.830544,2.2766345553661247,0.05065775602439047
38.83514399999999,2.184193035238059,0.05062670153870965
38.839728,2.0886866576246135,0.05067299694382793
38.844316,1.9892159880781386,0.050843000054720075
38.848912,1.8908891224076032,0.0509769578601502
38.853492,1.7984476022795381,0.05094750820012573
38.858092,1.7048622782755332,0.04835134841686715
38.862672,1.6080899120720022,0.045766125329380514
38.86727199999999,1.5083748730972366,0.04319118281703089
38.87186,1.4026523038658552,0.04066433531913643
38.87646,1.2975847996538306,0.038150525284774216
38.881056,1.1935389146035993,0.03563309511329154
38.885648,1.0872054218014897,0.033149892804086034
38.89024,0.9802610054286516,0.030722586699489567
38.894832,0.8783143836762147,0.02827322121122549
38.899424,0.7808649341620172,0.02582153372506299
38.904016,0.691632579390796,0.02334154409095076
38.908604,0.6089406351814012,0.020804532473929355
38.913192,0.5336885359814806,0.0181982564337898
38.91777999999999,0.4607681859820664,0.015671459182960115
38.92236,0.3950433115638351,0.013130676325736433
38.926956,0.33381560938384297,0.010579483195906425
38.931552,0.27810669860388365,0.007975648823387766
38.936144,0.2289381983857507,0.005259440592809126
38.940724,0.18414468569171125,0.002558979660252886
38.945308,0.1389846188552348,0.0
38.949892,0.10036496258058462,0.0
38.954484,0.06840790158190647,0.0
38.95907999999999,0.04376850087855678,0.0
38.963668,0.027468379632329096,0.0
38.968256,0.0148881808908385,0.0
38.972852,0.004884100778145783,0.0
38.97744,0.0005209967796315162,0.0
38.982036,0.0,0.0
38.986616,0.0,0.0
38.991216,0.0,0.0
38.9958,0.0,0.0
39.0004,0.0,0.0
39.004988,0.0,0.0
39.009584,0.0,0.0
39.014168,0.0,0.0
39.018764,0.0,0.0
39.023344,0.0,0.0
39.02794,0.0,0.0
39.03253599999999,0.0,0.0
39.03713199999999,0.0,0.0
39.041724,0.0,0.0
39.046308,0.0,0.0
39.050896,0.0,0.0
39.055488,0.0,0.0
39.060076,0.0,0.0
39.064668,0.0,0.0
39.069264,0.0,0.0
39.073848,0.0,0.0
39.07843999999999,0.0,0.0
39.083032,0.0,0.0
39.087624,0.0,0.0
39.09222,0.0,0.0
39.096804,0.0,0.0
39.101404,0.0,0.0
39.106,0.0,0.0
39.11058799999999,0.0,0.0
39.11518399999999,0.0,0.0
39.119772,0.0,0.0
39.12436399999999,0.0,0.0
39.128944,0.0,0.0
39.13354399999999,0.0,0.0
39.138136,0.0,0.0
39.14273599999999,0.0,0.0
