Time,Force,Position
37.212136,0.7838390471871975,0.01858642431191039
37.216728,0.7165036483277544,0.01628456336303315
37.22131999999999,0.6537876064206961,0.013988752598119724
37.225904,0.5956909214660226,0.011669043815921314
37.230496,0.5383714862448515,0.009353793454903286
37.235088000000005,0.48836971131900897,0.007049153456646927
37.239684,0.4422100436120491,0.004711718006866416
37.244272,0.3985043098197414,0.0024207647728269124
37.248868,0.3632600401987014,0.0
37.25344799999999,0.334433996425342,0.0
37.258044,0.30752900626142393,0.0
37.26262799999999,0.2762931700220405,0.0
37.267216000000005,0.2466913890383709,0.0
37.271820000000005,0.2186441075217057,0.0
37.276408,0.1904746412908948,0.0
37.281008,0.16770178174597106,0.0
37.28560399999999,0.14660560638219727,0.0
37.290192000000005,0.12812817857265757,0.0
37.294788,0.11042800049662004,0.0
37.29938,0.0906419551715593,0.0
37.30397599999999,0.07559745151302917,0.0
37.308556,0.06619392396867751,0.0
37.31315599999999,0.05666821171018017,0.0
37.317744000000005,0.04714249945168282,0.0
37.32234,0.0404372752502747,0.0
37.326932,0.033609866334720906,0.0
37.331524,0.026660272705021436,0.0
37.336112,0.020732298237115494,0.0
37.3407,0.013904889321561701,0.0
37.345304,0.007077480406007908,0.0
37.349900000000005,0.0020489403857498166,0.0
37.3545,0.0009846922985201464,0.0
37.359096,0.0009846922985201464,0.0
37.36368399999999,0.0009846922985201467,0.0
37.368276,0.0009846922985201467,0.0
37.37286399999999,0.0009846922985201467,0.0
37.377452000000005,0.0009846922985201467,0.0
37.38204,0.0009420633730839992,0.0
37.386636,0.0,0.0
37.391232,0.0,0.0
37.395824000000005,0.0,0.0
37.40042,0.0,0.0
37.405,0.0006976939447926562,0.0
37.409588,0.006014744841970241,0.0
37.41418,0.011331795739147825,0.0
37.418768,0.012806739417442661,0.0
37.423376000000005,0.012806739417442661,0.0
37.427964,0.013382248648089647,0.0
37.432552,0.013382248648089647,0.0
37.437144,0.013382248648089647,0.0
37.441732,0.01690043064997153,0.0
37.446328,0.022339666261294785,0.0
37.45092,0.027134076485000318,0.0
37.455524,0.04151009257076213,0.0
37.460104,0.0670222139855846,0.0
37.464704,0.10534712491061772,0.0
37.469292,0.15672919477415292,0.008608229045376434
37.47389199999999,0.2208799126992706,0.016894084468632654
37.478484,0.2976770939718252,0.025000870738407115
37.483084000000005,0.3822570122111403,0.033374295632006695
37.487664,0.4761741668842203,0.04191143728625044
37.49226,0.5860911532670374,0.05014537475328411
37.496848,0.7056693013006201,0.05845101628268375
37.50144399999999,0.8312313174056678,0.06677386624664405
37.506032000000005,0.9702170465916544,0.07498077119429082
37.510628,1.127612399953402,0.08302399732195183
37.515208,1.2988847909125902,0.09103733854269509
37.519792,1.4849264393315116,0.09891427898198656
37.52438,1.6839456909002266,0.10677586327501207
37.528976,1.8943454172262937,0.11466029859316422
37.53357199999999,2.109909132964887,0.12263305260701488
37.538160000000005,2.332889031527804,0.13068949913260472
37.54275199999999,2.5687834250516017,0.13854450303061522
37.54733999999999,2.7979167007704304,0.14632771750007612
37.551932,3.017302044464429,0.15404622769112286
37.556516,3.2233417183430064,0.1617506434309625
37.561104,3.4195112754826065,0.16074470926608792
37.565712000000005,3.6062655529229257,0.1600082900046275
37.5703,3.7830716703587512,0.15939614051403592
37.57490799999999,3.9538939197231135,0.15848146275683989
37.5795,4.115501117367856,0.15739245806537244
37.584088,4.259431799121711,0.15663176231858922
37.588684,4.391204756384713,0.1558355769476035
37.593272,4.514417726947452,0.15496461479775256
37.597876,4.6251064188769,0.15419177472938322
37.602456,4.722249213011263,0.1535543461461411
37.607052,4.810054770711862,0.15286333806040556
37.61164,4.880716692826784,0.15234315384603028
37.616240000000005,4.936522587107907,0.1518696413815125
37.620828,4.981192376059969,0.1513520874152339
37.625428,5.016402743864122,0.15075316858449006
37.630012,5.043008983519384,0.15000701573409855
37.634608,5.055546684706086,0.14949719397403569
37.639192,5.065630451978139,0.14902725286102386
37.643784,5.0737931656407484,0.1486075525598186
37.648372,5.082078064017506,0.14817677566842694
37.652968,5.083944736546583,0.14788609548461235
37.65754799999999,5.082291714550583,0.14760117087171024
37.662136,5.079206377801726,0.14732139475412923
37.666724,5.075832530175949,0.14700712611462355
37.671316,5.074746290302049,0.14661739485835773
37.675912,5.073904419856441,0.14620411945561348
37.680504,5.078292829933946,0.14564329178234175
37.685096,5.080349490810945,0.1451043028257936
37.68968,5.08019658720158,0.14457349135904085
37.694272,5.0811874874681555,0.14400856560406894
37.698852,5.077803400210639,0.1435171220234389
37.70344,5.0779729092950845,0.1429041418391841
37.708048000000005,5.084927198369647,0.14213999713995912
37.71263999999999,5.09326966074844,0.14132318548233017
37.71722799999999,5.103777546164967,0.14044604353179738
37.721824,5.113796692724911,0.13961287196611016
37.726412,5.130067738969759,0.13862306552033885
37.73101199999999,5.147482589090548,0.13760450479733763
37.735604,5.16591905837313,0.136562559110188
37.740208,5.185910027122715,0.13551424672684226
37.744784,5.208232745072808,0.13444062307159096
37.74938399999999,5.231865593061617,0.13338267217606103
37.753964,5.251778518545685,0.13239344358152064
37.758568,5.272346509049113,0.13142116653398625
37.763152000000005,5.2954906181813355,0.13043702964303178
37.767752,5.320433596208857,0.12942389547780114
37.772344,5.343211151198645,0.12848307230157147
37.77694,5.367298836227144,0.12755735433007642
37.781532,5.392041586275003,0.1266347169116092
37.786124,5.41282004438983,0.1257976546897283
37.790716,5.433764828667432,0.12500061034069385
37.79530799999999,5.452588331355931,0.12431822904714994
37.799896,5.467080987968964,0.1237556966649847
37.804484,5.4798189171353275,0.12327622115113304
37.809072,5.49321191132105,0.12280810913000695
37.813656,5.508281589687922,0.12232720477385998
37.818252,5.518776052551037,0.12197709158947827
37.822852,5.530580645452867,0.1216442762684594
37.82743599999999,5.54255156451747,0.12135584269545303
37.832024,5.556321352477367,0.12104765889146929
37.836624,5.575077051532088,0.12064850200509813
37.841212,5.589624089225489,0.12033929813737564
37.845804,5.608423929728838,0.11998926515646213
37.85039999999999,5.623137293585012,0.11972319283817597
37.85498799999999,5.631065877451069,0.11957714960483663
37.85958,5.6405489607841295,0.11942767423820237
37.864172,5.648643870812961,0.11932599806036717
37.86876,5.656738780841789,0.11922526117419063
37.873356,5.670352482270653,0.11905182265464315
37.877944,5.684987802861311,0.11885709203999321
37.88253999999999,5.7067744575845225,0.1185286128900744
37.887128,5.729172035878462,0.11815586391085217
37.89171999999999,5.752713418048341,0.11775660333932918
37.896308000000005,5.774700300751217,0.1173594744471001
37.900908,5.797464433187594,0.1169667173363324
37.905492,5.819329131176323,0.1165884426641546
37.91009199999999,5.8416825680216355,0.11617645371181516
37.914688,5.859538832628708,0.11581868164404877
37.91927199999999,5.875307717463566,0.11544873475472554
37.923852,5.888378298955479,0.11511348804727016
37.928448,5.895685719619069,0.11486744186166181
37.933036,5.908467790234062,0.11450237969596307
37.937632,5.918795926934404,0.11415195342000405
37.94221999999999,5.934232159443714,0.11371043527058042
37.946808,5.94697008861008,0.1132930450262059
37.951396,5.9582757030235864,0.11287340884835163
37.955988000000005,5.969170621846029,0.11242944638169261
37.960584,5.977489422039675,0.11200710982777781
37.965176,5.980655984975723,0.11163171307869926
37.96977199999999,5.988031209273091,0.11117781470219265
37.974352,5.987189338827483,0.11082144608574689
37.978944,5.989656695295547,0.11039833574152236
37.983532,5.993512225067842,0.10993648332186229
37.988124,5.99977754730616,0.10941529996894088
37.992716,5.9983145136580855,0.10894892253425303
37.997308,5.996562969133091,0.10845183413963023
38.001912,5.9950557940363876,0.10793910286339922
38.006492,5.993915173082123,0.10739929886207965
38.01107999999999,5.993918356003796,0.10683273510665266
38.015672,5.994410277782051,0.10623446201858942
38.020264,5.998211426473978,0.10556967101224367
38.024868,5.999192087108817,0.10494102652697748
38.02946,6.003359789943182,0.10425727936080534
38.03406,6.002130886091658,0.10362422667284224
38.03864,6.0118954235915725,0.10283249119752935
38.04323599999999,6.019738907482047,0.10206422934909473
38.047828,6.025783522477225,0.10130859119314874
38.05242799999999,6.033993560510135,0.10051206195597402
38.05702,6.041837044400609,0.09973898435140996
38.061616,6.046615670805703,0.09901917213644562
38.0662,6.053848231125448,0.09829001773156039
38.070796,6.053152207579137,0.09766969804960987
38.075392,6.0495135112615905,0.09708980364360162
38.079992,6.04935036802049,0.09649278407692521
38.08458399999999,6.0572821348082195,0.09582901483983422
38.089176,6.063947913005864,0.0951970361633423
38.09376399999999,6.066527214556336,0.09462241030815675
38.098348,6.072826438611544,0.09401318658626553
38.102936,6.082601215743197,0.09338806711779304
38.10753199999999,6.088045146799384,0.09283489560542095
38.112124,6.094266327589074,0.09228745189443875
38.11671199999999,6.101142573398122,0.09174919583919078
38.121308,6.104709592293496,0.09127132694473557
38.125888,6.114694837036552,0.09074318893524884
38.130484,6.115363324609319,0.09035169022768942
38.135076,6.120528984420328,0.08993073178288259
38.139664,6.132235054793161,0.08945441446304599
38.14426,6.143696755737704,0.08899507602235732
38.148848,6.15785676002519,0.08851985340177138
38.153436,6.169196276255588,0.08806857645395864
38.15803199999999,6.18065797720013,0.08761090379763435
38.162632,6.199437338440002,0.0870984926175354
38.167224,6.217727960823289,0.08661580865438383
38.17182,6.229111618502315,0.08621311367110294
38.176412,6.237674788124251,0.08583809914537338
38.180992,6.246893022765544,0.08547259583325445
38.185592,6.2675153943493385,0.08500910814397912
38.19018,6.286749592628903,0.08458483587145392
38.19478,6.302263868403728,0.0841921924953701
38.199372,6.321742436111585,0.08375475040587191
38.20396,6.33868902663927,0.083374250405581
38.208552,6.355635617166956,0.08299482689790662
38.213148,6.372948761837079,0.08259345803673888
38.217752,6.38245550735529,0.0822697446524554
38.222348,6.396048729520677,0.08189615831966496
38.226936,6.407965267504913,0.08152913801179451
38.231532,6.415140263822618,0.08120348626328099
38.23612,6.42129364097853,0.08088988370398957
38.240708,6.424993084219789,0.08057695353251615
38.245296,6.436254557184669,0.08020845288020506
38.249892,6.447638214863694,0.07983421031563825
38.254484000000005,6.45758955778986,0.07945116988863858
38.25907599999999,6.468806889306111,0.07904267481353836
38.263668,6.485909566364833,0.07858141350967644
38.268256,6.503911677871201,0.07811835905887253
38.272856,6.5231797779676555,0.0776323820530731
38.277436,6.532964794731048,0.07722057638197347
38.282028,6.542094746475084,0.07680023527008828
38.286624,6.55122469821912,0.0763796789308276
38.291212,6.560599019391447,0.0759467810903138
38.295808,6.5716058832962965,0.07547045138337907
38.3004,6.584900354953023,0.07496266859972096
38.30499999999999,6.599993695505048,0.07444961407324696
38.309588000000005,6.6189291432759525,0.073905972257239
38.314176,6.639008394922799,0.07335015620873792
38.318772,6.652547236007818,0.07282972778016335
38.323352,6.667884945988132,0.07230392137532263
38.32794799999999,6.6861653287396825,0.07175689189742963
38.332528,6.708043449281822,0.0712008191995023
38.33712799999999,6.719539052043254,0.07070778303468941
38.341716000000005,6.730912470090541,0.0702228916583023
38.34631999999999,6.738321596204798,0.06977031824076738
38.350916,6.748795579804436,0.06929230368189251
38.355512,6.755671825613484,0.0688285701750882
38.360096,6.7600941375078785,0.06836051987695148
38.364692000000005,6.763617014954625,0.06789682533327396
38.369288,6.769060946010813,0.06742055955268081
38.373884,6.770784954562265,0.06695951165009764
38.378472,6.775207266456659,0.06649196888394558
38.383072,6.7801624586562665,0.06604312460935455
38.38766,6.78205279337049,0.06562155062288133
38.392248,6.7808782705993345,0.06522799979209533
38.39683599999999,6.780603182275827,0.06483421822902279
38.401432,6.7776297906093745,0.06444586227271319
38.406024,6.770692107009895,0.06408589921238754
38.410612,6.774014756476978,0.06368276402709772
38.415196,6.778481209820001,0.06326720400057678
38.419788,6.780127175105936,0.06286532966278802
38.42438,6.773311676220602,0.06249893023423001
38.42896399999999,6.774180391773033,0.06208973671940102
38.43355199999999,6.776070726487259,0.061673411190216465
38.43815599999999,6.781803168420366,0.06123649735409996
38.442748,6.781405895382713,0.0608492450145756
38.44733599999999,6.7806420682026225,0.060480503432352305
38.451932,6.7810661863471005,0.06013977627051665
38.45652,6.782267554225079,0.05980473315669943
38.461124,6.780648434045969,0.05947983173686061
38.465716,6.784792474695182,0.059126028205420185
38.47032,6.78431715839201,0.05878608676321598
38.474900000000005,6.784985645964778,0.05843370054699371
38.4795,6.785776318251693,0.05807340357690767
38.484088,6.788365859433904,0.05771085979494584
38.488692,6.786991108683085,0.057373012212278265
38.493272000000005,6.793300572370032,0.057001373998006304
38.49786399999999,6.80153108966642,0.05662064258106869
38.502452000000005,6.803099011686837,0.05626916882042603
38.507048,6.7987815881647835,0.055948776825667186
38.51164,6.794341979928583,0.05563393124910297
38.516228,6.796320597540064,0.05530361499586668
38.52082,6.798177030437399,0.05498202798963492
38.525408,6.794025933078119,0.05469594932748731
38.53,6.7907742701664855,0.05441025367007208
38.534588,6.791486899187883,0.05410179117774304
38.539176,6.79052284402813,0.0537871863383757
38.543768,6.789148093277312,0.0534479502419872
38.548356,6.783153985574108,0.053117568515903144
38.552944,6.779080931480347,0.05277774073036023
38.557532,6.768100912682321,0.05247297393708747
38.562124,6.76006356665553,0.05215218489172003
38.566716,6.746385244514561,0.0518464811515041
38.571304,6.731563118497652,0.05155176969905512
38.575884,6.713920504423656,0.0512640535400439
38.58049199999999,6.696400075063804,0.05096803841426468
38.585080000000005,6.669396562370892,0.05070052346258861
38.589668,6.6386731271732415,0.05043830031322227
38.594252,6.606928072813798,0.05018036368405465
38.59884,6.576082452902002,0.04991918010992127
38.603436,6.549201124923233,0.04963645534403903
38.60801599999999,6.517944809420372,0.049345926586529656
38.612612,6.477982660317951,0.04908679988517853
38.6172,6.441085368700912,0.04880451212578256
38.62179999999999,6.394582809036667,0.04855341064066381
38.626384,6.338719350753504,0.04831926097808587
38.630984,6.283755326917991,0.04808114121226809
38.63556799999999,6.225604260882949,0.04786645552303621
38.640164,6.167086640705471,0.04766941205817311
38.644760000000005,6.10448254388082,0.04749724358344994
38.649356,6.043921685379756,0.04730750285463925
38.653952,5.97837491578387,0.04714163249998397
38.65854399999999,5.9154042648167815,0.046979667882028425
38.663132,5.853333048297341,0.046815046540650856
38.667728,5.787419724559018,0.046660734444009894
38.672316,5.716764859154164,0.046516312233699515
38.67690399999999,5.646887243482812,0.04637460843951813
38.68149199999999,5.574966389487875,0.04624321924631867
38.686084,5.499203428274053,0.04612382917811289
38.690668,5.421519413450791,0.04600878804713247
38.695256,5.328344785037852,0.04595821489530386
38.699848,5.232760364158888,0.045945595350702535
38.704436,5.141917484946454,0.0459169508116623
38.709048,5.049275736838726,0.04588087244088138
38.713636,4.957533423178644,0.04584634847299112
38.71822399999999,4.872209335366245,0.0458025381431236
38.722816,4.784964193944402,0.045761095374603836
38.72740399999999,4.695797998913119,0.04572795638750359
38.73200799999999,4.603933500538893,0.0456954389939275
38.736604,4.5103923179835155,0.04565242484665586
38.741192,4.414563527676261,0.04564656314565002
38.745788000000005,4.319511987102508,0.0456524710041065
38.75037999999999,4.2188194704145765,0.045675799936616544
38.754972,4.115306465669557,0.04570541710448765
38.75955999999999,4.014491764267479,0.04573597959929614
38.76416,3.918174235103642,0.04576850429545186
38.768748,3.8205907173497193,0.04583652131356514
38.773352,3.72264064545336,0.04594880455126984
38.77794,3.630209364957033,0.04605571907417643
38.78254,3.5348354116894716,0.04619497439771105
38.787132,3.44702348814553,0.046319544830047375
38.79172799999999,3.3613769876393214,0.04641119637533813
38.796324,3.273809433523671,0.046513669740559475
38.800916,3.1828104677802034,0.0467103371158946
38.805508,3.096553043703266,0.04688321451798758
38.810104,3.0056762626739437,0.047071179911999446
38.814696,2.9117346241592403,0.047317421947878524
38.819288,2.82163509286342,0.04753751224269394
38.823876,2.7346004190529807,0.04771058553405978
38.82845999999999,2.650264048585485,0.04788996695312134
38.833052,2.5661720475462797,0.048051310786755196
38.837644,2.479381743164132,0.048232516126333565
38.84224,2.393613057943777,0.04841069627703556
38.84683199999999,2.3041244502186853,0.04863303125798185
38.851424,2.207318182198265,0.048915788183022106
38.85601199999999,2.103727134187727,0.049400513293655385
38.860608,1.9985815867101844,0.0499169472184621
38.865188,1.8968674508604595,0.05026569729145373
38.869776,1.7869362202677586,0.04788966683375253
38.874368,1.683789769665175,0.0454838352013301
38.87895999999999,1.5826865573861786,0.04306167487013055
38.883556,1.4832600292883324,0.04065540967786413
38.888152000000005,1.375127667590927,0.038248933477586455
38.89274,1.2714483366831326,0.03576999998694514
38.897348,1.1656035827376057,0.03330816681430624
38.901948,1.0650332507638203,0.03084268249179373
38.906552000000005,0.9683050260089174,0.028331776837223942
38.91114399999999,0.868258847231796,0.025839916322733553
38.91574,0.7715660368169746,0.023388127581232418
38.92032,0.6784709641927446,0.02093430070647698
38.92492,0.5898730638067538,0.018477693392914597
38.9295,0.5076933892684437,0.01599112300214034
38.9341,0.43091032141602065,0.01349840134469735
38.93869599999999,0.36234434830657397,0.010963929401362853
38.94328399999999,0.30379433883539936,0.008370545061818257
38.947876,0.253827978249638,0.005576228374939089
38.95246399999999,0.2101576587974117,0.0027249252645456666
38.957052,0.1688190885456919,0.0
38.96164399999999,0.13659704748459628,0.0
38.966232000000005,0.10503007144285717,0.0
38.97082,0.07603921402991597,0.0
38.975404,0.04884722551227044,0.0
38.980004,0.03395880838477535,0.0
38.98459199999999,0.021402140457786805,0.0
38.989188,0.012687579749681002,0.0
38.99378,0.004994638203368724,0.0
38.998368,0.0,0.0
39.002968,0.0,0.0
39.00756,0.0,0.0
39.012152,0.0,0.0
39.01674,0.0,0.0
39.02132,0.0,0.0
39.02592,0.0,0.0
39.030508,0.0,0.0
39.035112,0.0,0.0
39.039704,0.0,0.0
39.044304,0.0,0.0
39.048908,0.0,0.0
39.053496,0.0,0.0
39.0581,0.0,0.0
39.062692,0.0,0.0
39.067288000000005,0.0,0.0
39.071868,0.0,0.0
39.07646799999999,0.0,0.0
39.081056,0.0,0.0
39.08566,0.0,0.0
39.090244,0.0,0.0
39.094836,0.0,0.0
39.099416000000005,0.0,0.0
39.10400799999999,0.0,0.0
