Time,Force,Position
3.938544,3.810376436191495,0.1562462363507686
3.943132,3.847694663031338,0.1559281521651623
3.947728,3.876863598761984,0.1555308341174322
3.952316,3.8946962011839057,0.1551870526862098
3.956904,3.9009039594201846,0.1548535481947165
3.961492,3.8987621985676015,0.1545430122105464
3.966092,3.8875819517899135,0.1544045298701818
3.970671999999999,3.876890443868808,0.1542094657936544
3.9752519999999993,3.8648107626434713,0.1540939432413297
3.979847999999999,3.858005503389876,0.1538478968698299
3.984435999999999,3.854265101621661,0.1534866721916081
3.989028,3.847582027082212,0.1532260847984341
3.993623999999999,3.842209082581475,0.1529721165342547
3.998211999999999,3.831072977252415,0.1529075677194334
4.002808,3.823290240285654,0.1527728938384757
4.007395999999998,3.8227029789000766,0.1524419643840214
4.011999999999999,3.825591270590945,0.1520285108325791
4.016596,3.8309334961964647,0.1515697314976169
4.021179999999999,3.837585851840697,0.1511196633506426
4.025775999999999,3.844648903075996,0.1507048368254679
4.030367999999999,3.8523670193306505,0.150300003191402
4.034963999999999,3.8622947000716654,0.1498868308384758
4.039543999999999,3.871078576936743,0.1495272004299108
4.044139999999999,3.881661322697114,0.149118940891787
4.048727999999999,3.894820187086284,0.1486602486935964
4.053331999999999,3.908511931780665,0.1482235078422107
4.057915999999999,3.922980926208548,0.1477766826952274
4.062507999999999,3.934751617293488,0.1474011576975473
4.067087999999998,3.950120046169019,0.1469325042306782
4.071683999999999,3.963933975577545,0.1464864138750115
4.076272,3.975826851376631,0.1460999338965792
4.080867999999999,3.990784584661096,0.1456051368276796
4.085448,4.008274295125732,0.1449859219282298
4.090031999999999,4.0279294286281,0.1442788002308076
4.094624,4.04423119376817,0.1436351364617804
4.099219999999999,4.057834655565293,0.1430666901706717
4.103807999999999,4.068495444591185,0.1425928347314913
4.1084,4.0823432758166005,0.142013594868987
4.112995999999999,4.096024780879242,0.1413808270297571
4.117579999999999,4.109950655370176,0.1407274135935241
4.122171999999999,4.121300411232311,0.1401257717989819
4.126755999999999,4.125576876227409,0.1396705004717362
4.131343999999999,4.129975525936654,0.1392030581979435
4.135943999999999,4.13768340255957,0.1386171278187186
4.140531999999999,4.139628118354162,0.1381864611385962
4.145123999999999,4.141939388291191,0.1377199842377853
4.149719999999999,4.143717777923009,0.1372341340478953
4.154307999999999,4.145373982840681,0.1367594542345818
4.158899999999999,4.14739674190079,0.1362492412048355
4.163487999999999,4.150563304836839,0.1356969895165795
4.168083999999999,4.157694159705916,0.1350356687883785
4.172671999999999,4.163026145679698,0.1344133556303713
4.177268,4.16721432777754,0.1338380498922822
4.181856,4.171280325161237,0.1332766625082895
4.186459999999999,4.178044625887877,0.1326604557686589
4.191051999999999,4.184808926614517,0.1320457699412551
4.195651999999999,4.192839215931243,0.1313752057663388
4.200235999999999,4.19408472525785,0.1308825342222758
4.204827999999999,4.194719311013729,0.1304524669223979
4.209423999999999,4.191511789550725,0.13011649473377
4.214015999999999,4.188182083373576,0.1297917887581663
4.218615999999999,4.1921700374917545,0.1293106489214913
4.223215999999999,4.196035806895789,0.1288427452900981
4.227803999999999,4.195815099652648,0.1284977438306188
4.232399999999998,4.200458118790183,0.1280252420907256
4.236987999999998,4.2020362804423375,0.1276424967707159
4.241575999999999,4.205413310989788,0.1272258945702096
4.246163999999999,4.2095675912707415,0.1268034448221693
4.250755999999999,4.214743490713487,0.126356637692775
4.255348,4.216610163242562,0.1260219316833225
4.259936,4.21246930551502,0.1258502854786582
4.264531999999999,4.208328447787479,0.1256779496835418
4.269112,4.202266536450497,0.1255512254892951
4.273703999999999,4.1962046251135146,0.125423933505882
4.2783,4.190020529062386,0.1253085147057348
4.282888,4.183836433011258,0.125192510832529
4.287479999999999,4.175486913922398,0.1251458108793656
4.292067999999999,4.170979502052419,0.1250081630698629
4.296659999999999,4.164673221287146,0.1249037454029374
4.301243999999999,4.162453417169046,0.1246822057422493
4.305843999999999,4.162276851374533,0.1244026983646081
4.31044,4.159279797522931,0.1241863949323362
4.315028,4.154361690061887,0.1240145102538133
4.319619999999999,4.150343017048492,0.1238258262672066
4.324207999999999,4.147223778482744,0.1236215439801916
4.328804,4.147047212688233,0.1233441450645762
4.333392,4.146748462179574,0.1230804095800514
4.337992,4.145550277223268,0.1228320043400487
4.342583999999999,4.138999627029703,0.1227479110519085
4.34718,4.134614399873871,0.1225950706285592
4.351759999999999,4.134970714384569,0.1223370810308584
4.356356,4.135859909200478,0.122099292437176
4.360956,4.141246276254626,0.1217821579290939
4.365551999999999,4.146388273880484,0.1214899655484713
4.370144,4.14678872983981,0.1213006995880516
4.374735999999999,4.147844250818493,0.1211205003325136
4.379315999999999,4.1546629326255,0.1208100496612529
4.383899999999999,4.159560560823065,0.1205440671416719
4.388487999999999,4.169199730687161,0.1201770496302903
4.393071999999998,4.1806377694465535,0.1197873627013259
4.397663999999999,4.194651926834743,0.1193736632410153
4.402251999999999,4.209565518670581,0.1189477469282344
4.406835999999998,4.228321217725302,0.1184413108519436
4.411435999999998,4.24797635122767,0.1179234332581785
4.416015999999999,4.267753669444184,0.1174042148727775
4.420623999999998,4.284832684317755,0.116927961293121
4.425211999999998,4.298846841705945,0.1165274367504528
4.429823999999998,4.313105368522426,0.1161021127205215
4.434411999999998,4.330917491680872,0.1155487634712139
4.438999999999998,4.349629049286963,0.1149856346227881
4.443591999999999,4.363965619368962,0.114481226099441
4.448179999999999,4.379812547469337,0.1139080905709333
4.452772,4.393860606674414,0.1133700359093305
4.457351999999998,4.408030850593639,0.112821045003946
4.461951999999998,4.42820862476948,0.1121312164192
4.466539999999998,4.446954084192462,0.1114362463192814
4.471139999999998,4.461080186663059,0.1108282509505042
4.475724,4.474306854686007,0.1102295982670726
4.480324,4.483036350470717,0.1097002870595569
4.484912,4.484736696837017,0.1093302397470358
4.489503999999998,4.477198329298549,0.1091128002364882
4.494095999999999,4.4681054622930745,0.1088980388729699
4.498688,4.4565586613729495,0.1086980935704777
4.503288,4.445256229881116,0.1084748476711975
4.507879999999998,4.429989506456252,0.1083345789079471
4.512467999999998,4.419219955269629,0.1081310795996403
4.517064,4.410615827120737,0.1078686630111662
4.521652,4.402911133419495,0.1075930122700709
4.526243999999998,4.395861504737607,0.1073271599600113
4.530831999999998,4.38574701857034,0.1071308912494115
4.535419999999999,4.381029139088961,0.1068614154823681
4.540011999999999,4.375167455731641,0.1066261315327423
4.544587999999999,4.367751272907317,0.1063919133408088
4.549183999999999,4.361356709244787,0.1061349620992839
4.553768,4.354717776153966,0.1059006656532277
4.558363999999999,4.350410592263652,0.1056653575460827
4.562959999999999,4.34291636617381,0.1055063006026044
4.567547999999999,4.337221008979265,0.1053237978664125
4.572144,4.33512338957531,0.1050955269728633
4.576723999999999,4.336867877390239,0.1047970178266995
4.581307999999998,4.344008971891055,0.1044231075283952
4.585903999999999,4.351927316125373,0.1040490997778111
4.590496,4.362055224846052,0.1036870759586187
4.595099999999999,4.370917144976646,0.1033721794952906
4.599679999999999,4.380922868983179,0.1030211547665638
4.604279999999999,4.387208670484975,0.1027301846203676
4.608859999999998,4.393127917844335,0.102472881890869
4.61346,4.398924980489549,0.1022273701216991
4.618051999999999,4.402678804811175,0.1020270921071641
4.622643999999999,4.411418540227623,0.1017273342309651
4.627239999999999,4.414517299529893,0.1015171887116343
4.631831999999999,4.416472254956224,0.1013400769605267
4.636431999999999,4.418960090687766,0.1011849836250109
4.641024,4.420548491971659,0.1010416417404056
4.645612,4.421359643522051,0.100899453387739
4.650207999999999,4.420738480319583,0.1007465500474343
4.654795999999999,4.427268651249671,0.1004439151520174
4.659379999999999,4.436619310236848,0.1001025594411803
4.663967999999999,4.445070534776376,0.0997752521275269
4.668559999999999,4.4558093670677845,0.0993884732873046
4.673151999999998,4.467936372663423,0.098952042199454
4.677739999999998,4.478919574383121,0.0985462431602624
4.682331999999999,4.487326657474021,0.0981604956266632
4.686912,4.4932798066502695,0.0977806625214014
4.691503999999998,4.500132390274166,0.0973911854485369
4.696091999999998,4.506862789183917,0.0970107637355695
4.700679999999998,4.514981361397898,0.096579631475922
4.705276,4.526042606383114,0.0961032409760821
4.709864,4.537470405510766,0.0955939929882733
4.714452,4.546077716581331,0.0951287834567977
4.719035999999999,4.55762770042313,0.0946118423137832
4.723635999999999,4.572120357036163,0.0940481375689684
4.72824,4.588123371667574,0.0934269180090848
4.732819999999999,4.604248571013129,0.0927979464359364
4.737416,4.618330532035098,0.0922097930151263
4.742004,4.632168123628776,0.0916442659666957
4.746599999999999,4.643718107470575,0.0911450094476442
4.75118,4.6547352110071625,0.0906322557219103
4.75578,4.662154576753158,0.0901514548626868
4.760371999999999,4.666753454442065,0.089707771638099
4.764963999999997,4.669964158826742,0.0893137406611395
4.769551999999999,4.674318667087358,0.088891358036192
4.774143999999998,4.678018110328619,0.0884549029141858
4.778747999999998,4.683516422465174,0.0879997564247719
4.783343999999998,4.69093578821117,0.0875221877655516
4.787936,4.7006427617090445,0.0869902740731524
4.792527999999999,4.706751997416328,0.0864885196439057
4.797115999999997,4.709141310618874,0.0860298800591804
4.801708,4.713085123288425,0.08557713964393
4.806299999999999,4.716251686224473,0.0851217984533883
4.810895999999998,4.720562053036462,0.0846416029276751
4.815488,4.7233179203814455,0.0841588831475195
4.820064,4.72378617997455,0.083729999581553
4.82466,4.724909504587012,0.0833152157544967
4.829243999999997,4.72333452585653,0.0829169663680065
4.833836,4.721226666820838,0.0824955316050645
4.838423999999998,4.718585927479935,0.0820524103102521
4.843007999999999,4.711858711491857,0.0816743994734336
4.847616,4.708607048580224,0.0812790922513198
4.852203999999999,4.709852557906831,0.080854918080316
4.856788,4.70966575248058,0.0804128219304535
4.861383999999999,4.710622750930267,0.0799468071917073
4.865983999999999,4.712234814399313,0.0794919784403939
4.870575999999998,4.714746312316005,0.0790308384268156
4.875155999999999,4.712638453280312,0.078609053801055
4.8797479999999975,4.706688487025738,0.078228933475837
4.884335999999999,4.704214073847608,0.0778339141706694
4.888931999999999,4.701984030097768,0.0774182802453198
4.8935200000000005,4.699098921328574,0.0769899024008973
4.8981200000000005,4.693271139788143,0.0765942423944997
4.902711999999999,4.685644489352418,0.0762093875572301
4.907303999999998,4.678017838916693,0.0758240691513655
4.911887999999999,4.6724344268045535,0.0754087111594371
4.916479999999998,4.663497646330115,0.074993229231705
4.921083999999999,4.660201841969855,0.0745256871951501
4.925679999999998,4.654618429857717,0.074104264785088
4.930268,4.6477690291554925,0.0737164185912045
4.934863999999999,4.6398980092914766,0.0733401071228948
4.9394519999999975,4.629450870798662,0.072968370903221
4.944044,4.611563887296373,0.0726559159239947
4.948627999999998,4.597519011012967,0.072302062690276
4.95322,4.58347413472956,0.0719476701357856
4.957815999999999,4.5724941159315335,0.0715502041512051
4.962400000000001,4.561636281847655,0.0711424628682235
4.966996,4.553598935820864,0.0707092128133178
4.971579999999998,4.54928151229881,0.070247147528288
4.976176000000001,4.544186839043254,0.069780660934568
4.980763999999999,4.541668284416497,0.0693125731608135
4.985352000000001,4.539149729789739,0.0688449133532251
4.989944,4.542516520705451,0.0683143556517686
4.994531999999998,4.545516757478725,0.0678115114294537
4.999131999999998,4.547251005661916,0.0673411343484997
5.003724,4.547963634683312,0.0668856399712729
5.008311999999998,4.553173435942948,0.0664124955363713
5.012924,4.557605987469082,0.0659377231553043
5.017524,4.567024450090037,0.065408615570728
5.022115999999999,4.578608335748725,0.0648464462422031
5.0267040000000005,4.596199751664029,0.0642202512119423
5.031307999999997,4.618777078674156,0.0635469294358415
5.035895999999999,4.646095947350811,0.0628378588140084
5.040495999999999,4.669983404399649,0.0621983294525605
5.0450839999999975,4.691705438410756,0.0615956777261228
5.049683999999997,4.711506418812419,0.0610142371649154
5.05428,4.732084648947587,0.0604433831011951
5.058871999999999,4.754461747978049,0.0598733408496316
5.063456,4.776838847008512,0.0593091097516063
5.068052,4.800237565200767,0.0587387980395957
5.072639999999998,4.819916360888286,0.0581887278527184
5.077232,4.8394729718616585,0.0576501965449544
5.081823999999999,4.857763594244947,0.0571469356760178
5.086415999999998,4.881817377456559,0.0566131202411745
5.091004,4.908036583705904,0.0560523803186679
5.095599999999999,4.931435301898161,0.0555038567822742
5.1001879999999975,4.950214663138032,0.0549735644191048
5.10478,4.965929166892523,0.0544753750874429
5.109375999999999,4.9787009978757775,0.0540020906540209
5.1139600000000005,4.98738635221186,0.0535684873770459
5.118551999999999,4.991985229900767,0.053177454799865
5.123132,4.992375446228355,0.0528363209387825
5.127727999999999,4.991866228108294,0.0524972366457662
5.132315999999998,4.993766802454258,0.052113730231528
5.136895999999998,4.992969073457279,0.0517293870575703
5.141503999999999,4.990005921422567,0.0513714659616394
5.146084,4.986143334940206,0.0510150408840972
5.150671999999998,4.977417022077169,0.0506872046500273
5.155264000000001,4.96676965560469,0.0503687507297138
5.159839999999997,4.9528130622185405,0.0500941090584141
5.164443999999998,4.938612099404099,0.0498345219824159
5.169027999999999,4.922612267694362,0.0495740684907923
5.1736239999999984,4.900849275156302,0.049340230585084
5.178212,4.868459395409241,0.0491620778981812
5.182803999999999,4.8308392351390665,0.0490367205976168
5.187384,4.796039562925981,0.0488989330503897
5.191975999999999,4.765614878236989,0.0487667216256372
5.19656,4.735190193547996,0.0486324776268592
5.201151999999999,4.702722270535417,0.0485145556084958
