Time,Force,Position
5.604828,7.752427247564204,0.1489976336939217
5.609415999999998,7.826819331815601,0.1487796888529875
5.614012000000001,7.879516227162714,0.1485404210388117
5.618587999999997,7.91068425976832,0.1483033507539571
5.623195999999998,7.923554613280574,0.1480448213760149
5.627771999999998,7.920214667471688,0.1477625114213684
5.632371999999998,7.904594812457803,0.1474678941567464
5.636947999999999,7.888886674546658,0.1471031487841888
5.641547999999999,7.8744886666742255,0.1467416264687893
5.646127999999999,7.859646061393839,0.1464413451711962
5.650723999999999,7.85077708455318,0.1461192363097798
5.655312,7.85953024252304,0.1455946738196885
5.659903999999999,7.866117977455167,0.1451139965139682
5.664499999999999,7.869518670187768,0.1446940787974522
5.669084,7.87627273128267,0.1442448193324638
5.6736640000000005,7.881516434359194,0.1438426224154161
5.678247999999998,7.888358778351352,0.1434645383201267
5.682827999999999,7.903706727963406,0.1430038690438929
5.687416000000001,7.920897687919384,0.1425611075560194
5.691999999999998,7.93670047457113,0.1421588394506461
5.696588,7.955978814299323,0.1417231496744839
5.701171999999998,7.979265587409172,0.1412635220528833
5.70576,8.000675448358209,0.1408682910164339
5.710347999999998,8.027359731278985,0.1404198648536638
5.714951999999999,8.053433090629035,0.1400075021132782
5.719527999999999,8.081716014465444,0.1395963751077397
5.724116,8.112697241644797,0.1391569032622894
5.728707999999999,8.143800653538296,0.1387183065964724
5.7332959999999975,8.178257433794094,0.1382568299282694
5.737899999999998,8.222563851525392,0.1376619293756436
5.742479999999999,8.268136257846773,0.1370463909367089
5.747075999999998,8.307534807748766,0.1365003451750453
5.751664,8.34946533483093,0.1359018874984392
5.756264,8.393805654379115,0.1352549594621437
5.7608440000000005,8.438145973927302,0.1346152043815235
5.7654440000000005,8.480931794008484,0.1339837536586706
5.770035999999999,8.527926275450985,0.1332838815687986
5.774631999999999,8.570790138797687,0.1326157124551889
5.779207999999999,8.613487675981613,0.1319271296186454
5.783792,8.65422001810747,0.1312297448053479
5.788383999999999,8.695563283804054,0.1305124528897515
5.792975999999998,8.733919735280775,0.1298044946714708
5.797564,8.777095771689547,0.1290077389616014
5.802155999999998,8.81536394026901,0.1282433722954535
5.806735999999999,8.850523109914468,0.1274879215048324
5.811323999999997,8.881796030892415,0.1267500497355791
5.815903999999998,8.91278044099344,0.1259968629238778
5.820492,8.93951204828452,0.1252765144767764
5.8250759999999975,8.964156275803383,0.1245563140195102
5.829659999999999,8.975597497484447,0.1239791670742169
5.834235999999999,8.97984324358433,0.1234642800767799
5.838831999999998,8.983556109379002,0.1229401141599158
5.84342,8.983793422097227,0.1224419166660726
5.847996,8.983375669796095,0.1219410202240803
5.852592,8.978582929970871,0.1214720756174691
5.857183999999998,8.971091886802702,0.1210239141937353
5.861779999999998,8.963967397776972,0.1205594901164801
5.866363999999999,8.957331647607823,0.120071512477921
5.870963999999999,8.943378237143344,0.1196470575127615
5.875544,8.93187876059352,0.1192113509046613
5.880148,8.910407461854051,0.1188939609503234
5.884731999999998,8.8866485553627,0.1186130589752452
5.889324,8.857659368348243,0.118401754518101
5.893903999999997,8.830346865514928,0.1181799898963974
5.898496,8.806754285186356,0.1179223099329639
5.903096,8.779974662658253,0.1177080607192313
5.907696,8.750007997930627,0.1175368984806089
5.912276,8.7233947015653,0.1173470405661333
5.916867999999999,8.691306755248569,0.1172382200010608
5.921455999999997,8.664493230903577,0.1170922273245878
5.926052,8.645896801301562,0.1168746279471347
5.9306280000000005,8.628977055880698,0.1166476071484136
5.935228,8.613245255784403,0.1164345545264859
5.939815999999999,8.599845204888613,0.1162174421268415
5.9444040000000005,8.588899087907475,0.1159902366164458
5.949,8.586047880955169,0.115700804252738
5.9535800000000005,8.581564131270339,0.1154528873404936
5.958171999999999,8.579167761357727,0.1152134074900203
5.962767999999999,8.584621932045653,0.1149239363058051
5.967352,8.587910679695847,0.1146653602735843
5.971939999999998,8.602725749002689,0.1142914895447299
5.976532000000001,8.624736293890713,0.1138657023443491
5.981119999999999,8.648179153531595,0.1134429821957604
5.985715999999998,8.672932143211192,0.1130321512291684
5.990308000000001,8.700139066805441,0.1126177464726688
5.994911999999998,8.733764216247371,0.1121527073157815
5.999491999999998,8.769843299603954,0.111679814691715
6.004091999999998,8.801958091027506,0.1112511210716441
6.008667999999998,8.843800335212414,0.1107253168992983
6.013267999999998,8.88985124075864,0.1101518030621799
6.017856,8.931937854371837,0.1096261913589266
6.022456,8.976478401899687,0.1090998499779491
6.027047999999999,9.022040568589327,0.1085637486862161
6.031639999999998,9.064004997488382,0.1080556700095026
6.036228,9.109034283872814,0.1075179198662863
6.040819999999998,9.149444213304864,0.1070214509927211
6.045408,9.191120131326995,0.1065052675104873
6.049999999999999,9.231363734596268,0.1059882624291381
6.054587999999997,9.271441011702768,0.105451781967564
6.05918,9.31482751572294,0.1048748491660952
6.063767999999998,9.353716847504874,0.1043326779898485
6.06836,9.387942680885793,0.1037973508919767
6.072951999999999,9.421102753656292,0.1032415592048553
6.077527999999999,9.45037657775928,0.1026874130417671
6.082127999999999,9.472699295709372,0.1021669472759062
6.086715999999997,9.493589698906607,0.1016455484734272
6.091308,9.515335395102865,0.1010910096059475
6.095899999999999,9.539490883765149,0.1005005972805309
6.100484,9.559515754331624,0.0999258763715726
6.105095999999998,9.575287822088155,0.0993698020332198
6.109684,9.589994129234263,0.0987933438324079
6.114288,9.598770949389271,0.0982370556909055
6.118875999999998,9.608403062543305,0.0976480692075681
6.123464,9.61852391455392,0.0970390760720221
6.12806,9.62733463652582,0.0964235471987113
6.132651999999998,9.634835228459004,0.0957971243217762
6.137243999999997,9.64180294008698,0.0951621916018506
6.141823999999998,9.647216152247951,0.0945262772520935
6.146416,9.64662183415231,0.0939410865637067
6.151003999999999,9.63948710549484,0.0933950047661361
6.155603999999999,9.632718930979808,0.0928345558677573
6.160188,9.624806952588838,0.0922871766236362
6.164779999999999,9.617672223931365,0.0917394576614024
6.169359999999999,9.613235798616838,0.0911783379646913
6.173951999999998,9.612641480521196,0.0905895415939253
6.178551999999998,9.608571609349106,0.090011795345067
6.183144,9.598616392634549,0.0894763156117486
6.187723999999998,9.588783360634132,0.0889361395317787
6.192307999999999,9.57870595920543,0.0884060262788831
6.196896000000001,9.568262003634288,0.0878898929337993
6.201488,9.55655205947306,0.0873901845942034
6.206087999999999,9.546763168921274,0.08687643568503
6.210668,9.532354921417104,0.0863848632357181
6.215259999999999,9.515004001141698,0.0859118512098396
6.219844,9.490623931447884,0.0854913971324102
6.224435999999999,9.463301188982836,0.0850885791979257
6.229035999999999,9.43507901207014,0.0846877319043932
6.233611999999999,9.403547608243771,0.084319445742347
6.238224000000001,9.375325431331076,0.0839132868734808
6.242811999999999,9.353765849694351,0.0834659990745951
6.247411999999999,9.327997606696307,0.08305532005592
6.252003999999998,9.300963375108177,0.0826607645485318
6.256607999999998,9.275972381843632,0.0822484121320065
6.2612000000000005,9.250859203864945,0.0818401474812071
6.265791999999999,9.22370278756267,0.081446722968494
6.270383999999998,9.197856501299109,0.0810646250458633
6.274963999999999,9.17830625616908,0.0806585419301118
6.279555999999998,9.153647915230083,0.0802912169096609
6.284135999999998,9.128745204862796,0.079932991456122
6.288735999999998,9.104619744229016,0.0795755907577318
6.29332,9.086668140014622,0.0792013639653904
6.29792,9.068105612229498,0.0788508380122305
6.302503999999997,9.055883267026536,0.0785106549266022
6.307096,9.05085639740476,0.0781469272077075
6.311696,9.054823872259462,0.0777536121341391
6.316291999999999,9.067663506876498,0.0773372164356442
6.320887999999998,9.082712705979894,0.076933640314113
6.325487999999998,9.108144422863996,0.076481506620241
6.330080000000001,9.13644076925382,0.0760506180123882
6.334671999999999,9.16244950789176,0.0756474322810839
6.339259999999998,9.194221407358029,0.075214735637962
6.343848,9.232778086814411,0.0747473858111485
6.348435999999998,9.26904715851892,0.0743069501225513
6.353039999999998,9.30519404550928,0.0738735039245889
6.357632000000001,9.347392604204884,0.0734360092134072
6.362219999999999,9.390612782062282,0.0729926952211762
6.366811999999998,9.435098948509768,0.0725384802000556
6.3714,9.48829094855681,0.0720418073324108
6.375983999999997,9.54262675247979,0.0715373071064916
6.380571999999999,9.597984175564564,0.0710294871367469
6.385156,9.6488444264111,0.0705369986841272
6.389756,9.702769534743014,0.0700268693650933
6.394339999999998,9.75370782885507,0.0695065010069537
6.398943999999998,9.80014895072888,0.0690010996480062
6.403535999999997,9.83976115116395,0.0685002192400995
6.408123999999999,9.873199495179628,0.0680120199155084
6.412719999999998,9.904183905280656,0.0675225643938373
6.417299999999999,9.930548958429297,0.067052367711589
6.421899999999999,9.955726066253373,0.0665667278600635
6.426487999999997,9.983068597115178,0.0660668398892461
6.431087999999997,10.010411127976983,0.065571152642119
6.435663999999997,10.03468880135341,0.0650978257308135
6.440263999999997,10.064974004986452,0.0645971867969462
6.444856,10.096403012495434,0.0640887637610107
6.449439999999997,10.12010366411802,0.0635824530977265
6.454032,10.14879022683543,0.063056388386088
6.458623999999999,10.16901532538157,0.0625557748364855
6.463227999999999,10.183599447813537,0.0620740620877938
6.467823999999999,10.19331984386482,0.0616111597440079
6.472412,10.199442502125516,0.0611531763431154
6.477008,10.207852768138087,0.0606767514604631
6.481591999999997,10.213809100236013,0.0601966492865245
6.486188,10.217966563438637,0.0597187913129542
6.490775999999999,10.223145645803054,0.0592360634278981
6.495367999999997,10.231800281243922,0.0587528067136345
6.499955999999999,10.241476535846578,0.0582640779340447
6.504543999999997,10.251397159877529,0.0577671574765029
6.50914,10.258863849993828,0.0572650959989071
6.513727999999999,10.263265682624745,0.0567787375927629
6.518319999999997,10.265990831074514,0.0562915485938823
6.522907999999999,10.262053384248308,0.0558214179695545
6.5274959999999975,10.254518199631512,0.0553535594488278
6.5320920000000005,10.23725556225336,0.0549176836989095
6.536675999999998,10.21333032959924,0.0544967175194754
6.541279999999999,10.18891635808854,0.0540894116685807
6.545875999999998,10.153875499368835,0.0537126929644621
6.550464,10.126030116230313,0.0533296821886142
6.555068,10.097818178949352,0.0529575948245086
6.559668,10.07344834888728,0.0525732103622962
6.564259999999999,10.048834149396914,0.052194889980304
6.56884,10.018090234935784,0.0518427856642744
6.57344,9.984037093560987,0.0515109093768812
6.578027999999998,9.948595778881955,0.0511942678811196
6.582623999999997,9.9099674220034,0.050894046041169
6.587207999999999,9.86725258847767,0.0506104322210839
6.591807999999999,9.822127962485917,0.0503469123403222
6.596392,9.772550305704549,0.0501122110307937
