Time,Force,Position
11.287468,7.989784120687952,0.1569502430284817
11.292056,8.04246053677159,0.1564022592965163
11.296644,8.083257499609552,0.1557638768492045
11.301236,8.112629846241536,0.1550855817435577
11.305824,8.130377348687876,0.1544234353544564
11.31042,8.137732093721768,0.1538189130074621
11.314996,8.139035167050414,0.1532887316591478
11.319596,8.13649613316018,0.1528197022710936
11.324172,8.136244707021822,0.1523030086136841
11.328776,8.142900245587729,0.1516741872788099
11.333368,8.148123469400776,0.1510482910484614
11.337964,8.144885229042554,0.1505458666017545
11.342544,8.140503184808397,0.1500679211880595
11.347136,8.133955717536503,0.1496326168645056
11.351736,8.128718380303326,0.1492016874392347
11.356328,8.127978215308385,0.14871637524878
11.360912,8.124051008113918,0.1482911636641398
11.365508,8.12858526509072,0.1477486244098628
11.370096,8.136350705715676,0.1471807923487572
11.374688,8.145181906951056,0.1466318923170774
11.379272,8.158920976015738,0.1460443527644767
11.383864,8.178056651766306,0.145394064815834
11.388448,8.198380272841442,0.1447611933594721
11.393036,8.220014023955292,0.1441347745948441
11.397628,8.241036851498412,0.1435430634024682
11.402216,8.261570940184953,0.1429791792742774
11.406808,8.285336212519645,0.14239749596845
11.411404,8.312699222644929,0.1417772256882634
11.415988,8.334054702513598,0.1412512740225055
11.420592,8.349280467411507,0.1408271157379119
11.42518,8.36961432811838,0.1403254927782135
11.42978,8.398654022424816,0.1397064067417507
11.434364,8.429614770340692,0.1390636323747896
11.438952,8.459431714380628,0.1384414454981978
11.443548,8.486428170363476,0.1378554497436217
11.448124,8.512280822470384,0.137298498572675
11.452724,8.540831777920237,0.1367154570188321
11.457312,8.564396822275267,0.1362093597925206
11.461912,8.587839681916149,0.1357106669682811
11.466496,8.61189346512776,0.1351844270248588
11.471096,8.634759303014807,0.1346497102306789
11.47568,8.652350718930109,0.134165513561729
11.480276,8.66581151674961,0.1337100893526837
11.48486,8.679105988406338,0.1332290809602946
11.489456,8.690845960596063,0.1327534370533948
11.494044,8.702952486928222,0.1322606713724669
11.498636,8.713626698507523,0.131771210440727
11.50322,8.722624225905674,0.1312954847305747
11.507808,8.737096403255231,0.1307295623231766
11.512384,8.756021611394399,0.1300894556812821
11.516968,8.769183658705243,0.1295215983035423
11.52156,8.77502804572076,0.1290290521460212
11.52614,8.776375260498035,0.1285769587304502
11.530724,8.779355018007829,0.1280803084447267
11.535308,8.7856440024313,0.1275298107329964
11.539896,8.787025119025465,0.1270046258511207
11.5445,8.786318855847412,0.1264757146130204
11.549088,8.782503593735354,0.1259529094938175
11.553676,8.78134249351761,0.1253745575709687
11.558268,8.779404143566364,0.1247997718782385
11.562852,8.776321989739177,0.1242446903711326
11.567456,8.774505824502079,0.1236623017836858
11.572036,8.774977267016858,0.1230409065734531
11.576632,8.774549275083986,0.122427777729718
11.58122,8.776531075617143,0.1217702201914705
11.585816,8.776058942235643,0.1211228741119422
11.5904,8.770190202168259,0.1205190794364466
11.595,8.760845909024427,0.1199376756864008
11.599584,8.74778169337586,0.1193919474759099
11.604176,8.72883213218482,0.118912429025709
11.608764,8.708328071526775,0.118433347778386
11.61336,8.689745064478172,0.1179316734494338
11.617948,8.676147968524393,0.1173683766433472
11.622532,8.661651438122965,0.1168107381794292
11.627112,8.645478223540389,0.1162612834620658
11.631704,8.62983788926302,0.115718769129293
11.636292,8.611787762519628,0.1152177553609151
11.640884,8.59925642717627,0.1146659967489893
11.64548,8.581616996023945,0.1141781079357849
11.65006,8.55886946906265,0.1137524968668363
11.654652,8.533301454044265,0.1133517687750304
11.659232,8.509943003512245,0.1129519597318103
11.663824,8.484952010247701,0.1125927865114129
11.66842,8.461637701164307,0.1122242515239386
11.673008,8.43759028379604,0.1118893862633288
11.677592,8.417673484523574,0.1115371502768591
11.682188,8.402908922508702,0.1111548771181854
11.686776,8.393296597751428,0.1107434849192291
11.691368,8.385116587747014,0.110335602945574
11.69596,8.38053431553319,0.1098999715950824
11.700552,8.379061042253376,0.1094599664386431
11.705132,8.379020083726424,0.1090249115746512
11.709728,8.379267636076387,0.1086144883198078
11.71432,8.383645806522152,0.1081909354114373
11.71892,8.391010791187783,0.1077731767450926
11.723512,8.406592870596388,0.1072971321334339
11.728104,8.427815926119173,0.1067746413553276
11.732688,8.453291784451904,0.106241205795246
11.737284,8.482121011146937,0.1056954143495104
11.74188,8.516469029242005,0.1051066546071336
11.746476,8.557890338204105,0.1044785133888554
11.751072,8.600866146633212,0.1038558262851356
11.755664,8.646662443119409,0.1032137136952504
11.760252,8.69004894713958,0.1026136847993682
11.764848,8.735356504769195,0.1020011137663655
11.769432,8.776821955179926,0.1014243228731642
11.774028,8.81816522087651,0.1008571647055638
11.778612,8.857709617677799,0.1003052935939457
11.783188,8.895210776155501,0.0997756306473752
11.787772,8.93361136908085,0.0992438256499606
11.79236,8.97597625393923,0.0986797633893091
11.796952,9.017686073778249,0.098113583477464
11.80154,9.060661882207356,0.0975331316080916
11.806128,9.098773964255786,0.0969967316401261
11.810724,9.132266689351832,0.0964930940794392
11.815312,9.158197384724255,0.0960495126706591
11.8199,9.18220702648724,0.0956251051095466
11.824496,9.199554072974257,0.0952536788914114
11.829088,9.217267673603704,0.0948685496217903
11.833692,9.23624726282324,0.0944660232310157
11.838272,9.24917518033753,0.0940867038905566
11.842868,9.256950860594223,0.0937247984648805
11.847456,9.259862814470242,0.0934008181417835
11.852052,9.266083995259931,0.0930385795944757
11.856636,9.269484687992533,0.0926955699989232
11.861236,9.27774910710581,0.092316349430014
11.86582,9.285236276485588,0.0919373924939689
11.870412,9.29554393392245,0.0915427364384959
11.87502,9.31071531773999,0.0911132227700107
11.879612,9.326908320719328,0.0906772542537641
11.8842,9.339503585908073,0.0902607338294504
11.888792,9.353897719992109,0.0898384195432495
11.89338,9.361629258800177,0.0894590591025575
11.897976,9.374468893417207,0.0890366539221491
11.902552,9.38857451662433,0.0885950122460003
11.907152,9.403823943707389,0.0881389452937651
11.911736,9.417396686609294,0.0876867698308257
11.916316,9.428393310882408,0.0872392461999137
11.920908,9.440411554317311,0.0867857393865967
11.925492,9.45140817859042,0.0863435569399686
11.930088,9.464081487044682,0.0858982190970465
11.934676,9.482273586898977,0.0854275638370063
11.939264,9.50299766393344,0.0849193772769808
11.94386,9.520534698768376,0.0844433674459932
11.948448,9.539459906907544,0.0839452735021731
11.953036,9.555931181132058,0.083451203040464
11.957628,9.573668443946657,0.0829413828416605
11.962228,9.588707403418312,0.0824445486140308
11.966824,9.599249190651728,0.081965677595455
11.971416,9.60517162093276,0.0815079864001985
11.976008,9.609295182318498,0.0810565322049149
11.980588,9.609576636485352,0.0806276182036642
11.985188,9.613700197871088,0.0801756657311332
11.989764,9.61512545591388,0.0797349430338174
11.994364,9.621292255623205,0.0792721394199372
11.998948,9.62770342476082,0.0787998528729766
12.00354,9.633992409184287,0.0783322035818042
12.008132,9.645022935274287,0.0778402575797299
12.012724,9.652211354145404,0.0773700825296001
12.017312,9.65862252328302,0.076899425703828
12.021908,9.665933126868282,0.0764263447594248
12.026488,9.669645992662955,0.0759656795810029
12.031072,9.674913357924632,0.0755101058664887
12.03566,9.68295706979477,0.0750132312232564
12.040252,9.691533661970116,0.0745293877830738
12.044848,9.699988069431315,0.0740514856404049
12.049436,9.70615486914064,0.0735977573949507
12.054028,9.70962336550702,0.0731505805163089
12.05862,9.716811784378136,0.0726904752145039
12.063212,9.728741744915784,0.072210435075671
12.0678,9.74271494377702,0.0717172669874791
12.07238,9.75987518483778,0.0712000601078418
12.076984,9.777157610612685,0.0706798769036869
12.081572,9.793540601939949,0.0701629933830951
12.08616,9.804404801867172,0.0696654748712054
12.090756,9.81911110901328,0.0691537314026165
12.095344,9.837781708092418,0.0686234177314217
12.09994,9.856818861313991,0.0680826703071597
12.104536,9.87712200312565,0.0675268269416953
12.109136,9.895626276042016,0.0669752992559066
12.113724,9.919238644767349,0.066397869565035
12.118316,9.942195948473325,0.0658136347457744
12.122904,9.963476567998146,0.0652300564966936
12.127496,9.98414626395224,0.0646720495281775
12.132084,10.00608194849642,0.0641028011464665
12.136684,10.029938686650045,0.0635296074625944
12.141272,10.056205217269689,0.0629338880498938
12.145864,10.086191670394072,0.0623294289837367
12.150468,10.113357635461366,0.0617359290750555
12.15506,10.138846916347513,0.0611441261303186
12.159648,10.164869077538867,0.0605665205594124
12.16424,10.19154630374958,0.0600000665597644
12.168816,10.22104401801738,0.0594300689459204
12.173412,10.250419547571031,0.0588653321214259
12.177988,10.281471761305838,0.0583038667509277
12.18258,10.30753806394582,0.0577668224868702
12.187172,10.329884444081069,0.05724070642462
12.191748,10.350964835626227,0.056730406549368
12.196348,10.372944661619036,0.0562209021313671
12.200932,10.399421659850086,0.0557099518353939
12.20552,10.415393955586278,0.0552289540683174
12.210116,10.430877512465887,0.0547640151405447
12.214704,10.446116699917209,0.0543076963989292
12.219296,10.453793857644907,0.0538669339028511
12.223884,10.455707854544285,0.0534420430525358
12.228468,10.4489160178441,0.053041221587275
12.233072,10.436238835601449,0.0526586948511146
12.237664,10.417798492530473,0.0522898916575418
12.242268,10.396537661402403,0.0519245934119935
12.246848,10.367226061694137,0.0515888767101131
12.251444,10.331496236138184,0.0512578143757082
12.256032,10.28754931583926,0.0509314086851215
12.260628,10.230155020274244,0.0506355375225577
12.265216,10.166875379166758,0.0503551065492652
12.269816,10.095911523621508,0.0500905133466111
12.2744,10.019184507247934,0.0498366619472973
