Time,Force,Position
6.345124000000002,8.36813636343552,0.1514124225633376
6.349720000000001,8.555114531040655,0.1510237179786269
6.354308,8.717288510807496,0.1506543735602021
6.358908000000003,8.857190279916216,0.1502204072225598
6.363488,8.97722963083284,0.149671056396104
6.368088000000004,9.072831348053608,0.1491075944470513
6.372679999999999,9.147104430512533,0.1485159549724969
6.377275999999998,9.194163532667142,0.1479824292105246
6.381864000000004,9.211765188214184,0.1475831076075472
6.386455999999999,9.208537187487703,0.1472234965258866
6.391044000000004,9.188864757643534,0.1469558413451997
6.395632000000003,9.165462165662884,0.146631450445481
6.400220000000001,9.135308695509009,0.1463289011596904
6.404804000000002,9.108175941391885,0.1459453117575996
6.4093960000000045,9.074580819978449,0.145602823471188
6.413992000000004,9.0381210690593,0.1452630709417919
6.418580000000002,8.996631265596701,0.1449623212861017
6.4231720000000045,8.95538583156239,0.1446480045522684
6.427764,8.9110755400427,0.144379593486384
6.432344000000004,8.863578206323485,0.144162491007264
6.436935999999999,8.819145730089648,0.1438953383945031
6.441523999999998,8.773202895837436,0.1436677969462588
6.446116,8.72791512660458,0.1434400135001287
6.450708000000002,8.684348183001504,0.1432290817013972
6.455296000000001,8.641358261152266,0.1430558055191819
6.459883999999999,8.600211349646951,0.1428945972835384
6.464476000000001,8.558742025447827,0.1427833147320435
6.469068000000004,8.525656122154453,0.1426029099376325
6.473672000000004,8.498377521138034,0.1423780035849863
6.478263999999999,8.475640233808479,0.1421359830489365
6.482856000000002,8.460142563508736,0.1418475945105611
6.487435999999999,8.444322480515185,0.1416103479608228
6.492036000000002,8.42997885372312,0.1414049069330736
6.496616,8.4144133797896,0.1412608062178273
6.501216000000003,8.410296184247208,0.1410032957448301
6.505800000000004,8.414029529305358,0.1406720458450813
6.510392,8.419972438849868,0.1403362566984863
6.514979999999998,8.431844835385476,0.139953912507728
6.519576000000004,8.451034892216411,0.1394914849965066
6.524176000000001,8.476398805466735,0.1389718897445467
6.528772,8.501029610432187,0.1384909304879379
6.533348,8.532855890978821,0.1379368500714897
6.537935999999998,8.56791335517361,0.1373681928933269
6.542524000000004,8.603992438530193,0.1367869226098477
6.547124,8.64019370660092,0.1362032240850077
6.551708000000001,8.678971093300445,0.135599115454833
6.556300000000004,8.722734391094793,0.1349290810382168
6.560896000000003,8.767519308050938,0.1342556765042004
6.565484000000001,8.814469648044811,0.1335520299457171
6.570076000000004,8.865628649400003,0.132795369969448
6.574667999999999,8.913556467107043,0.1320574546628107
6.579256000000004,8.96544857674711,0.1312725712119654
6.583844000000003,9.01782942524376,0.1304660841937347
6.588432000000001,9.069921762863492,0.1296397576578642
6.593039999999999,9.11175376741666,0.1289316645325656
6.597628000000004,9.149210784445732,0.1282644285355736
6.602219999999999,9.189199778654976,0.1275519861543082
6.606804,9.220438797816032,0.1269090548894078
6.611391999999999,9.247180644738853,0.1263111641846555
6.615987999999998,9.269791873565866,0.1257399034374999
6.620576000000003,9.291215157068311,0.1251559176320064
6.625172000000003,9.308874376617396,0.1245808324113716
6.629760000000001,9.323546781946616,0.1240110972872674
6.6343600000000045,9.337930676398916,0.1234234971977346
6.638948000000003,9.349327756631354,0.1228382132043215
6.643547999999999,9.359536891539223,0.122241239152994
6.6481400000000015,9.365493223637143,0.121671889363224
6.652736000000001,9.363354645706233,0.1211679074955083
6.657315999999998,9.356963264965376,0.1206887936761516
6.661908,9.343254223929192,0.1202725097008559
6.666495999999999,9.33363165954018,0.1198063187191972
6.671091999999998,9.320000661769512,0.1193531700188205
6.675680000000003,9.30505953396013,0.1188910456006555
6.680268000000002,9.289341156417244,0.1184289766063174
6.684856,9.275255321606885,0.1179254957428431
6.689443999999998,9.2634570945484,0.1173866988012017
6.6940360000000005,9.24397465305215,0.1169214244755046
6.698628000000003,9.232831491013023,0.1163838084804364
6.703212000000004,9.22103326395454,0.1158406854311782
6.707800000000002,9.207558352714909,0.115303558833995
6.712391999999998,9.194083441475277,0.1147646153170204
6.716975999999999,9.180241976093203,0.1142410237808727
6.721564000000004,9.166278325996986,0.1137218770089085
6.726160000000004,9.149372003129535,0.1132314041229822
6.730748000000002,9.133897995014944,0.1127425782100158
6.735352000000002,9.119734116939064,0.1122625435643125
6.739943999999998,9.10418206555895,0.111808518156806
6.744544000000001,9.092105567255285,0.111332261892847
6.749136000000004,9.08338243731392,0.1108408768842107
6.753727999999999,9.075192187677766,0.1103576100411879
6.758323999999998,9.062138211660937,0.109921667554326
6.762912000000004,9.050638735111107,0.1094833411211585
6.767508000000003,9.041348823047642,0.1090480028789855
6.772096000000001,9.03361341045118,0.1086107033191933
6.776695999999998,9.025267074283994,0.1081992669610011
6.781288,9.013855880631423,0.1078217996253733
6.785880000000002,9.00874072811239,0.1074007571650539
6.790464000000004,8.998517479784388,0.1070371404194625
6.795060000000003,8.990625980656892,0.1066717840867723
6.799651999999998,8.986865099625199,0.1062933397854504
6.804247999999998,8.98633540224166,0.1059083378831547
6.808844000000004,8.986460769877478,0.1055284264786932
6.8134440000000005,8.987241202532651,0.1051537689458335
6.818036000000003,8.991130634121838,0.1047777802972964
6.822627999999998,8.997473999625674,0.1043967598316094
6.827216000000004,8.99932019289127,0.1040429504491536
6.831804000000002,9.0074624272904,0.1036510806738464
6.836392,9.01625972670889,0.103264599104447
6.8409960000000005,9.023791037537292,0.1029008019342351
6.845592,9.037085509194018,0.1024903238089555
6.850187999999999,9.054388414232402,0.1020746133659636
6.854783999999999,9.070180961252412,0.1016914460645362
6.859364000000003,9.08675075800592,0.1013107138364417
6.863963999999999,9.106018858102376,0.1009169807684953
6.868552000000005,9.132971172636594,0.1004651070637137
6.873144,9.164176289980762,0.1000006897058891
6.877731999999998,9.198324080096166,0.0995164958602401
6.882320000000004,9.239378834915833,0.0989765657823628
6.886916000000003,9.281333024183144,0.098436370718816
6.891496,9.31956729094572,0.0979224953000403
6.896083999999998,9.359844796031885,0.0973953823903921
6.900679999999998,9.404208777765218,0.0968353380544864
6.905268000000003,9.447428955622616,0.0962910444991641
6.909872000000004,9.4911378723366,0.0957305066145513
6.914463999999999,9.533292289583574,0.0951727569358237
6.919064000000002,9.584030355715964,0.0945591044046596
6.923655999999998,9.631659422914346,0.0939495603381888
6.928248,9.683619336188194,0.0932998600040745
6.932835999999998,9.738766291661566,0.0926232583847058
6.937431999999998,9.789293890182552,0.0919786069208093
6.942015999999999,9.837079043911968,0.0913192080347827
6.9466,9.890338847592789,0.0906068434556572
6.951187999999998,9.940367467625457,0.0898989830935292
6.955772,9.987942153743468,0.0891990208954645
6.960356000000001,10.027055375690216,0.0885533558110443
6.964940000000002,10.058195872322276,0.0879364342673976
6.969528,10.081896523944865,0.0873608471684106
6.974120000000003,10.095214657786745,0.0868455156403399
6.9787,10.105301607980469,0.0863317720368327
6.983280000000004,10.11677673147842,0.0857952026159426
6.987868000000002,10.123221802432926,0.0852680550058097
6.9924440000000025,10.121327593930308,0.084781729881024
6.997028000000004,10.12028867842671,0.0842623403240292
7.001628,10.118594697903758,0.0837382347317256
7.0062159999999984,10.1153462179138,0.0832110926062144
7.010819999999999,10.1068233159521,0.082700951463223
7.015408000000004,10.094336122057369,0.0822157612919826
7.019991999999999,10.07261021425787,0.0817698589357083
7.024595999999999,10.045732069200776,0.0813322032737937
7.029184000000004,10.016155620800738,0.0809012542696109
7.033787999999998,9.988011487153557,0.0804765422228685
7.038363999999998,9.950139900745024,0.080106947078671
7.042964000000001,9.913289933498286,0.0797275233123476
7.047548000000003,9.871942794013307,0.0793595573249142
7.052147999999999,9.832638892851916,0.0789743954186156
7.056736000000004,9.79909815251885,0.078555673573579
7.061336000000001,9.77017676913817,0.0781166961522834
7.065915999999998,9.747018546585814,0.0776445811259265
7.070512000000004,9.725537008214603,0.0771703055479542
7.075112000000001,9.703566730986816,0.0767134271329642
7.079699999999999,9.68225151877838,0.0762614704847443
7.0843000000000025,9.663512425198746,0.0758034113038139
7.088891999999998,9.64404022333424,0.075372172765241
7.093480000000003,9.622158229003704,0.0749681358020131
7.098071999999998,9.601830734140174,0.0745671603864974
7.102660000000004,9.57909344681062,0.0741925616612518
7.107256000000003,9.561097701147595,0.0737950784118604
7.111832000000003,9.550952496085117,0.0733841129122068
7.116432,9.541873051633052,0.072995029553793
7.121024000000002,9.537290779419228,0.0725933355990788
7.125600000000002,9.53258632249126,0.0721965599179907
7.1301920000000045,9.536587699162853,0.0717554334225302
7.134780000000003,9.543942444196745,0.0713165510947477
7.139364000000004,9.559392099259467,0.070859002150904
7.143964,9.573697950446247,0.0704127744282143
7.148551999999999,9.59160153942362,0.0699619120086274
7.153155999999999,9.611670551438728,0.0694970561940246
7.15774,9.635581670672716,0.0690195330014876
7.162327999999999,9.65937060519256,0.0685484002042847
7.166923999999998,9.68544714746428,0.0680572896202569
7.171499999999998,9.71025770114592,0.0675816360344776
7.176092000000001,9.74083141565588,0.067084998749908
7.180671999999998,9.774469987651225,0.0665721598237836
7.185272000000001,9.812072851579591,0.0660412209847392
7.189851999999998,9.849675715507964,0.0655126398095734
7.194452000000002,9.894063359426449,0.0649581163687292
7.199044000000004,9.94229311056382,0.0643958663614606
7.203636,9.987946743072394,0.0638378723791819
7.208228000000002,10.03690960249464,0.0632566948379589
7.212820000000004,10.08791570024047,0.0626698139533969
7.217408000000002,10.143008274633477,0.0620662008040708
7.222004000000002,10.196712675722251,0.0614876849141913
7.226592,10.245919904572787,0.0609187510178517
7.231184000000002,10.29050777647094,0.0603645176272346
7.235772000000001,10.340858809197412,0.0597947357275763
7.240364000000003,10.39031040747624,0.059233637037056
7.244952000000001,10.438740386593272,0.0586842936260116
7.249548000000001,10.483083889063131,0.0581603046939725
7.254140000000003,10.530125694875936,0.0576374668333989
7.258728000000001,10.573980458489212,0.0571355405361752
7.263324000000001,10.620900079587871,0.05662046969861
7.267911999999999,10.659358236515262,0.056126843964559
7.272496,10.692053232614327,0.0556508704641974
7.277092,10.7229493598181,0.0551793103021139
7.281679999999998,10.752046618126572,0.0547099549956769
7.286276000000004,10.774359096444927,0.0542631752011768
7.290859999999999,10.786821937287783,0.0538516546009734
7.295460000000002,10.797608093949494,0.0534375068651559
7.300056000000001,10.802631089782876,0.053038689214658
7.304652000000001,10.797804448140765,0.0526719097610349
7.309248,10.784394157613235,0.0523250328160187
7.313840000000003,10.763788391504526,0.0519800607354402
7.318436000000002,10.741139387072227,0.051641873787813
7.323015999999999,10.715669894582842,0.0513069060319478
7.3276119999999985,10.681616753208043,0.0509899779821307
7.332192000000003,10.6375917896436,0.0507067041055907
7.336791999999999,10.580774515832426,0.0504608672521416
7.341376,10.518560635335362,0.0502136539317899
7.345968000000003,10.445064802609942,0.0499829692850228
7.350556000000001,10.37079172015102,0.0497454918493121
7.355148000000003,10.28859005382604,0.0495314943937901
7.359732000000005,10.205899648644476,0.0493312597077643
