Time,Force,Position
10.880692,7.258819634688525,0.1518106304649817
10.885296,7.332447891759832,0.1511893825842805
10.889896,7.393629913463365,0.1505467497746504
10.894488,7.440244418210018,0.1499806658794763
10.899088,7.481418174822159,0.1494571409421503
10.903676,7.515352314404488,0.1489997334092257
10.908264,7.547687813071184,0.1485161225955061
10.912852,7.581944365347323,0.1480000653522169
10.917448,7.608550605002585,0.147531848736664
10.92204,7.631593008684141,0.1470322441945445
10.926631999999998,7.650094098678832,0.1465580479733289
10.931228,7.659678887462562,0.1461568391784739
10.935807999999998,7.659614266750456,0.145873301176377
10.9404,7.659261135161431,0.1455662705679061
10.944988,7.655510493761477,0.1452545002998833
10.949576,7.649794657303454,0.1449357426689234
10.954172,7.643257429663301,0.1445839597176158
10.958759999999998,7.639129994489171,0.1441741796175601
10.963352,7.635246928743332,0.1437505655754267
10.967948,7.628665559654553,0.1433597523431694
10.972535999999998,7.619508071936973,0.1429958868465353
10.977132,7.611494388095333,0.1426057511250812
10.981724,7.603236334825403,0.1422302446641777
10.986324,7.591791239355945,0.1419161631379835
10.990908,7.581900643353491,0.1415931260731338
10.995516,7.572420742942103,0.1412856496373119
11.000108,7.563962461692507,0.1409600620528894
11.004708,7.557669603480644,0.1405921896890814
11.009287999999998,7.554607928916937,0.1402019153597585
11.013887999999998,7.553755818839591,0.1398087713105409
11.018484,7.558178130733984,0.1393616547380979
11.023076,7.56865211433362,0.1388520447115602
11.027672,7.58325671602906,0.1383075028850905
11.032263999999998,7.600315251639153,0.1377494763498085
11.036856,7.617662298126165,0.1372161350143295
11.041448,7.634764975184884,0.1366984065806729
11.046039999999998,7.652522717262961,0.1361867498325873
11.050628,7.670036089912745,0.1356922167409787
11.055212,7.690125581191328,0.1351788939128052
11.0598,7.712913375812854,0.1346344880707904
11.064388,7.736111866025446,0.1341078929006064
11.06898,7.762375213723417,0.1335342771261351
11.073576,7.78414138918315,0.1330086090195089
11.078156,7.808561726537198,0.1324179566265656
11.082752,7.837723605557776,0.1317728176371163
11.087339999999998,7.871993580387322,0.1310497929812254
11.091932,7.904342501607426,0.1303561409482565
11.096528,7.932727130894506,0.1297236035309792
11.101115999999998,7.958780010981076,0.1291021600942498
11.105712,7.979802838524194,0.1285190134756897
11.110291999999998,7.99117625657148,0.1280255385536409
11.11488,8.004060032637144,0.1274939892786472
11.119476,8.016410928397594,0.1269525071733677
11.124076,8.0227101524528,0.1264616584809787
11.128671999999998,8.028598680916941,0.125953892440407
11.13326,8.031911090752285,0.1254654115965678
11.137852,8.028927459454096,0.1250375010571238
11.14244,8.026310382298343,0.1245913502497787
11.147043999999998,8.016497829561407,0.124215285004845
11.151623999999998,8.007051830966908,0.1238195447240212
11.156223999999998,7.998338940657285,0.1233848274676814
11.160808,7.987049931718861,0.1229697163817986
11.165399999999998,7.98356732193235,0.1224543102028636
11.169992,7.978041473822251,0.1219691008893394
11.174588,7.965320150130969,0.1215512734557643
11.179175999999998,7.949900523096744,0.1211583310588268
11.183771999999998,7.93640194967196,0.1207424779175583
11.18836,7.924946614570761,0.1202970193360737
11.192944,7.916678321669091,0.119802950445938
11.197532,7.909964528234424,0.1193038692231443
11.20212,7.910446210380941,0.1187399659547385
11.206712,7.909661903937374,0.1182054675638414
11.211299999999998,7.910676466389102,0.1176563899863759
11.215892,7.915288766631421,0.1170751043411522
11.220479999999998,7.924642608540272,0.1164473835746955
11.225075999999998,7.940414676296801,0.1157636863943583
11.229664,7.965303273243957,0.1149991834459614
11.23426,7.985983208829793,0.1142953300514797
11.238855999999998,8.015657488892106,0.113519962785097
11.243436,8.046764083707277,0.112753847844015
11.248027999999998,8.078281374113514,0.1120096916394097
11.25262,8.113152032882052,0.1112550870375389
11.257212,8.145857268612856,0.1105431557352762
11.261803999999998,8.177951580772934,0.109861025162564
11.266396,8.214298695742958,0.1091584197910405
11.270988,8.251300875732337,0.1084658323878106
11.275579999999998,8.286259817398129,0.1078015920355252
11.280179999999998,8.32187382408328,0.1071464840906189
11.284768,8.354056419140612,0.1065511155698472
11.289364,8.391224925292766,0.1059059311867594
11.293955999999998,8.425450758673685,0.1052953633000871
11.298555999999998,8.45787772315931,0.1046999800417502
11.303152,8.490304687644933,0.1041094828161469
11.307752,8.524408336311708,0.1035171488548458
11.312344,8.552871008864303,0.1029777331204222
11.31694,8.572217152226273,0.1025041001174867
11.321544,8.59115259999718,0.1020202260664838
11.32614,8.614541078557696,0.101474183557897
11.330735999999998,8.629179582070027,0.1009754257414555
11.335335999999998,8.637766413877113,0.1005039781290959
11.339932,8.643244246750191,0.1000321562828367
11.344528,8.641893158184523,0.0995873188356656
11.349116,8.633346594037672,0.0991848627902396
11.3537,8.62602187703228,0.0987248597265427
11.358292,8.613911476911726,0.0982680109159291
11.362883999999998,8.593706166762342,0.0978566891858719
11.36748,8.57398959546954,0.0974211323491437
11.372056,8.551286209956876,0.0969767453535312
11.376652,8.528538682995585,0.096495660486352
11.381239999999998,8.50051673406255,0.096039098346645
11.385835999999998,8.477070000633276,0.0955164124746645
11.390424,8.451291518003492,0.094988724794881
11.395011999999998,8.420238613401967,0.0944823168891502
11.399608,8.383256221809344,0.0939906155342644
11.404196,8.343575526873776,0.093509620975087
11.408791999999998,8.309657992766535,0.0929782084458391
11.413387999999998,8.267278994488025,0.0925042372238517
11.417976,8.22310112731422,0.0920361567947941
11.422572,8.181499378769212,0.0915552610384943
11.427163999999998,8.145660791052528,0.0910252238792154
11.431763999999998,8.11239832196464,0.0904837465972861
11.436356,8.083388655686704,0.0899270147106371
11.440956,8.062063203846533,0.0893078031145205
11.445543999999998,8.042825131778574,0.0887035714978966
11.450143999999998,8.028617112254068,0.0880885978817402
11.454732,8.026346109977275,0.0874040585008392
11.459332,8.02076588078681,0.0867581611266629
11.463919999999998,8.017150846654413,0.086132305160229
11.468504,8.012558334808851,0.0855503330239912
11.473088,8.010175387449651,0.0849787686871951
11.47768,7.998353498206017,0.0845061796807526
11.482284,7.993482715115276,0.0840125499690702
11.486871999999998,7.995318668749133,0.0835089435962323
11.491464,8.002062490212296,0.0830029202300001
11.49606,8.016656852275998,0.0824732025096281
11.500647999999998,8.033460778826061,0.0819584012612414
11.505243999999998,8.059259049852603,0.0814060744990929
11.509836,8.085101462327772,0.0808913051809224
11.514419999999998,8.116218296774683,0.0803636726951841
11.519016,8.14942251099381,0.0798600247965208
11.523604,8.182137986356354,0.0793811021781052
11.528192,8.215508526738253,0.078912825703921
11.53278,8.249289762711218,0.078469945718315
11.537371999999998,8.280250510627093,0.0780456255330774
11.541968,8.310067454667031,0.0776392711755947
11.546547999999998,8.336042291488083,0.077261910796404
11.551156,8.371500211642198,0.0768353508123656
11.55574,8.4090013701199,0.0763949406696292
11.560344,8.451732809120715,0.0759106834285442
11.564935999999996,8.489600521740854,0.0754569317972132
11.569516,8.536174067960552,0.0749495754006219
11.574108000000004,8.580826560570808,0.0744606993423495
11.578684000000004,8.624168923142351,0.0739616792603018
11.583284,8.666734035980394,0.0734631536971068
11.587863999999996,8.704024726846693,0.072979064756532
11.592460000000004,8.740782537407783,0.0724877022715853
11.597048,8.771899371854694,0.0720253895848443
11.601647999999996,8.802483325996395,0.0715507678652772
11.60624,8.828570107899854,0.0710920352321092
11.610832000000002,8.848483033383927,0.0706469478265723
11.61542,8.868762513010436,0.0701877966679159
11.620012000000004,8.886465874008145,0.0697312194625036
11.6246,8.899672062767618,0.0692877580526949
11.629191999999996,8.914799305136532,0.068836065126345
11.633780000000002,8.926573179143144,0.0683831071644568
11.638371999999997,8.936670368968606,0.067930503029925
11.642960000000002,8.938550464051092,0.0675040319945635
11.647551999999996,8.937976625218925,0.0670746136534618
11.652144,8.933438494453732,0.0666692179095285
11.656736000000002,8.932986840335712,0.0662348941723595
11.661324,8.929714698160604,0.065812848078421
11.665903999999998,8.921045949299604,0.0654010213448484
11.670496,8.909434527667372,0.0650039920500324
11.67508,8.901665213254022,0.0645918544475786
11.679659999999998,8.897615821345411,0.0641684200037071
11.684264,8.889846506932061,0.0637565564470738
11.688851999999995,8.885019865289948,0.0633300332280028
11.693440000000002,8.88505695002851,0.0628831894565459
11.698036000000002,8.886237838643012,0.0624253870418847
11.702627999999995,8.890117030600457,0.0619625582329904
11.707231999999998,8.895017841719698,0.0614949440562824
11.711819999999996,8.90735849784841,0.0610102169632256
11.716416000000002,8.918799719529474,0.0605252999029897
11.720999999999997,8.929341506762892,0.0600433554745506
11.7256,8.942459412625107,0.0595622991333261
11.730179999999995,8.955455133773176,0.0590862636970654
11.73478,8.97192640799769,0.0586108598906479
11.739364000000002,8.987131693632122,0.058150805913673
11.743955999999995,9.002214794552406,0.0576956038501363
11.748544000000004,9.019096764367989,0.057240811472215
11.753140000000002,9.03507929973592,0.0567876952220159
11.757736,9.053760138446794,0.0563306713522655
11.762332,9.074362030767112,0.0558676206999315
11.766916000000002,9.087401893363811,0.0554270422991417
11.771512,9.095822399008124,0.0549958159461953
11.7761,9.103754165795852,0.0545825575991352
11.780679999999997,9.10976487897414,0.0541763587008595
11.785272,9.106947573838726,0.0538049486717501
11.789859999999996,9.09992160734199,0.0534586510031894
11.794444,9.089175718340517,0.0531182014569664
11.799031999999997,9.07344391824422,0.052798564425125
11.803627999999996,9.048229034814865,0.0525033914235485
11.808216000000002,9.024446466138366,0.0522199617937029
11.812804,8.997599039976489,0.0519508062519755
11.817408,8.967564571615085,0.051700931688176
11.821992000000002,8.935609049644238,0.0514548153110667
11.82658,8.898012551559214,0.0512188206425495
11.831176,8.861315487921837,0.0509807536153089
