Time,Force,Position
8.758184,7.464665856741184,0.1504061374771873
8.762776000000002,7.524015107732532,0.1499077296854362
8.76736,7.576447154387877,0.1494239616124129
8.771952000000002,7.622739246440724,0.148940260888887
8.776532,7.665100948377431,0.1484492327363991
8.781127999999999,7.70316570605556,0.1479692110215743
8.785703999999999,7.737999280085537,0.1475198008629692
8.790288,7.771644908790947,0.1470638332705758
8.79488,7.794908019715647,0.1467705761238606
8.79946,7.819969999535643,0.1464562090653415
8.804052000000002,7.845276348783931,0.1461273434278175
8.80864,7.870049817727005,0.1457966303466519
8.813216,7.890692668574277,0.1455032004787833
8.817808,7.91194644299228,0.1451761664193148
8.822396000000001,7.929358110191396,0.144909233212348
8.826984,7.947913581266453,0.1446205640126114
8.831576000000002,7.968512290665098,0.1442964918315931
8.836164,7.989233184777887,0.1439667526835267
8.840755999999999,8.011875132500121,0.1436091385547387
8.845336,8.033373276346413,0.1432765396927104
8.849936,8.048986074650236,0.143038204379139
8.854512,8.064721057668201,0.142794328681164
8.859116,8.080988920991379,0.1425626106677573
8.863704000000002,8.098811283781561,0.1423243834166095
8.868304000000002,8.118188146038749,0.1420808364863041
8.872896,8.137442823581791,0.1418436431028662
8.877488,8.15645313169654,0.1416195405467448
8.882092,8.174564005363642,0.1414075519132481
8.886683999999999,8.196761355677918,0.1411283463309868
8.891288,8.21830364097284,0.1408489805306225
8.895880000000002,8.240867545429554,0.1405537647528959
8.900468,8.26061096182918,0.1402990614245779
8.905064,8.282275431838245,0.1400185569987997
8.909644,8.304961521009103,0.1397240878991912
8.914228000000001,8.327359099303047,0.1394071995799301
8.918808000000002,8.345259505358745,0.1391406825723222
8.923392,8.366102584185686,0.1388355150443992
8.927984000000002,8.387434401869204,0.1385070677039307
8.932560000000002,8.4102765775711,0.1381413727016907
8.937152000000001,8.43438474186308,0.1377482870688786
8.941744,8.46245719808809,0.1373002477381223
8.94632,8.492695077350833,0.1368193955277236
8.95092,8.518680153803626,0.1363741706531782
8.955504000000001,8.54413234995121,0.1359227154355644
8.960092,8.571217088831313,0.1354323240590652
8.964684000000002,8.599812185729792,0.1349041008979634
8.969276,8.63183869425609,0.1343163958257467
8.973880000000001,8.660389649705941,0.1337574732465806
8.978456000000001,8.68816335542229,0.1332053767447499
8.983052,8.718635364481583,0.1326329689975049
8.987632000000001,8.750373362130963,0.1320381697923494
8.992236000000002,8.776470383666158,0.1315043320446753
8.99682,8.803466839649008,0.1309653194608479
9.001408000000001,8.82776499228891,0.130453796131691
9.005991999999999,8.856682501881199,0.1298980427277484
9.010584,8.893162041197108,0.129262513128816
9.015172,8.925022223560632,0.128678798781101
9.019764000000002,8.955860786762358,0.1281120091984094
9.024352,8.982735058031059,0.127598211356808
9.028944,9.007810460404464,0.1271015769455875
9.033528,9.029288124987277,0.1266394169337507
9.038128,9.046923682351206,0.1262230326721222
9.042716000000002,9.065458674162784,0.1257976402929523
9.047312000000002,9.082194797079069,0.1253891535030495
9.051896,9.091002336129293,0.1250790323913495
9.056476,9.104429232131904,0.1247282922014992
9.061068000000002,9.11491345536328,0.124414069320728
9.065652,9.12923978581354,0.1240580247473655
9.070228,9.140867812920854,0.1237250441582445
9.074832,9.147221418056429,0.1234330614594483
9.079412,9.15447445763965,0.1231360282263423
9.084004,9.170433330822428,0.1227450439931239
9.088604,9.186636573433502,0.122345909418372
9.093192000000002,9.205904673529956,0.1219101588145854
9.097784,9.219531797512234,0.1215304188147857
9.102364,9.225064011465676,0.1212164811944919
9.10696,9.23251727902856,0.1208834452710048
9.111540000000002,9.240747796324946,0.1205497112754141
9.11614,9.25216535582086,0.1201744442312666
9.120728,9.266769957516305,0.1197583205439348
9.125328,9.28174111335418,0.1193258980027203
9.129920000000002,9.29977712667744,0.1188584315217229
9.134512,9.323820670257314,0.1183277780370225
9.139112,9.350684701894275,0.1177739633542896
9.143704,9.38253464462606,0.1171640855455196
9.1483,9.40334700455778,0.1166463411008283
9.152892,9.424403733917789,0.1161193952958058
9.15748,9.445704832706092,0.1155849815697477
9.162064,9.470848038713278,0.1150157599982246
9.166648000000002,9.495746875292168,0.1144556186501054
9.17124,9.513572421004026,0.1139419292647559
9.175824000000002,9.527922413639436,0.1134523652882886
9.180416,9.5387968531984,0.1129837384716736
9.185004,9.545296305233272,0.1125415298792102
9.18958,9.557148222505402,0.1120336545464809
9.194164,9.570799008672829,0.1115123867000679
9.19876,9.584161283963336,0.1109731486691144
9.203336,9.596335613929272,0.1104210645782783
9.207924000000002,9.60605600998056,0.1098785240985665
9.21252,9.610257614631816,0.1093764854238169
9.217108,9.620344564825537,0.1088226738930225
9.221704,9.627977581104606,0.1082776399280188
9.226296,9.627271317926557,0.1077948340067586
9.230896,9.621657186919204,0.1073245393280862
9.235476000000002,9.612811872263691,0.1068603739836286
9.240072,9.613571825655391,0.1063157016981485
9.24466,9.610856225970643,0.1057863667452048
9.24926,9.610183864609484,0.1052389480788507
9.253848,9.603582016257226,0.1047125243530054
9.258444,9.59963432979928,0.1041396899497573
9.26304,9.598629316112572,0.1035380195312725
9.267632,9.596724867978216,0.102941820744139
9.272232,9.595064789272152,0.1023340586410519
9.276824,9.594181960299586,0.1017241865318681
9.281412,9.585492732175112,0.1011801959484354
9.286004000000002,9.578313862069011,0.1006056666668782
9.290592,9.56819231919168,0.1000551644328585
9.295176,9.556149722704909,0.0995179481288682
9.299756000000002,9.54308550705634,0.0989894171754254
9.304352000000002,9.53374121391251,0.0984345759594896
9.308932000000002,9.512870599112032,0.0979673099065007
9.31352,9.487136257930876,0.0975364882115074
9.318112,9.464222404806812,0.0970838142694945
9.322692,9.445561354492694,0.0966157148514271
9.327276,9.43037585725502,0.0961326679189396
9.331868,9.409671568617314,0.0956827961207187
9.336456000000002,9.393464452217849,0.0952084771479405
9.341068,9.370472555828265,0.0947852822097398
9.345652,9.35365451585807,0.0943340694567632
9.35024,9.334548868135997,0.0939107084761716
9.354836000000002,9.318796588776223,0.0934795346394702
9.359428,9.3039437438641,0.0930434069772722
9.364024,9.29064539841898,0.0926078974703724
9.368608000000002,9.281966409926245,0.0921467677548417
9.373208000000002,9.280849451157128,0.0916369831550839
9.377796,9.277322699921989,0.0911601339794355
9.382392,9.277027132335004,0.0906815985769683
9.386976,9.28482647477685,0.090169482968051
9.391576,9.292503632504548,0.0896614350854783
9.396160000000002,9.301979659127545,0.089147957815282
9.400752,9.318895530760011,0.0885913358081056
9.405352,9.342229628240164,0.0880010771627058
9.409948,9.367240409901465,0.0874103521329937
9.414536000000002,9.392006822134473,0.0868329288708106
9.419128,9.416528864939192,0.0862686830009899
9.423716,9.439540549725534,0.0857314465371631
9.428312000000002,9.46038681147414,0.0852179412409181
9.4329,9.485730245460989,0.0846861134761106
9.437484,9.510584940591253,0.0841782847039208
9.442072,9.541735676855051,0.0836498771522113
9.446656,9.57186479395706,0.0831335792057123
9.451248,9.600850107183126,0.0826319088584372
9.455828,9.63163428930449,0.0821268974388306
9.46042,9.659597983368764,0.0816404509246394
9.465008,9.68359738550001,0.0811841757047542
9.469592000000002,9.711072340707702,0.0807214359619167
9.474196,9.73891385005783,0.0802472561083693
9.478784,9.760092764131986,0.0798124450035415
9.48338,9.786790469606174,0.0793580619918576
9.487972,9.81222218649028,0.0789236436191933
9.492572,9.840352206717323,0.0784849120243471
9.497168000000002,9.869259476677875,0.0780511285333448
9.501756,9.89690075804834,0.0776355821784312
9.50636,9.926218723599955,0.0772223257266365
9.510944000000002,9.958234992494516,0.0768049811741054
9.515544000000002,9.994992803055606,0.0763664025834725
9.520132,10.03354948251199,0.075924025514709
9.524728,10.073005596416024,0.0754824248384767
9.529316,10.110907210853052,0.0750395993873663
9.533912,10.140347361118812,0.074634048398151
9.538496000000002,10.171708564994011,0.0742226335246975
9.543092,10.2076891258216,0.0737981702333882
9.547688,10.241870817753892,0.0733812152518276
9.55228,10.275030890524391,0.0729722218749481
9.556876,10.30986764747604,0.0725645383675584
9.561468,10.344171524122478,0.0721489736266282
9.566056,10.374511108835884,0.0717559076233665
9.570644,10.404195628529935,0.0713563950181056
9.575228,10.426973183519724,0.0709947727332696
9.579828,10.45011729265195,0.0706221087017273
9.584416,10.466843175936496,0.0702692744499583
9.589012,10.48189237503989,0.0699176827266396
9.593600000000002,10.498574116875806,0.0695398185619698
9.59818,10.50932637172063,0.0691627746299384
9.602772000000002,10.515048574021996,0.0687854314212216
9.60736,10.520360080732305,0.0683946800506369
9.611948000000002,10.528203564622778,0.0679774283810316
9.616544,10.533715299312744,0.0675537640542928
9.621132,10.538327599555064,0.0671320522252005
9.625736,10.548170180320495,0.0666768134628714
9.630324000000002,10.551594535238246,0.0662370566639662
9.634912,10.547823414574816,0.0658100232935321
9.639508,10.540332371406643,0.0653919767426756
9.644108,10.536028370438004,0.0649535131054743
9.648700000000002,10.527471566659417,0.0645129212225412
9.653280000000002,10.51813751314732,0.0640701194637741
9.657880000000002,10.511990501834756,0.0636057350454679
9.662468,10.507109479112277,0.0631268020494489
9.667064,10.506681487179405,0.062613236166149
9.671656000000002,10.501756323008298,0.0621051704141415
9.676252000000002,10.497197712979624,0.0615824477380709
9.680844,10.493660722112748,0.0610553347821735
9.68544,10.485915069884548,0.0605530541918558
9.690016,10.483688209056384,0.0600397230192248
9.694608000000002,10.48056191378057,0.0595259380336308
9.699188,10.472449707409933,0.0590329437431447
9.703784,10.457674905763325,0.0585588395411825
9.708372,10.441756300240778,0.0580926731068368
9.712964,10.425837694718233,0.0576256428156648
9.717544,10.406854231710309,0.0571729136388652
9.722132000000002,10.389014572578317,0.056708250088158
9.726724,10.369908924856244,0.0562532095250992
9.7313,10.358365306857795,0.0557796289525735
9.735896,10.339670354726785,0.0553389196546029
9.740484000000002,10.325594759548162,0.0548893796454626
9.745076,10.308332122170016,0.0544571752242628
9.749672,10.290702930649427,0.0540372224423633
9.754260000000002,10.272462815558116,0.053637060630612
9.758856000000002,10.251035658267275,0.0532543114856567
9.76344,10.232839684624588,0.0528804418312137
9.768032000000002,10.216731090754118,0.0525247607120952
9.772632000000002,10.195880955217117,0.0521782732350805
9.777232,10.176052438841907,0.0518254470032965
