Time,Force,Position
12.942211999999998,7.686258972877703,0.1482423026452581
12.946799999999996,7.811195951991893,0.1475276415836482
12.9514,7.919155621683181,0.1469305706216312
12.955992000000002,8.022563738055862,0.1462424114355476
12.960596000000002,8.124240789167025,0.145426610528015
12.965176,8.219567418064287,0.1445630813856525
12.969775999999996,8.299226867577358,0.143813752202975
12.974364,8.37221348218272,0.1430643059171637
12.978968000000002,8.439837391919085,0.1423092841444703
12.983556,8.502220781500595,0.1415421623908967
12.988152,8.559896531232466,0.1407610711173882
12.992736,8.611187956933543,0.1399860311625159
12.997332,8.644690921661326,0.1393784964517032
13.001939999999998,8.661959924882824,0.138919461826025
13.006532,8.671578615483442,0.1384922994114337
13.011131999999996,8.674568612624979,0.1380801636381023
13.015724,8.670807731593289,0.1376858107855437
13.020303999999996,8.66438244903554,0.1372468400615511
13.024887999999995,8.650062484428629,0.1368481984812873
13.029468,8.625682414734813,0.1365256745358923
13.034064,8.608898276581508,0.1360343317427169
13.038648000000002,8.584097271664888,0.135584946980417
13.043236,8.561417548337374,0.1350614001777301
13.047828000000004,8.53550664136171,0.1345549928443448
13.052416,8.504443497128445,0.1340896762639381
13.057007999999996,8.467084311761647,0.1336845763170923
13.061588,8.432134918860871,0.1332278133005609
13.066176,8.391666734560063,0.132827922337629
13.07078,8.348500246916313,0.1324519969498326
13.075367999999996,8.307132628167858,0.1320547445124153
13.079955999999996,8.273204854428878,0.1315720640888156
13.084552000000002,8.243896437642281,0.1310376562333606
13.08914,8.220639692560926,0.1304515496821987
13.093731999999996,8.2072767264037,0.1297657660061228
13.098328000000002,8.194979520856894,0.1290961778454028
13.102932000000004,8.1873458137111,0.128411775481167
13.107512,8.189239331346997,0.1276511311874406
13.112108,8.190566066860793,0.1269566968518625
13.116695999999996,8.19721136579496,0.1262525330771769
13.121299999999998,8.208275793701848,0.1255447120774777
13.125892,8.210067605887078,0.125010991111274
13.130491999999997,8.22065353456912,0.1244391778669398
13.135084,8.236313657243242,0.1238748547953496
13.139679999999998,8.253450236118852,0.1233474943857355
13.144272,8.27590537841483,0.1228157062059631
13.148868,8.303434714702885,0.1222886578081434
13.153464,8.33321775692593,0.1217997790888663
13.15806,8.370118231464641,0.121287506173954
13.162647999999995,8.415402126909102,0.1207299921495473
13.16724,8.462651217411633,0.1201932622597208
13.171819999999997,8.508145580467495,0.1197163066258621
13.176403999999998,8.553684084971986,0.1192801781658049
13.180991999999996,8.59975546978169,0.118856907434805
13.185567999999996,8.64930240766784,0.118420245279329
13.190151999999998,8.702447083344582,0.1179561184203883
13.194732000000002,8.75391507484017,0.1175070855935135
13.199323999999995,8.798598286345644,0.1171353225767428
13.203919999999997,8.8445474864412,0.1167411785360344
13.208508000000002,8.888164937336255,0.1163548267170639
13.213099999999995,8.932271127087889,0.1159486202254925
13.217683999999998,8.983773020400369,0.115443478822299
13.222271999999997,9.034575707244866,0.1149094724304588
13.226867999999996,9.076628419041173,0.11443313130108
13.231459999999998,9.123622900483678,0.113876239035542
13.236052,9.16313339546808,0.1133533702493701
13.240631999999998,9.197203142317964,0.1128376149983579
13.245232,9.226975944909276,0.112312469740521
13.24982,9.25551666072739,0.1117463148692159
13.254419999999996,9.275673955639752,0.1112191441429013
13.259008,9.286304025770429,0.110743786764225
13.263607999999998,9.29137116305244,0.1102798799626684
13.268192,9.289198683304644,0.109832970538729
13.272792000000004,9.284039389336982,0.1093830285734263
13.277383999999998,9.270252305035276,0.1089790262419065
13.281976,9.256543263999092,0.108538382762
13.28658,9.2412797234959,0.1080986129094874
13.291176,9.22662710656344,0.1076302689729128
13.295768000000002,9.210664359592265,0.1071518853489076
13.300368,9.19416873231588,0.1066624853098927
13.304955999999995,9.174197551963047,0.1061898141671939
13.309539999999998,9.150628633819624,0.1057399344820162
13.314132,9.123872673476674,0.1053275512781678
13.318728,9.09981501647667,0.10489592319243
13.323320000000002,9.06410885310587,0.1045675838602412
13.327908,9.033022046687451,0.1042038784016943
13.332499999999996,9.008231281402573,0.103800007278612
13.33708,8.985772265318198,0.1033939702618742
13.341664000000002,8.960414717911217,0.1030459684280283
13.34626,8.939965038333536,0.1026857178772722
13.350848,8.928509703232343,0.1022699819460638
13.355455999999997,8.922739485693953,0.1018430054213357
13.360044000000002,8.922410016290076,0.1014141641187217
13.364632,8.926988414715508,0.100975198166559
13.369224000000004,8.934064888504219,0.1005617451303738
13.373824,8.938775711275534,0.1002190302867454
13.378419999999998,8.943775044923768,0.0998979486223141
13.383012,8.951761192791865,0.0995832164417871
13.387616,8.959913666822736,0.0992956586514664
13.392204,8.966311413406938,0.0990502503674375
13.3968,8.977861397248736,0.0987853739272369
13.401379999999996,8.987656653643867,0.0985625218926215
13.405976000000004,8.999783659239505,0.0983411367909908
13.410564,9.018206705968677,0.0980861223154194
13.41516,9.048566769945564,0.0977560265239462
13.419744,9.075373237580486,0.097478610984391
13.424328000000004,9.099114847730029,0.0972343449379609
13.428924000000002,9.124410957346576,0.0969926360576209
13.433515999999996,9.154692978057945,0.0967082352124803
13.438104000000004,9.180722195959367,0.0964380466243065
13.442695999999998,9.205974164127284,0.0961709738177838
13.447288,9.227750579218757,0.0959188668180728
13.451872000000002,9.251037352328606,0.0956383263112954
13.456463999999997,9.270970757076151,0.0953673528415835
13.461056,9.293680508432162,0.0950478971488839
13.465648000000002,9.31814498723484,0.0946892353953296
13.470228,9.342198770446451,0.094315249571715
13.474823999999998,9.3650646083335,0.0939268481514018
13.479404000000002,9.392139107581864,0.0934991363056015
13.483995999999998,9.421379029867962,0.0930471840784527
13.488591999999995,9.446366149344112,0.0926087447894169
13.493180000000002,9.47502904987637,0.0921179515537223
13.497771999999998,9.496985213684033,0.0916397579426686
13.502364,9.512112456052945,0.0911825223345343
13.50696,9.52016640755482,0.0907561514674027
13.511556,9.529975086503365,0.0902899174082781
13.516151999999998,9.5382292659849,0.0898214939790174
13.520747999999998,9.543130077104138,0.0893597926784177
13.52534,9.538914359032752,0.0889427266559752
13.529932000000002,9.538418563466104,0.0885044191346534
13.534512,9.534080660680576,0.0880921074012169
13.539111999999996,9.531785996218629,0.0876623905799329
13.543703999999998,9.526793028413742,0.0872449103397442
13.548299999999998,9.526541602275383,0.0868003586322172
13.552895999999995,9.521548634470497,0.0863841866499492
13.557496,9.511691940284932,0.0860001596166235
13.562087999999996,9.498770388613986,0.0856402690966504
13.566679999999998,9.484582848352956,0.0852983022013104
13.571272,9.462833278368308,0.0849994075684818
13.575868,9.439407024202508,0.0847017656377542
13.580455999999998,9.418434703951364,0.0844025411012197
13.585048,9.39619639511013,0.0841208909005339
13.589627999999998,9.381031377135937,0.0838152069039239
13.594215999999996,9.369996977257545,0.0835066366888083
13.598799999999995,9.360517076846158,0.0832004696643968
13.603395999999996,9.354390544797068,0.0828912357878351
13.607988,9.350062881643275,0.0825749587266058
13.612575999999995,9.34855570654657,0.0822439624424138
13.617168,9.355021256764552,0.0818880755545547
13.621755999999998,9.361364622268388,0.0815384746986454
13.626348,9.370772845257603,0.081165260791794
13.630935999999998,9.38108050269447,0.080791083492181
13.635523999999997,9.392043225150692,0.0804239136332154
13.640119999999996,9.393522864273852,0.0801061376554363
13.644703999999996,9.395657568416366,0.0797937795389853
13.649292000000004,9.404821421977294,0.0794319489130447
13.653875999999997,9.423712728299572,0.0790138754375539
13.658468,9.444647272945437,0.0785816505092174
13.663072,9.467625055914889,0.0781324983468684
13.667651999999997,9.497387618874455,0.0776481382651329
13.672247999999996,9.525595682367022,0.0771614484975059
13.676836000000002,9.553925930573731,0.0766718244238451
13.681435999999998,9.58070167931344,0.0761811535210422
13.68602,9.602203006081403,0.0757018526615742
13.690616,9.623049267830014,0.075216505282927
13.6952,9.642341030111618,0.0747304907093838
13.699796,9.662898780983308,0.0742301491804261
13.704383999999996,9.683578716569142,0.0737279699356606
13.708976,9.701027468506824,0.0732238003109265
13.713563999999998,9.717821155425144,0.0727146580134659
13.718159999999996,9.733593223181677,0.0722144782624063
13.722747999999996,9.742947065090528,0.0717342158365048
13.727339999999998,9.754832884179548,0.0712242635803807
13.731927999999996,9.772604048811036,0.070680924500997
13.736523999999996,9.795605493965637,0.0701015214836003
13.741112,9.81362102802542,0.069553451139514
13.745703999999996,9.8210096748762,0.0690567452447542
13.750299999999996,9.827621071993478,0.0685589636808979
13.754888,9.83885182606314,0.0680487209753588
13.759479999999996,9.845341038466271,0.0675605233451688
13.764068000000002,9.850808631707611,0.0670780299717346
13.768659999999995,9.856154040234804,0.0666007794257109
13.773255999999996,9.863176132943147,0.066126424273328
13.777844000000002,9.880702928146349,0.0656145163913106
13.78244,9.90194964585428,0.0650943990329405
13.787028,9.921519679381063,0.0645749810079119
13.791615999999998,9.941866962641354,0.0640618966899164
13.796211999999995,9.96196987647335,0.0635600101264751
13.800804,9.983993843914789,0.0630529671637265
13.8054,10.007938864965666,0.0625419644511738
13.809987999999995,10.033927124340131,0.0620227627294108
13.814588,10.06543417511463,0.0614914042855678
13.819172000000002,10.090689326204222,0.0609985460427818
13.823771999999998,10.116966096455608,0.0605028895884907
13.828359999999996,10.13940075948811,0.0600234028858169
13.83296,10.163878660844198,0.0595339233501121
13.837544,10.193464658009256,0.0590171192755624
13.84214,10.222151220726664,0.0585030513151456
13.846716,10.24699567622519,0.0580040029055881
13.851312,10.268775274238337,0.057520488627498
13.855908,10.293497545022715,0.0570269423121836
13.860504,10.316665316340094,0.056527284870948
13.865091999999995,10.335458100133376,0.0560285878420116
13.869684,10.343746181431804,0.055562045880941
13.874276000000002,10.347414905777848,0.0551044760304468
13.878856,10.34777440321022,0.054668429630739
13.883448,10.341593490080763,0.0542444042678976
13.888036,10.332836458322513,0.0538177509552393
13.892628000000002,10.32011513463123,0.0534052006133531
13.897216,10.297666358178596,0.0530206824388867
13.901808000000004,10.265490128964608,0.0526637968414873
13.906388,10.225751870027,0.0523206828914862
13.910975999999998,10.187157414965332,0.0519658171927094
13.915584000000004,10.14255542964705,0.0516323042148464
13.920172,10.094766402129242,0.0513143522388509
13.92476,10.037249921850083,0.0510219481388107
