Time,Force,Position
10.223628,5.267466359465438,0.1628980149809235
10.228228,5.376688834825135,0.1622847596924116
10.232819999999998,5.475552454589275,0.1616846724976256
10.237424,5.561436958680429,0.1610804706128906
10.242011999999995,5.6362634007080405,0.1603903574694398
10.246604,5.693657696273057,0.1598150162570931
10.251187999999996,5.742980743994392,0.1591391175025721
10.255772,5.783709903198575,0.1585103400987733
10.260356,5.830080038516937,0.1577619601959974
10.264952,5.876983054140509,0.1570253911661397
10.269539999999996,5.9295270458782605,0.156185143604767
10.274132,5.9780626042343545,0.1553855781622432
10.278708,6.021445925332853,0.15466419226543
10.2833,6.062331171068072,0.153938134540846
10.287891999999998,6.100962710868302,0.1531996990195291
10.292476,6.133909133105724,0.1525319422096334
10.297067999999998,6.157083961133167,0.1520382538824322
10.301656,6.180991897445484,0.1514938576823564
10.306247999999998,6.203956257861523,0.1509177910913914
10.310836,6.224833238505348,0.150346962274403
10.315423999999998,6.237493124406196,0.149924577349807
10.320036,6.247166196087183,0.1495202817802687
10.324623999999998,6.250787596062925,0.1492067206959224
10.329228,6.251344138553287,0.1489664771079284
10.333815999999995,6.251123431310146,0.148732910668259
10.338404,6.256788069609476,0.1483770901934343
10.342995999999998,6.262042012317739,0.1480051626130977
10.347584,6.268684128330234,0.1475856920288672
10.352188,6.273893929589869,0.1471736391958698
10.356784,6.281391338601383,0.1467019312245595
10.361388,6.280916022298212,0.1463482415425398
10.365975999999998,6.286858931842723,0.1458908630941809
10.370571999999996,6.301629859700936,0.1452640672727573
10.37516,6.313702484216207,0.144678810587466
10.379764,6.316824905703627,0.1442714822175697
10.384347999999996,6.32325655410472,0.1437825026856376
10.388947999999996,6.329932571934103,0.1432723606703821
10.393532,6.334809720868191,0.142790483891095
10.398127999999998,6.342507357859369,0.1422627718174847
10.402716,6.351593168154777,0.1416911470354461
10.407299999999998,6.367952497296884,0.140961878988456
10.411892,6.386843803619162,0.1401604016366874
10.416484,6.406223848798022,0.1393218462060972
10.421071999999995,6.42543756781411,0.1384470665278837
10.425664,6.444895656258487,0.1375589942814947
10.430251999999998,6.45691389969339,0.1367919726281665
10.434844,6.461614482832967,0.1361324487225828
10.439436,6.465537816239041,0.1354799031374339
10.444027999999998,6.467373769872899,0.1348261943933806
10.44862,6.465978539858603,0.1341982883830198
10.453199999999995,6.466626548167893,0.1335269109849291
10.457792,6.464698437848387,0.1328874145573522
10.462375999999995,6.455330482519406,0.1323608928682824
10.466964,6.445185277456923,0.1318350300898453
10.471568,6.44513407929823,0.1311174161607367
10.476155999999998,6.4421402083683,0.1304512683121778
10.480744,6.442988444657254,0.1297214918767452
10.48534,6.444980484822147,0.128964493482265
10.48994,6.444152036929951,0.1282521770467408
10.494535999999998,6.443445773751901,0.1275354468877845
10.499127999999995,6.438897403354968,0.1268815368388586
10.503731999999998,6.43193924049201,0.1262892648334612
10.508307999999998,6.427679380971996,0.1256646777076759
10.512907999999998,6.425096205633133,0.1250276719557215
10.517496,6.420469791970682,0.1244262738085608
10.5221,6.421606539136556,0.1237377068520761
10.526683999999998,6.431737630778907,0.1229443713079286
10.531276,6.44072491854532,0.1221779774892255
10.535855999999995,6.4459142405414775,0.1215094367749767
10.540452,6.454090376757499,0.1208408498734356
10.545039999999998,6.465864250764112,0.1201362507299992
10.549635999999998,6.477393755342434,0.1194494060601387
10.554224,6.493298247444848,0.1187220263267792
10.55882,6.5162760304143,0.1179295673438745
10.5634,6.535578032327643,0.1172380228993459
10.567991999999998,6.55835558731743,0.1165188049476131
10.57258,6.5828098264883685,0.1157973472615188
10.577172,6.607674761250373,0.1151014058834166
10.581756,6.63523799935532,0.1143829522618592
10.586348,6.662967563623042,0.1137076909091063
10.590939999999998,6.694050496253063,0.1130182677059365
10.59552,6.729508416407179,0.1122993870959211
10.600111999999998,6.7663986513141525,0.1115945719113072
10.604708,6.801900712916896,0.110931633362147
10.609296,6.842921565919672,0.110218016372099
10.613904,6.884597483941803,0.1095220858890941
10.618491999999998,6.924352348354495,0.1088609823809764
10.623096,6.968726569719571,0.1081616200810432
10.627687999999996,7.022828243845999,0.1073482382532465
10.63228,7.076152668238926,0.1065437228260992
10.636872,7.126534419860618,0.10578544202851
10.64146,7.180636093987046,0.1050011879015503
10.646056,7.233838333665827,0.1042338713178174
10.650643999999998,7.282421216392223,0.1035201413315942
10.655243999999998,7.333413891584644,0.1027685211615555
10.659832,7.386571989814796,0.1019972161585506
10.664436,7.4391972077397375,0.1012264092951847
10.669024,7.491289545359468,0.100447987656266
10.673623999999998,7.541705198798049,0.0996837429101413
10.678208,7.588889668588475,0.098928018426258
10.6828,7.635663442787837,0.0981644896121664
10.687395999999998,7.67765153387204,0.0974123527092914
10.691988,7.717430060469881,0.0966599896487633
10.696576,7.758963314514391,0.0958630304184805
10.701171999999998,7.793545462406008,0.0951038110649262
10.705756,7.824241361630115,0.0943468883001223
10.710343999999996,7.850806642758419,0.0936010426101646
10.714932,7.872341871343274,0.0928746857585432
10.719523999999998,7.884227690432294,0.0921981738454269
10.724116,7.8950477489108914,0.0914976674678471
10.728708,7.906600915674362,0.0907629697174226
10.733299999999998,7.911569530427379,0.0900400978956832
10.73788,7.913306961532242,0.0893184330719981
10.742471999999998,7.914878066474333,0.0885659761753191
10.747056,7.904512154168708,0.0878826535793206
10.751632,7.886051331834253,0.0872408511546428
10.756227999999998,7.863093337261559,0.0866205691265005
10.760808,7.840746266259594,0.0859690153144851
10.765395999999996,7.813246958000033,0.0853271237121543
10.769999999999998,7.788401811634787,0.0846315871337156
10.774592,7.756116820260066,0.0839783276290366
10.779195999999995,7.722155144704196,0.0833215706598505
10.783784,7.683818481624232,0.0826742634745093
10.788379999999998,7.63869703855415,0.0820745667511551
10.792968,7.596273898827012,0.0814572334317674
10.797568,7.550008651880991,0.0808605913370372
10.802147999999995,7.503865589649116,0.0802512596005372
10.806747999999995,7.455679289093654,0.0796557341098533
10.811347999999995,7.411090726328783,0.0790377275612818
10.815947999999995,7.367157228583268,0.0784235014863822
10.82054,7.320036688638228,0.0778395906578304
10.825127999999998,7.273204659570107,0.0772758571187249
10.829716,7.228948749130784,0.0767024572983285
10.834307999999998,7.181505796491934,0.0761578707144842
10.838896,7.1471436649767375,0.0755342360918816
10.843492,7.115235467376193,0.0749067693773929
10.848079999999998,7.0838601500808585,0.0742897660855898
10.852668,7.048809051729417,0.0737289525589024
10.857244,7.023407362873809,0.073142707780296
10.86184,6.997150381019183,0.0725983291704164
10.866431999999998,6.976167821136296,0.0720373724395709
10.87102,6.95907150992092,0.0714901067730879
10.87562,6.948149055124936,0.0709262836605517
10.880207999999998,6.945688064500218,0.0703161618467795
10.8848,6.946824811666091,0.0696976314393721
10.889392,6.955812099432504,0.0690662571581571
10.893979999999996,6.971872678065954,0.0684245282937063
10.898587999999998,6.995128732280588,0.0677651746863221
10.903176,7.021493785429228,0.0671255869982813
10.907768,7.049413338044875,0.06649929110018
10.912359999999998,7.079786824575172,0.0658785009954481
10.916952,7.118499590562592,0.0652319147303608
10.921544,7.16068790962646,0.0645912692764377
10.926131999999996,7.2090500851097135,0.0639454245463934
10.930728,7.25512465284109,0.0633387893777584
10.93532,7.30504132779135,0.0627175320369
10.93992,7.359455174979848,0.0620921149213113
10.944507999999995,7.418610563834877,0.0614482720386213
10.949107999999995,7.472369346004019,0.0608239650533458
10.953696,7.526005943459015,0.0602091828939112
10.958296,7.579642540914011,0.0595985599409897
10.962891999999998,7.630458650311919,0.0590001209094602
10.967487999999998,7.678987151957947,0.0584333775324518
10.97208,7.728170718623332,0.0578876036717469
10.976676,7.774411612517483,0.0573637274525874
10.981284,7.817832018354543,0.0568541377416063
10.98588,7.857410316972722,0.0563680504599686
10.990484,7.890326020314928,0.0559091063038336
10.995076,7.920787789742483,0.05544621282869
10.999667999999998,7.945242028913421,0.0550168891616492
11.004256,7.969940637512652,0.0545784735490545
11.008839999999998,7.985156162778821,0.0541731851681008
11.013424,7.990888604711929,0.0537975858257851
11.018004,7.991879504978505,0.0534375524748196
11.022595999999998,7.985308375521464,0.0530981219215225
11.027191999999998,7.975550203864895,0.0527828568184707
11.03178,7.960028871380002,0.0524874259566038
11.036371999999998,7.939765997228579,0.0522049672125153
11.040956,7.914395027268189,0.0519498867741684
11.045543999999998,7.884282515641267,0.0517064049385048
11.050152,7.848284658471874,0.0514857160745199
11.054739999999995,7.811387366854834,0.0512633921777714
11.059343999999998,7.76987071828541,0.0510470013702958
11.063928,7.716827748059338,0.0508674569960364
11.068528,7.657777247576649,0.0507165258130661
