Time,Force,Position
10.51418,4.697763371259492,0.1536040721376468
10.518772,4.798758512244474,0.1530706442915365
10.523364,4.884775440681513,0.1526345723723983
10.527956,4.963131816865936,0.1520900647099324
10.532564,5.0243445574646834,0.1516876073030849
10.537160000000002,5.074054638591933,0.1512930429735229
10.541756,5.112139875533541,0.1509057214960145
10.546336000000002,5.139177290043343,0.1505884288884347
10.550936000000002,5.164039041883674,0.1501697795077982
10.555524,5.184193153874364,0.1497505812643507
10.560124,5.203159320540485,0.1493221705052233
10.564716,5.223435617245321,0.1489048051394192
10.569308,5.242079371217634,0.1485694902950159
10.573904,5.262566135533872,0.1482513019745715
10.578488000000002,5.282319791565236,0.1479974776344486
10.583088000000002,5.301584708740018,0.1477862793943442
10.58768,5.325224613438892,0.1475118526903585
10.592276,5.356426547861386,0.1470755498469582
10.596872,5.388527916731528,0.1466231180926954
10.60146,5.424227023392262,0.1461140131446761
10.606044,5.455428957814755,0.145687599337292
10.610632,5.485731457789601,0.145280155048572
10.615232,5.514235088869152,0.1449018510082571
10.61982,5.54028478603405,0.144559862777578
10.62442,5.5760619359603005,0.1440098905929644
10.629012,5.608363532810107,0.1435168606528443
10.633588,5.642830552697644,0.1429755052024842
10.63818,5.678807930603559,0.1423724029827597
10.642764,5.712575744023112,0.1417923123247138
10.647348,5.743767438813866,0.1412514807601637
10.65196,5.771605765242321,0.140753459918801
10.656548,5.798011776917918,0.1402607717916751
10.661152,5.824784342735951,0.1397417597684542
10.66574,5.856542819648807,0.1391215702959162
10.670336,5.887401862114013,0.1385148246218317
10.674928,5.921325762064602,0.1378465804265917
10.679528,5.948464882025073,0.1373198633657296
10.684120000000002,5.971884079480806,0.1368625257664556
10.688716,5.996447080812479,0.1363777255340349
10.693316,6.021132266858299,0.1358956450053332
10.6979,6.051458429018296,0.1353216420745513
10.7025,6.0825618409117945,0.1347453645908093
10.707084,6.119428413633618,0.1340707094504674
10.711684,6.157194420803089,0.1333911991399235
10.716276,6.18907508243009,0.1328359980807109
10.720876,6.2264745354571245,0.1322067994360564
10.725468,6.257211393208187,0.131689559433376
10.73006,6.285905012635661,0.1312140613376993
10.734648000000002,6.312433209025403,0.1307919539378892
10.739244,6.338184155681644,0.1303727891609547
10.743844,6.368554459290268,0.1298910543334763
10.74844,6.398391882593683,0.1293990917376769
10.753028,6.430883467791412,0.128835477294997
10.757624000000002,6.461287673216925,0.1282783591054754
10.762212,6.493446606089108,0.1276568805313875
10.766800000000002,6.521352736151342,0.1270805539108091
10.77138,6.553834081717332,0.1264018731667716
10.775972,6.585782546978112,0.1257103816034674
10.780564,6.618219751095475,0.1249964651174479
10.785152000000002,6.642562045184007,0.124378696359094
10.789752000000002,6.664572590072033,0.1237776973289339
10.794328000000002,6.686294624083139,0.1231513430278335
10.79892,6.705684908893739,0.1225412701817896
10.803512,6.72556393256092,0.1219079875247279
10.808104000000002,6.742456142008239,0.1212754463322106
10.812708,6.752519430016812,0.1207017941861493
10.817292,6.767157933529142,0.1200288631061525
10.821896,6.78355116448814,0.1192945444833187
10.826492,6.796591027084837,0.1185800258910118
10.831080000000002,6.811019062985765,0.1178262030091978
10.835672,6.821560850219183,0.1170882075280014
10.840252,6.832591376309181,0.1163228407926613
10.844856000000002,6.839535425752008,0.1156284973576617
10.849444,6.841737933528302,0.1149949549434058
10.854044,6.8421415724093,0.1143805475966798
10.858624,6.84368901516624,0.1137427073680867
10.863228,6.839717666523145,0.1131657238142968
10.86782,6.838811175365432,0.1125424452908056
10.872412,6.832385892807686,0.111976732813178
10.877008000000002,6.829924902182968,0.1113509883842163
10.8816,6.822478000463428,0.1107955552800909
10.886188,6.816829967639183,0.1102248256033229
10.890784000000002,6.811836999834295,0.1096628595627944
10.895372,6.800714317058645,0.1091925052691458
10.899968,6.7939666218070895,0.1086880558254831
10.904556,6.791593914079628,0.1081502321078207
10.909144,6.790531336390879,0.1076287917164098
10.913732,6.790778888740845,0.1071225719325231
10.918324,6.795523613329049,0.106576370422529
10.92292,6.802722271831905,0.1060250844524743
10.927512000000002,6.811763940678684,0.1055027634166904
10.932104,6.81892869736465,0.1050446557650611
10.936684,6.82879175739356,0.1045660706910885
10.94128,6.845361554147071,0.1040593738493847
10.94586,6.867083588158176,0.1035290001807479
10.950448,6.890360121636286,0.1030026110252113
10.955052,6.918666707657847,0.1024572814607912
10.959640000000002,6.949305042879915,0.1019220830366757
10.964232,6.989837157026108,0.1013194692619045
10.968816000000002,7.035521508429898,0.1006993335626411
10.973408,7.088767889557307,0.1000094067105469
10.978012,7.138949413199335,0.0993645861300437
10.982588000000002,7.186965513803631,0.0987578367233192
10.987184,7.242910198273984,0.0980638001547023
10.991772,7.299632132477837,0.0973811955988826
10.996376,7.356109697253401,0.0967206551413441
11.000964000000002,7.411687827581315,0.0960760121530366
11.005564,7.47008644596632,0.0954201416554517
11.010156,7.532327171570207,0.0947410888147291
11.014752,7.595056636030678,0.0940507084417702
11.019336,7.658397024061876,0.0933372624248721
11.023932,7.727867127063836,0.0925620484949863
11.028520000000002,7.794638926722852,0.0918082206769449
11.033116,7.85662504326671,0.0910634093978297
11.037692000000002,7.913336737838825,0.0903522401114076
11.042284,7.970414986553378,0.0896326091994407
11.046872,8.023118247743838,0.088935344438921
11.051468000000002,8.070547086962556,0.0882687797944495
11.056056,8.107060528095353,0.0876695226517587
11.060644000000002,8.140220600865852,0.0870848577254914
11.065236,8.171048924435842,0.0865037665266609
11.069812,8.202121617434125,0.0859112882253496
11.074404,8.232783614841344,0.085300983702641
11.078984,8.255883582524941,0.0847449717563801
11.083572000000002,8.273831312950945,0.0842045820919754
11.088168,8.286748990833495,0.0836718895534557
11.092756,8.295413865906099,0.0831488943874971
11.097344,8.293285527606926,0.0826743438987149
11.101936,8.284861148174222,0.0822294896904595
11.106532,8.266953685408454,0.0818447682396331
11.111128,8.245692854280389,0.0814630472768699
11.11572,8.215559863389988,0.0811119189682215
11.120316,8.18399455774673,0.0807486254370924
11.124904,8.148953699027027,0.08039083891186
11.129500000000002,8.112480525554464,0.0800199539607922
11.13408,8.068689691786574,0.0796801497374273
11.138684,8.026287031322914,0.0793105929019552
11.143276000000002,7.981552621658746,0.0789302689477679
11.147872,7.944502426432344,0.0784962996124752
11.152456,7.903077243681849,0.0780702048908682
11.157048,7.857809953712471,0.0776653911254145
11.161656,7.813808652333178,0.0772368925072746
11.166248,7.768252851486881,0.0767989410955287
11.17084,7.7267835272877585,0.0763214806149591
11.175432,7.68825687585987,0.0758193874527232
11.18002,7.65255071248907,0.0752980463506912
11.184608,7.616189484098915,0.0747626222407462
11.189188,7.588289719880027,0.0741787663618098
11.193784,7.55871327147999,0.07359012827261
11.198376,7.535799418355922,0.0729583844704541
11.202968,7.50969852303233,0.0723534723166386
11.20756,7.490915288004066,0.071717761974394
11.21214,7.4758519754805395,0.0710633873142817
11.216724,7.467206888804693,0.0703823111221268
11.221316,7.4610157360435,0.0697034266296001
11.225892,7.463041678025282,0.0689942086854227
11.230488,7.464823250578774,0.0682966067405145
11.235076,7.469713822066273,0.0676108146572963
11.239664,7.470762286334891,0.0669494201546834
11.244268,7.475164118965808,0.066288687645384
11.248852,7.47829996300664,0.0656432457237108
11.253456000000002,7.478126580133802,0.0650327096885171
11.258052,7.479263327299675,0.0644395933611075
11.262644,7.479011901161318,0.0638724927068223
11.267236,7.4792933553281715,0.0633227112570963
11.271832000000002,7.483172547285616,0.0627678085462878
11.27642,7.493103410948306,0.0622126418211534
11.28102,7.5017682860209085,0.061680420990808
11.285612,7.514563779189316,0.0611566033798151
11.290208000000002,7.530957010148311,0.0606312469072634
11.2948,7.555689520564431,0.0600816061657346
11.299396,7.575436119885729,0.0595655680971146
11.303984000000002,7.59175130757921,0.0590891250025739
11.30858,7.607577756416108,0.0586396072245936
11.313184,7.623037651110567,0.0582083183871654
11.317784,7.634411069157854,0.0578067865375439
11.322376,7.649260040281586,0.0574085708523546
11.326968,7.666152249728905,0.0569994100767547
11.331556,7.6798574169766995,0.0566143247815591
11.336144,7.695361453119788,0.0562294572791292
11.340732,7.721248007043584,0.0558149102741168
11.345316,7.749177799290969,0.0553868972042667
11.349908,7.778007025986001,0.0549590700923293
11.354488000000002,7.809656740738122,0.054525636500583
11.359088000000002,7.84028483632845,0.0541010760993737
11.363668,7.865927020823956,0.0537048765091471
11.36826,7.8846622406151985,0.0533416299798985
11.372856,7.899555353187559,0.0529921965795189
11.377444,7.911750162416975,0.0526451429191438
11.382036,7.912296465275598,0.052342435026208
11.386616000000002,7.903237500087014,0.0520720749331266
11.391204,7.893279100450783,0.0518005386591332
11.395808,7.882665635795194,0.051516750495193
11.400396,7.86551176057778,0.0512461203768612
11.404988,7.844882332283919,0.0509699687741513
