Time,Force,Position
11.232572,5.609808703024163,0.1574113738396124
11.23716,5.704887779571459,0.1564968963777809
11.241756000000002,5.785477382427394,0.1556617613720049
11.246348,5.849944968859448,0.1549718508615982
11.250936,5.907329024792725,0.1542778129144561
11.255532000000002,5.955874822780558,0.1536507470169929
11.260112,5.998613318491439,0.1531120521830983
11.264692,6.038897880287669,0.152616832139969
11.269280000000002,6.077505757902748,0.1521554382881728
11.273856000000002,6.122898415507945,0.1515469282516876
11.27846,6.164693335322549,0.1510157038429857
11.283056000000002,6.207221363422028,0.1504448607857279
11.287644,6.244064273958701,0.1499418049088987
11.292248,6.281229597189182,0.1493718279220446
11.296844,6.314097976161087,0.1488233937799342
11.30144,6.345245529503214,0.148252516994341
11.30602,6.375816061091502,0.1476218326716286
11.31062,6.400168594811772,0.1470400289018325
11.315204,6.417281511502232,0.1465268119591225
11.319804,6.430097483934116,0.1460251478025033
11.324388,6.445401292097541,0.1454012620080878
11.328988,6.461149697668921,0.1447002809902044
11.33358,6.472356789553433,0.1440238755743965
11.338164,6.483275370561026,0.1433221166718519
11.342752,6.488508834005813,0.1426748156604593
11.347348,6.493331601859534,0.1420075374983212
11.351952,6.499254032140566,0.1412665619117998
11.356544,6.500024225164003,0.1405868512424213
11.361136000000002,6.49768541925343,0.1399272130584308
11.36572,6.489172756923469,0.1393504941630033
11.370312000000002,6.47665166121185,0.1388037597427404
11.3749,6.459511208547847,0.138329731837844
11.379492,6.442370755883843,0.1378533534058364
11.384084,6.421388196000958,0.1374430364882878
11.38868,6.396196974756752,0.1371235931073358
11.393268,6.36896251518896,0.1368441976409389
11.397868,6.343404739802319,0.1365445192377694
11.402448,6.321444702206266,0.1361913273160085
11.407028,6.306147259886187,0.1357224375840828
11.411624,6.290849817566109,0.1352517032893513
11.416212000000002,6.275063636389445,0.1348134941961835
11.420816000000002,6.257889281908553,0.134418964177188
11.425404,6.244068295789961,0.1339905942681935
11.430004,6.228981321081283,0.1335977362275007
11.4346,6.217247714734906,0.1331719783724644
11.439188,6.206946423141389,0.1327466418655702
11.44378,6.194768219387058,0.1323979465267147
11.448376,6.190929295089847,0.1319275612486159
11.452972,6.19146535831673,0.1314087254640123
11.45756,6.199196897124796,0.1307994286116597
11.46216,6.209670880724435,0.1301982721627478
11.46674,6.220799929343429,0.1296003207166162
11.47134,6.236181780772371,0.1289642189105323
11.475928,6.254917000563614,0.1282983722597351
11.480528,6.281869315097834,0.1275255104815604
11.485108,6.31283006301371,0.1267288837384399
11.489704,6.346122560130092,0.1259318120387251
11.4943,6.37982575283754,0.1251643383442002
11.498896000000002,6.4100975339171695,0.1244864133702689
11.503484,6.442578879483161,0.1238126149050512
11.508072000000002,6.470851563687832,0.1232198979946037
11.51266,6.500678747359507,0.1226236289408805
11.517244000000002,6.5300171921746,0.1220634488171222
11.521828,6.561809570904345,0.1214907935606885
11.526424000000002,6.5934797649199455,0.1209310020435166
11.531016,6.630135870030366,0.1203027274061539
11.535604,6.668835213464375,0.1196400361632028
11.540200000000002,6.703448080251209,0.1190592354551486
11.54478,6.736917143162104,0.118512455203763
11.549376000000002,6.765522479692323,0.1180411827740053
11.553972000000002,6.79641542397442,0.1175242357801197
11.55856,6.831683355780609,0.1169731111514745
11.563152,6.865396788119795,0.1164330863626445
11.56774,6.895268113240098,0.1159428036515676
11.572328,6.918599027798575,0.1155346082812649
11.576924000000002,6.944339734823076,0.1150792384904543
11.581512,6.968403757666428,0.1146392763558936
11.586108,6.991690530776276,0.1142042282189038
11.590696,7.016898357495565,0.1137478015005101
11.595292,7.042228368929002,0.1132888265612675
11.599872,7.073565910619054,0.1127456854153416
11.604472,7.102205148966163,0.1122272364475135
11.609056,7.133254179779295,0.1116631543190588
11.613656,7.163892515001362,0.1110848267856074
11.618252000000002,7.192731981328134,0.1105241252259182
11.622844,7.215563917398288,0.1100534288668687
11.627424,7.2396618420585295,0.1095591090270926
11.632016,7.261305832804117,0.1090744510886427
11.636604000000002,7.277553216863819,0.1086351251093265
11.6412,7.295843839247107,0.1081678483364863
11.645788,7.313357211896893,0.1077053196082523
11.650376,7.326862151165023,0.1072562877332818
11.65496,7.339467655985505,0.1068167972442024
11.659556000000002,7.363966036605072,0.1062381515778275
11.66414,7.389730405814723,0.105631153426732
11.668728000000002,7.410997602786136,0.1050652316429481
11.67332,7.4314875500240465,0.1045024591336375
11.677908000000002,7.448746313613803,0.1039474442315609
11.6825,7.463795512717198,0.1033891932306305
11.687092,7.474591909010646,0.1028518460203247
11.691680000000002,7.48293437138944,0.1023251974676493
11.696272,7.493686626234258,0.1017526654924212
11.700860000000002,7.500841143288486,0.1012091611478521
11.705452,7.505175172285624,0.1006917392381197
11.710044,7.512696243482291,0.1001314901899022
11.714636000000002,7.519151554068534,0.0995448329461629
11.719228,7.523685811045335,0.0989796258560856
11.723816,7.529486056612222,0.0983881818410043
11.72842,7.54027221327393,0.0977397673970654
11.733008000000002,7.551547108792221,0.0970695398098788
11.737604,7.55922426651992,0.0964227285339569
11.742184000000002,7.565879805085827,0.0957871773957201
11.746784000000002,7.570736474756437,0.0951628892838923
11.751368,7.564189007484544,0.0946438354633677
11.755960000000002,7.557885909640944,0.0941113373092599
11.760552,7.552604430959136,0.0935668817698538
11.765148,7.544624648934385,0.0930372192556739
11.769748,7.539343170252579,0.0924898814925709
11.774344,7.531119018799536,0.0919686118866607
11.778936000000002,7.524160855936579,0.091420316529504
11.783528,7.516303258625973,0.0908770182895134
11.788116000000002,7.508567846029515,0.0903277160367275
11.792704,7.498911379823614,0.0897927100532213
11.797292,7.493874270570098,0.0892269754201181
11.801884,7.486138857973638,0.0886772022647316
11.806468,7.479058510396536,0.088133564361326
11.811056,7.470301478638283,0.0875922993843058
11.815656,7.464120565508828,0.0870439620949411
11.820244,7.457040217931724,0.086501276648588
11.824836,7.447794447316889,0.0859863875638578
11.829428,7.446355075853965,0.0854071857659032
11.834016000000002,7.448879996324069,0.0847934273822343
11.838608,7.4545919589937,0.0841433761569927
11.843196,7.459526671929828,0.0834871199950496
11.847788,7.467281872923046,0.0828151760086139
11.85238,7.47119496669738,0.0821700164995818
11.856968000000002,7.476374049061799,0.0815000085162429
11.861572,7.481675316140365,0.0808255602110955
11.866168000000002,7.493639178494901,0.0801066645656314
11.870768000000002,7.507279725030587,0.0793872116570896
11.87536,7.521819706013922,0.0786658486825552
11.87996,7.538036371178407,0.077948216802692
11.884548,7.555396840218831,0.0772127279358863
11.889144000000002,7.567605072001659,0.0764890503886503
11.893728,7.577892250175045,0.0757768822960026
11.898328,7.589201047510226,0.0750566601347648
11.902916,7.601653648721346,0.074320911048421
11.907512,7.606910774351283,0.0736092115399537
11.912104,7.61216789998122,0.0728994080960145
11.916696000000002,7.618691014201243,0.0721694842121584
11.921296000000002,7.611522383726882,0.0715330176875774
11.925884,7.599490026871848,0.070928633391215
11.930472000000002,7.586069496712582,0.0703515330215228
11.935064,7.576246704343908,0.0697608416732423
11.939644,7.558617512823321,0.069218896874174
11.944232,7.546507112702768,0.0686536082132924
11.948824000000002,7.536850646496867,0.0680919205799086
11.953408,7.525395311395671,0.0675340469031139
11.958000000000002,7.509076249913798,0.0670064121529301
11.96258,7.490469580680048,0.0665055755111208
11.967172,7.469575303694418,0.066031330507604
11.971756,7.444838919489904,0.0655767617098645
11.976348000000002,7.421779219466543,0.0651215754764072
11.980956,7.399130215034246,0.0646844646235176
11.985544,7.383143805877922,0.0642149917248262
11.99014,7.367035212007451,0.063750840526638
11.994736,7.352481117603984,0.0632941471364127
11.999324,7.34320144517226,0.0628292381173795
12.003924,7.3335552185980974,0.062381891938637
12.008524,7.320721949824408,0.0619612913087607
12.013116,7.320436621869163,0.061475902131728
12.017708,7.323871216418652,0.0609778744448806
12.022308,7.327305810968142,0.0604807209283226
12.026896,7.330496036089343,0.0599961160914376
12.031496,7.34022667177237,0.0594873730365682
12.036076,7.345093581074717,0.0590036492090303
12.040676,7.350615555396423,0.0585329786227783
12.045272,7.360634701956368,0.0580581711096566
12.049872,7.371553282963961,0.0575816525760856
12.054456000000002,7.384515102295141,0.0570910171653264
12.059048,7.399520159949908,0.0565863950948762
12.063656000000002,7.414280848176384,0.0560920829290807
12.068248,7.426753928650982,0.0556231128034765
12.07284,7.440126443573226,0.0551524221548062
12.077432000000002,7.447369243524711,0.0547251126794957
12.08202,7.451425001276668,0.0543228611383113
12.086608000000002,7.451516467095598,0.0539410552541374
12.091196,7.452385182648029,0.0535651786171673
12.095792,7.4485123565339295,0.0532026651464784
12.10038,7.445538964867478,0.0528373972055971
