Time,Force,Position
17.156983999999998,3.316886994606554,0.1774307796167855
17.161572,3.5178524744930515,0.1754750421302272
17.166168,3.713078455736377,0.1734134501915904
17.170755999999997,3.9021983841940906,0.1714824693686711
17.175344,4.082025217666668,0.1698266009300219
17.179948,4.254602194477696,0.1682305751519692
17.184535999999998,4.417475380712521,0.1667280251618272
17.189131999999997,4.567824288314055,0.1654217330847851
17.193711999999998,4.71398819673942,0.1639938823622281
17.198307999999997,4.843296980456028,0.1628932923724932
17.2029,4.965233722796939,0.1618135657587262
17.2075,5.0787768046003645,0.1607923615711468
17.212087999999998,5.184537149437027,0.1597502329428484
17.216672,5.284025115325306,0.1585938797293944
17.221256,5.372499160598671,0.1574464524504433
17.225848,5.451880338866561,0.1562175739451081
17.230448,5.511263491674796,0.1553516637460715
17.235044,5.562507593005575,0.1546162660883264
17.239632,5.614528944069853,0.1539075251836321
17.244228,5.671169652086518,0.1531104583959837
17.248815999999998,5.725234241474384,0.1523695717709946
17.253404,5.779543200290542,0.1516112897687198
17.257991999999998,5.832009148762775,0.1508558782306838
17.262591999999998,5.880466663853353,0.1501621198603861
17.26718,5.927081168600005,0.1494614056724585
17.27178,5.969154359659791,0.1487981923721254
17.276372,6.01310446288039,0.1480623964246244
17.28096,6.056110990204713,0.1472966432177767
17.28556,6.091633531070936,0.1466326326531571
17.290148,6.133241645459289,0.1457817815019881
17.294732,6.166588523656038,0.1450296387363155
17.299319999999998,6.189630927337596,0.1444174165364224
17.3039,6.201102867913876,0.1439860187373796
17.308512,6.20358046401368,0.1437028481699326
17.3131,6.205769549236563,0.1433926854821833
17.317704,6.208813927458467,0.1430225740386103
17.322291999999997,6.2179438792025,0.1424673966191482
17.326888,6.232670665612088,0.1417709494061158
17.331484,6.241590149744722,0.1411438816637227
17.336076,6.246911896086765,0.1405740358664564
17.340671999999998,6.252233642428807,0.1400052970770846
17.34526,6.258288497055723,0.1393874710297823
17.34986,6.258946744996753,0.1388478042668497
17.354447999999998,6.254330570966041,0.1383759497735723
17.359047999999998,6.249059331915973,0.1379009359757792
17.363636,6.242111408684755,0.1374413141266401
17.368236,6.226824205996414,0.137114753665969
17.372832,6.211903557450509,0.1367614351143586
17.377428,6.199026147228193,0.1363641087282894
17.382019999999997,6.182428814501139,0.1360252331977844
17.386608,6.166730916221734,0.1356716793031719
17.391199999999998,6.157817797932445,0.1351930699650778
17.395799999999998,6.157732697956861,0.1345447093980847
17.400392,6.162511324361955,0.1338038428331317
17.404984,6.164347277995814,0.1331212280659247
17.409575999999998,6.164917243039587,0.1324792267604859
17.414164,6.16103417729375,0.1319475301041997
17.418751999999998,6.149999777415358,0.1315625836188847
17.423344,6.132957847280348,0.1312915604378098
17.42794,6.1177147860406365,0.1309948102538947
17.432527999999998,6.098629617582041,0.1307636486296178
17.437123999999997,6.0765237330866935,0.1306417278330805
17.441712,6.059814455277234,0.1304439724404785
17.446303999999998,6.050422837763103,0.1301379215525729
17.450892,6.03964304694474,0.1298776942368862
17.455479999999998,6.033893308669827,0.1295695591231803
17.460075999999997,6.033417992366656,0.1291950533172566
17.464664,6.030410698883316,0.128895935600169
17.469251999999997,6.029735154600482,0.1285876312640254
17.473848,6.027671437013417,0.1283252659735139
17.47844,6.033702629455184,0.1279581110082943
17.483036,6.042187755811601,0.1275776854945093
17.487627999999997,6.053904065816174,0.1271847746238902
17.49222,6.069218113611338,0.1267549816293976
17.4968,6.086208845587652,0.1263131633114789
17.501392,6.106675130640412,0.12584219355887
17.505972,6.132782391807351,0.125295670930179
17.510572,6.163875564069111,0.1246679448317895
17.515159999999998,6.208948991902171,0.1238554359090238
17.519752,6.25492185418288,0.1230424820777423
17.524331999999998,6.309356180634857,0.1221189256658843
17.528927999999997,6.369020787609946,0.1211003116369092
17.533516,6.426642156261448,0.1201279935787329
17.538111999999998,6.481443036855861,0.1192061554864437
17.5427,6.539430959649801,0.1182306751282629
17.547283999999998,6.598929240462116,0.117228442269657
17.551876,6.661492378759813,0.1161922267124481
17.556472,6.7300630473141245,0.1150710523888356
17.561064,6.794136543630197,0.1140026583159128
17.565655999999997,6.858454409374561,0.1129181480118807
17.570252,6.91839728759483,0.1118936682992016
17.574831999999997,6.978462350529248,0.110884628385253
17.579428,7.0323535570442735,0.1099437012783986
17.584016,7.081869776035207,0.1090525969762456
17.588604,7.131874733882722,0.108141739709447
17.593211999999998,7.176072389453286,0.1072653858387483
17.597804,7.217938295823342,0.1064046468805622
17.602396,7.254407595507512,0.1055943084609828
17.606987999999998,7.284825223486437,0.1048391904965907
17.611576,7.3148321558742975,0.1040719604866653
17.616172,7.341485719899858,0.103330715805107
17.620763999999998,7.367728588334355,0.1025798663216395
17.625367999999998,7.397280683682523,0.1017828159492086
17.629963999999998,7.428098767620775,0.1009642911457758
17.634556,7.456218548216084,0.1001704494979382
17.639139999999998,7.477020668516064,0.0994378942939442
17.643732,7.492670551558451,0.0987351581309213
17.64832,7.50431200121918,0.0980431488055465
17.652924,7.521305916117166,0.0972803604440969
17.657519999999998,7.536989700976441,0.0965022344826315
17.662115999999997,7.550463921349353,0.0957179944158801
17.6667,7.554533101654722,0.0949706354735081
17.671295999999998,7.558191586369028,0.0942025151970741
17.675887999999997,7.558496702721031,0.0934419514221465
17.68048,7.5534052123871485,0.0927122222975224
17.685071999999998,7.551378579538646,0.0919457460559813
17.689663999999997,7.543178090270754,0.0912071969301591
17.694252,7.537509578183032,0.0904170504643945
17.698839999999997,7.527588263285361,0.0896384680732629
17.703428,7.509572038358861,0.0889006202815194
17.708023999999998,7.4883246297842065,0.0881615829464367
17.712612,7.460658995361872,0.0874602184914493
17.7172,7.422077962853617,0.0868180805774421
17.721795999999998,7.379244127535414,0.0861820903916079
17.726376,7.336776846359648,0.0855222635777999
17.730967999999997,7.296352803507469,0.0848337443171794
17.735556,7.254129891759994,0.0841473457334675
17.740143999999997,7.2088421225271375,0.0834870034534088
17.74474,7.156114508284808,0.0828688983843069
17.749328,7.107106816547216,0.0822207288058736
17.753916,7.057854755381331,0.0815787253565617
17.758499999999998,7.011711693149456,0.0809366693796214
17.763092,6.963403207879848,0.0803151470607971
17.767688,6.915749787629598,0.0796949260856663
17.772268,6.871449735741646,0.0790650062758711
17.776868,6.822818837778229,0.0784849582160173
17.781443999999997,6.779217992358264,0.0778940825510149
17.786044,6.734761853939278,0.0773445671141981
17.790636,6.692637464720798,0.076796867125557
17.795236,6.659018681122214,0.0762318983349133
17.799823999999997,6.6273650925817,0.0756914554780682
17.804416,6.59894268768934,0.0751507844107054
17.809008,6.58196856118811,0.0745715232609361
17.813599999999997,6.571823356125627,0.0739832674999463
17.818192,6.5613115969207065,0.0734136926937145
17.822784,6.553131586916292,0.0728533967204717
17.827371999999997,6.550636694474685,0.0723029750076183
17.83196,6.554848538757677,0.0717540424713912
17.836547999999997,6.563723881441684,0.0712241208682007
17.84114,6.573664984736111,0.0707325174285082
17.84574,6.5867150869645466,0.0702567899999548
17.850336,6.606061230326518,0.0697630283603392
17.854931999999998,6.633502283717319,0.0692472357609275
17.859512,6.6699376815846,0.0687107521053306
17.864103999999998,6.7138129244613545,0.0681497705708128
17.868692,6.764883642919291,0.0675710334150262
17.873283999999998,6.820329348901323,0.0669946984648427
17.877879999999998,6.878473358226297,0.0664155076415847
17.882468,6.939848551199426,0.0658519160842404
17.887076,7.002123178620203,0.0652944558002989
17.891664,7.065297240488627,0.0647394990201628
17.896268,7.133623539614648,0.0641911741804285
17.900864,7.203093642616607,0.063643229471749
17.905455999999997,7.269498888133186,0.0631285266481388
17.910052,7.3383580675644176,0.0626260172491236
17.914644,7.409016115890944,0.0621281500956036
17.91924,7.4772202303028195,0.0616299920897964
17.92382,7.542070976352394,0.0611337017054194
17.92842,7.608432080420345,0.0606127708994368
17.933,7.672461435287788,0.0600856376879914
17.937604,7.735058475402375,0.0595497430903461
17.942196,7.793036158564576,0.0590331898903202
17.946796,7.84255237755551,0.0585508020233447
17.951392,7.882707697927525,0.0581043727258712
17.955987999999998,7.910681631623539,0.0577001516408121
17.960568,7.934402762509602,0.0572942056624302
17.965163999999998,7.948352299185688,0.056895965639372
17.969752,7.957926848337677,0.0564980579440693
17.974348,7.9623491602320735,0.0560958174309344
17.978928,7.961741419583018,0.0556833842259152
17.983511999999997,7.957658125857518,0.0552684181373517
17.9881,7.945846476245622,0.0548450781612347
17.992696,7.922630689691224,0.0544577643163459
17.997287999999998,7.890176189232056,0.0540857037526511
18.001883999999997,7.852080712658711,0.0537277908090586
18.006476,7.806423206361746,0.0533905063302767
18.011063999999998,7.758966831169484,0.0530515469008991
18.015664,7.7057472951489,0.0527296367822637
18.020252,7.643821925528755,0.0524372443046718
18.024848,7.574989591204347,0.0521731564743941
18.02944,7.497329238566235,0.051944360779917
18.034028,7.414927344261592,0.0517260150796567
18.038624,7.335468122728185,0.0514896149077857
18.043212,7.254210032299481,0.0512497612612969
18.047812,7.173607006890133,0.0510174463103113
18.052404,7.086874266510026,0.0508197114104187
18.056996,7.001451656168631,0.0506408305444383
18.061592,6.914763057237151,0.0504760417560033
