Time,Force,Position
10.766548000000004,6.232656081507143,0.1542530177020852
10.771136000000002,6.256628638531565,0.1540674592034196
10.775724,6.281079694780829,0.1537035463744065
10.78032,6.308307097638557,0.1532371552452768
10.784912000000002,6.331570208563255,0.1528580325827042
10.7895,6.350869027554924,0.1525669200315653
10.794096,6.3683689776513,0.1523067882288274
10.798688000000002,6.386235481890111,0.1520195522539628
10.803268,6.406589821860464,0.1516068978070388
10.807855999999996,6.420970533391091,0.1512307827535257
10.812444000000005,6.435918027043817,0.150768540439023
10.817040000000002,6.44987780335164,0.1502300228865583
10.821628,6.464648731209854,0.149590142415855
10.826216,6.475777779828849,0.1489620224053396
10.830811999999998,6.483264949208626,0.1483473709805961
10.835407999999996,6.485433555168031,0.1477649761247572
10.840016000000002,6.487924573821245,0.1471163974150132
10.844608000000004,6.489838570720622,0.1464125624801079
10.849204000000004,6.498248836733196,0.1455562344660417
10.853792000000002,6.505471157421201,0.1446876563444894
10.858391999999998,6.51097265247943,0.1437934891412395
10.862980000000004,6.510300291118269,0.1429861234100167
10.86758,6.506152376680662,0.1422257174910172
10.872172000000004,6.501593766651991,0.141445462649814
10.876776000000005,6.496746645746399,0.1406326304407254
10.881367999999998,6.494187132592686,0.1397601317308562
10.88596,6.493304303620124,0.1388691821522067
10.890556,6.494098158828711,0.1379599793527794
10.895148000000002,6.4926044062854205,0.1371106280751394
10.899756,6.4913991646190485,0.1362876711670401
10.904352,6.487661945772506,0.1355376297768819
10.908948,6.486789356431681,0.1347883838146268
10.913543999999998,6.486860342987134,0.1340754307384908
10.918124000000002,6.4892630787430905,0.133348966310256
10.922712,6.4968180517566445,0.1325714855392849
10.927291999999998,6.508381458151855,0.1317685765954927
10.931888000000004,6.518067952386252,0.131045003289803
10.936476000000004,6.52857583780278,0.1303639409677288
10.941072000000002,6.53397562741034,0.1297838661047901
10.945664000000004,6.540441177628321,0.1292299191520234
10.950256,6.549649172637874,0.1286882004637192
10.954856000000005,6.56274341631494,0.1281307622034669
10.959444,6.57792503976422,0.1275823503681045
10.964028000000004,6.595849108005072,0.1270490480091283
10.968624000000002,6.619824847951166,0.1264602360331332
10.973212,6.645765782955331,0.1258916902076661
10.977819999999998,6.67211741355056,0.1253460187375749
10.982408000000005,6.703743466117531,0.1247563518952612
10.986999999999998,6.738600702332656,0.1241536961438791
10.991592,6.777955110786021,0.1235081472846326
10.996184000000005,6.820662887601685,0.1228388604757992
11.000788000000004,6.86030580693197,0.1222247996785946
11.005376000000002,6.897416749082083,0.121678609252161
11.009968000000004,6.9362043754133484,0.1211253850627573
11.014548,6.970250460078084,0.1206412020788869
11.019147999999998,6.999432818362141,0.1202266581623864
11.023728000000002,7.029636795807993,0.1197974619181398
11.028327999999998,7.06135113127222,0.1193274919909433
11.03292,7.094986520345889,0.1188338224141638
11.037516,7.127067409952553,0.1183458325354565
11.042096000000004,7.157838169520504,0.117851800220333
11.046692000000004,7.187298799049743,0.1173507489803792
11.051275999999998,7.215327113826122,0.11685003966521
11.055876,7.240368614382639,0.1163528325444223
11.060452000000002,7.260912942700917,0.1159036937284339
11.065044000000004,7.277693207065829,0.1154577292352795
11.069624,7.2952065797156145,0.1149728256401735
11.074223999999996,7.303969977317213,0.1145608801489378
11.078812000000005,7.310768179860743,0.1141351664456256
11.083408000000002,7.310493091537236,0.1137682681035895
11.087999999999996,7.309518796745743,0.1133572510116701
11.092588000000005,7.31222028301036,0.112869204622622
11.097179999999998,7.3171652355782255,0.1123002023933895
11.101764,7.319123373926229,0.1117294600607029
11.106351999999998,7.319649197521373,0.1111516802828587
11.110948000000004,7.324750236620276,0.1104883813065191
11.115536000000002,7.331483818451701,0.1097813546342463
11.120127999999998,7.332820793597238,0.1091189925765215
11.124716000000005,7.331948204256412,0.1084522965979937
11.129316,7.335406460991052,0.1077195435753222
11.133908000000002,7.339886336887487,0.1069756462639491
11.138507999999998,7.3410128444216225,0.1062446243815663
11.143112,7.339807602755251,0.1055134645454718
11.147704,7.339746164964819,0.1047625487345177
11.152296000000003,7.340173466030968,0.1039845156037941
11.156884000000002,7.339579147935325,0.1032166614613483
11.161483999999998,7.336408711210884,0.1024630764932026
11.166072000000003,7.338757065886475,0.1016620408201906
11.170676000000004,7.338939997524334,0.1008938009798902
11.175259999999998,7.342965036381075,0.1000834213506264
11.17986,7.345601901933587,0.0993073650215019
11.184448,7.3440301061247775,0.098591445261009
11.189044,7.340170702564089,0.0979157113805502
11.193636,7.337743613756261,0.0972465662945489
11.198220000000005,7.336215959396079,0.0965681442213507
11.202824000000003,7.330479643674579,0.0959463524760985
11.207420000000004,7.319879601572402,0.0953740281049607
11.212008,7.312755112546672,0.0947820052249344
11.216604,7.3051418846643585,0.094213954869169
11.22118,7.291276757097138,0.093726973878202
11.225759999999998,7.273447337596889,0.0932813034396952
11.230356000000004,7.261136709496673,0.0927931510652729
11.234944000000002,7.253078884206405,0.092289319953311
11.239535999999998,7.2445323200595535,0.0918116380702497
11.244116000000002,7.239461308989148,0.0913201237529513
11.248708000000004,7.23696641654754,0.0908177659920845
11.253291999999998,7.237702707754087,0.0903145417353668
11.257884,7.235496326189399,0.0898410342626678
11.262476000000005,7.236232617395948,0.0893396183816909
11.267064,7.234803485564761,0.0888669548396896
11.271668000000002,7.235173222628871,0.0883851439067498
11.276264,7.239629436340157,0.0878594389972261
11.280852,7.244862899784944,0.0873357801611021
11.285448,7.252017416839171,0.0867990068904273
11.29004,7.264690725293431,0.0862316436052016
11.294648,7.28132832568072,0.0856276635125171
11.299224,7.299520425535013,0.0850258515868195
11.303824000000002,7.319633578998747,0.084412930634693
11.308412,7.34178997078607,0.0837791936678471
11.313012000000004,7.368932273668213,0.0831002528268389
11.317600000000002,7.40183773737868,0.0823800548379107
11.3222,7.431556158889621,0.0817022591329425
11.326780000000005,7.458331907629327,0.0810529640686617
11.331376000000002,7.487273079406767,0.0803820160917739
11.335972000000002,7.510451090355882,0.0797561023722862
11.340568,7.538492827685674,0.0791005622429183
11.345164,7.565757315281964,0.0784483978975162
11.349764000000004,7.594698487059404,0.0777972257155691
11.354352000000002,7.621474235799109,0.077174194385186
11.358948000000002,7.654912579814788,0.0765142744416336
11.363536,7.68630768550688,0.0758760323618975
11.368123999999998,7.716436802608887,0.0752652484065219
11.372712000000003,7.746443734996746,0.074662650169037
11.377304,7.772608560165725,0.0740871680046229
11.381896,7.796852331725262,0.0735314000980885
11.386484,7.8237944066277425,0.0729736511541937
11.39108,7.8545785887491055,0.0723966826204565
11.395668000000004,7.885484955584614,0.0718205229150724
11.40026,7.920111244924859,0.0712344076594969
11.404847999999998,7.952816480655664,0.0706643078861625
11.409436000000005,7.9825790436152335,0.0701182326768785
11.414032000000002,8.019248571279068,0.0695343285907337
11.41862,8.055018664495252,0.0689525780458402
11.423224,8.087968269654349,0.0683876777856456
11.427812,8.126681035641766,0.0677955207894395
11.432408,8.16053007524851,0.0672381283488995
11.437012,8.19168081151231,0.066689424382106
11.441599999999998,8.224341905794487,0.0661169725776057
11.446196000000004,8.261211661437983,0.0655146201980766
11.450776,8.292806995109737,0.0649252752392174
11.455375999999998,8.328610990142813,0.0643069759616205
11.459951999999998,8.363882104870678,0.0636788375242339
11.464552,8.394900416788593,0.0630473277375994
11.469136000000002,8.429350140334327,0.0623821158282051
11.473727999999998,8.46097937582297,0.061730448045151
11.478324000000004,8.488111439073377,0.0610919262774584
11.482916,8.510868514799686,0.0604588119707317
11.487516000000005,8.530927287183053,0.059833148951746
11.492112000000002,8.541747345661651,0.0592310994997362
11.496712,8.548847481635512,0.0586377722144057
11.501307999999998,8.553493683694722,0.0580369505451391
11.505896000000003,8.544814695201985,0.0574821246158997
11.510492000000005,8.53920056419463,0.056908441085294
11.51508,8.533586433187276,0.05633403024923
11.519676,8.517589784399211,0.055787894826844
11.524264,8.496074344211115,0.0552487538698715
11.528859999999998,8.474314534594726,0.0547172920955983
11.533452,8.443848891378781,0.0542155946411403
11.538044000000005,8.401734741792039,0.0537552393295623
11.542640000000002,8.357455169167565,0.0533078660098078
11.547228,8.303203774353447,0.0529053183073348
11.551820000000005,8.244988087606302,0.0525160408690478
11.5564,8.192169007545044,0.0521188481093933
11.560987999999998,8.134774711980029,0.0517620076093264
11.565592,8.069818386691393,0.0514194124570909
