Time,Force,Position
10.057988,3.719359754651428,0.1785618367203952
10.062584,3.9669499789163183,0.1742989985313673
10.067167999999995,4.204836412605006,0.1710310216344736
10.071743999999995,4.429176948498609,0.1686188692746175
10.076332,4.639849401882983,0.1667933610815315
10.080908,4.838530456939276,0.1652213679313827
10.085492,5.0322051216372685,0.1635740034899932
10.090075999999998,5.215232419862783,0.1619587359857808
10.094664,5.389044666368679,0.1603454718262966
10.099244,5.551965176973805,0.158792638456926
10.103827999999998,5.700274029173426,0.1573648430257328
10.108416,5.840756002957658,0.1558542955018684
10.113012,5.969568991107618,0.154368786427794
10.117603999999998,6.081971451956775,0.1530365162734376
10.122192,6.17575382101877,0.1518231109503045
10.126784,6.255413270531841,0.1506603565024164
10.131384,6.317728856479572,0.1497420448400609
10.135975999999998,6.3703508914828415,0.1489801269815734
10.140551999999998,6.420929688162523,0.148274382906661
10.145151999999998,6.477027276242238,0.1474772790511973
10.14974,6.534679363788956,0.1466884084744648
10.15434,6.594252504945116,0.1458774657783727
10.158923999999995,6.645442225195525,0.1451634362762174
10.163523999999995,6.693112250920861,0.1444554615157273
10.168116,6.735097159083391,0.1437991177688617
10.172712,6.7776488493680205,0.1430654077135438
10.177296,6.808507891833228,0.142512482244747
10.181888,6.836013565936136,0.1419989161927424
10.186475999999995,6.8615540449809735,0.1414826481422821
10.191072,6.883086090644155,0.1410019862581495
10.195659999999998,6.902530756535121,0.1405187996512564
10.200251999999995,6.919765857939728,0.1400494750972233
10.204831999999998,6.9329925259626775,0.1396116877606707
10.209427999999996,6.944253998927556,0.1391650156496774
10.214016,6.961523002149051,0.1386097604298252
10.2186,6.97699313647525,0.1380841158290792
10.223192,6.989109902439149,0.1375931747747582
10.227779999999996,6.992643019517635,0.1372394617241758
10.232372,6.995765441005055,0.1368678539182963
10.236959999999998,6.994512874968382,0.1365471418030849
10.241548,6.984388149169376,0.1363330986938511
10.246144,6.971032239722215,0.1361412831555708
10.250731999999998,6.961762806922229,0.1358729563044423
10.255335999999998,6.950816689941092,0.1356186632246968
10.259928,6.94534522291136,0.1352462744071357
10.264507999999998,6.935498768357536,0.134922135574302
10.269111999999998,6.927040487107941,0.1345539472658715
10.273707999999996,6.918171510267282,0.1341652574720773
10.278304,6.906726414797825,0.1338021263238917
10.28288,6.897568927080245,0.1333856206025381
10.28748,6.890821231828689,0.1329078353643346
10.292059999999998,6.876878060995951,0.1325168619873516
10.296659999999996,6.862402009858003,0.1321118003516835
10.301248,6.845594209519547,0.1317145893334877
10.305848,6.81901481497111,0.1314297431884532
10.310439999999998,6.788426987041017,0.1311670376104576
10.315032,6.756406844358065,0.1309011298476712
10.319632,6.72679649414114,0.1305732159710907
10.324224,6.695753829171354,0.1302410868065486
10.328824,6.667898206401094,0.1298418202383416
10.333415999999998,6.646705178906807,0.1293391105967846
10.338004,6.622691663355429,0.1288740193157403
10.3426,6.598023082784696,0.1284015912589311
10.34718,6.573476686928107,0.1279180134103363
10.35176,6.54328931495734,0.1275120670107136
10.356352,6.515022996596015,0.1270726151892069
10.360939999999998,6.487778297396485,0.1266108742745048
10.365524,6.462210282378103,0.1261324696524837
10.370104,6.437541701807371,0.1256404216752068
10.374695999999998,6.409031014017755,0.1252035977914348
10.379287999999995,6.3791321529239084,0.1248054803145173
10.383876,6.356673136839534,0.1243045481078054
10.388476,6.334991370488663,0.1237974037605121
10.39306,6.314619734176508,0.1232972422640168
10.39766,6.303120257626683,0.1226967997571371
10.402252,6.29575139917266,0.1220657748569246
10.406839999999995,6.29083647463329,0.121417478377187
10.411432,6.286943169255714,0.1207489777260903
10.416028,6.285625982506934,0.120057942911449
10.420619999999998,6.282143372720423,0.1194122067263959
10.425208,6.280459631829207,0.118751221314839
10.429804,6.2840503129097325,0.1180386895211801
10.434384,6.28535338623838,0.1173747652473414
10.438984,6.290909262376975,0.1166784320421113
10.443575999999998,6.304682233258546,0.1158924478774758
10.448171999999998,6.320542583912332,0.1151214553411365
10.452751999999998,6.341799541252007,0.1143019477496654
10.457347999999998,6.365754801934624,0.1134637630670686
10.461943999999995,6.393185615693687,0.1126046400444647
10.466543999999995,6.427811905033933,0.1116835481119904
10.471119999999996,6.462193824945888,0.1107776445034113
10.475716,6.496209190715406,0.1099061274186549
10.480304,6.532678490399576,0.1090270592779581
10.484899999999998,6.573644962321984,0.1081112168009531
10.489484,6.611668761473157,0.1072452037937101
10.494071999999996,6.648670941462538,0.1064004091251442
10.498668,6.688737978937299,0.1055207325873071
10.503247999999996,6.731258950326712,0.1046398825916496
10.50784,6.774312802021337,0.1037836791410895
10.512419999999995,6.8189211531829645,0.1029304876706288
10.517008,6.860464646859213,0.1021315724176384
10.521599999999998,6.900986521373667,0.1013555744580153
10.526188,6.9471493720023005,0.1005266731997138
10.530792,6.991879907878075,0.0996994391716921
10.535384,7.028804044601937,0.0989710984733737
10.539968,7.063274247411148,0.0982535305664502
10.544564,7.093902343001476,0.097585992377577
10.549155999999998,7.120810516087067,0.0969572845317037
10.55376,7.143343701648565,0.0963579318738895
10.558336,7.15753760775294,0.0958318962089786
10.562936,7.174019121609193,0.0952682706686062
10.567523999999995,7.188291070979086,0.0946992194294403
10.572127999999998,7.202929574491416,0.0941138423873769
10.576712,7.2136818293362355,0.0935276324431081
10.581312,7.224922823037638,0.0929168608594823
10.585903999999998,7.239350858938566,0.0922676245767934
10.590496,7.249037353172962,0.0916625837351043
10.595088,7.25819096710215,0.0910478929066381
10.599679999999998,7.2650128318308305,0.090431900727467
10.604268,7.26986950150144,0.0897933639256771
10.608855999999998,7.275337094742779,0.0891242998763075
10.613444,7.27769568905011,0.0884492426574793
10.618027999999995,7.279399218338083,0.0877720741796051
10.622616,7.2821243667878495,0.0870863997920989
10.627207999999998,7.288935991884792,0.0863562694916049
10.631792,7.297013605571817,0.0856036825378099
10.636379999999996,7.305335588687134,0.0848404494029692
10.640976,7.317621863735479,0.0840450946187239
10.645563999999998,7.330807573231475,0.0832446482408449
10.650148,7.347058140212849,0.0824093422791661
10.654735999999998,7.36228708803243,0.0815886594893659
10.659324,7.3802143391949535,0.0807604978633858
10.663916,7.399285394233417,0.0799233422055422
10.668507999999996,7.422487067367685,0.0790903105085759
10.673096,7.448387043844894,0.0782540228772838
10.677692,7.467624425046131,0.077464020186554
10.682292,7.489560109590314,0.0766651599595954
10.686883999999996,7.508553121363258,0.0758913942892351
10.691472,7.529222817317355,0.0751199425077039
10.696063999999998,7.55132482802431,0.0743616705841707
10.700652,7.571916480712888,0.0736388814652038
10.705248,7.5957393170496195,0.0729226521030836
10.709835999999996,7.61572004616747,0.0722342371355288
10.714435999999996,7.636233655590531,0.0715662637071245
10.71902,7.652782973080564,0.0709282601433088
10.723615999999998,7.669987355589953,0.0703028288694396
10.728208,7.684904130347464,0.0697066773785545
10.7328,7.695856613171946,0.0691424374783184
10.737391999999998,7.709629584053517,0.0685673423699671
10.741984,7.724057619954445,0.0680026227305953
10.746572,7.739262905588875,0.0674437707729212
10.751163999999998,7.749360095414338,0.0669266836237248
10.755756,7.757946927221424,0.066444134033588
10.760339999999998,7.765756509295008,0.0659624949091048
10.764928,7.7687023649879166,0.0655101452525589
10.769515999999998,7.777167012080857,0.0650398570270761
10.774108,7.786408908907299,0.0645761344271411
10.778695999999998,7.80014797797198,0.0641049854294466
10.783287999999995,7.814786481484311,0.0636354470542841
10.787871999999998,7.832900538073087,0.0631683481068874
10.792463999999995,7.852935648271304,0.0626937625370484
10.797071999999998,7.875913431240757,0.0622084253294441
10.80166,7.903388386448448,0.0617182572841199
10.806252,7.928165038313195,0.0612352414582295
10.810839999999995,7.956539427968535,0.0607466533171986
10.815432,7.987489936252672,0.0602645954923848
10.820028,8.026491213117012,0.0597399880056136
10.824619999999998,8.06549248998135,0.0592167737649111
10.829215999999995,8.101551094074456,0.0587118223712958
10.833804,8.142473424548236,0.0581917617383952
10.838404,8.184539558897956,0.0576653908870384
10.842991999999995,8.22930399659062,0.0571353031569078
10.847588,8.272391750102132,0.0566045830099815
10.852171999999998,8.311148657538181,0.0561112898924843
10.856771999999998,8.354280552498322,0.0556213000709364
10.861364,8.394469774687229,0.0551477056320294
10.865947999999998,8.431838508819046,0.0546846269677537
10.870543999999995,8.46818562378907,0.0542328218160952
10.87514,8.49991338180671,0.0537918676808097
10.87974,8.52432347952902,0.0533632877740278
10.884336,8.54603527390839,0.052937818587493
10.888927999999998,8.56006285384999,0.0525388852538523
10.893519999999995,8.570126141858562,0.0521591346200125
10.898108,8.57532570348646,0.0517948690375002
10.902695999999995,8.577949146485558,0.051427123592858
10.907284,8.567613953075151,0.0510787896587017
10.911868,8.541543776646776,0.0507914631384178
10.91646,8.513552546608958,0.0505079254081265
10.921047999999995,8.482374274371614,0.0502439786313051
10.925647999999995,8.437626442154036,0.0500235209342654
