Time,Force,Position
19.861172,4.296518608139727,0.1628120051618864
19.865772,4.34636111361286,0.1624240801573414
19.870368,4.387365361140552,0.1621489612058861
19.874964,4.425661065693561,0.1617277293421556
19.879556,4.454219077853479,0.1614219923271702
19.884152,4.4770036895533325,0.161092584711001
19.888744,4.495403074097355,0.1606585686278722
19.893336,4.513714175744121,0.1600990477213294
19.897928,4.527728333132312,0.1595699887297467
19.90252,4.540554545195933,0.1590329187636422
19.907108,4.549294280612382,0.1586310018746723
19.9117,4.558444711619895,0.1582609195073672
19.91628,4.57066000011279,0.1577913194844911
19.920867999999995,4.578910996672654,0.1574476342282434
19.925452,4.585363124337225,0.1571510619646334
19.93004,4.595657359220677,0.1567534272559732
19.93464,4.605052159656482,0.1563805304185669
19.939224,4.615879274845146,0.1559959287278753
19.943812,4.633368985309782,0.1554313988214602
19.948408,4.659730855536751,0.1546847622999408
19.952995999999995,4.6797186413646665,0.1541589988803012
19.957604,4.703426349697319,0.1535459979626612
19.962192,4.72664531917339,0.1529818558283974
19.966784,4.750152799526381,0.1524618888287636
19.97138,4.776480767936459,0.1518744311176504
19.975968,4.804607605241833,0.1512601826443519
19.980572,4.83686506064301,0.1505987584244466
19.98516,4.869244700758332,0.1499399524940836
19.989772,4.90624369782604,0.1491923204554842
19.994348,4.944797194360752,0.1484465106254312
19.998947999999995,4.990912720619082,0.14753076135703
20.003536,5.033308324372678,0.1466958473497438
20.008136,5.076236808431483,0.1458932421941642
20.012723999999995,5.124029018870965,0.1449824274242352
20.017324,5.173375728777452,0.144071119504018
20.021908,5.215282593674463,0.1433220147389056
20.026499999999995,5.256945089143184,0.1425988823631456
20.031088,5.302038996239722,0.1417663449435848
20.035684,5.346477838316903,0.1409536558131203
20.040288,5.384498454546404,0.1402827766604331
20.04488,5.424806678527784,0.1395338624221251
20.049464,5.460739914985069,0.1388586916096452
20.054051999999995,5.496629009993728,0.1381323749503858
20.05864,5.5294091060683765,0.1374286079908739
20.063228,5.56267794099961,0.1366984309984824
20.067816,5.590550169244954,0.1360622721436283
20.072408,5.610694041603905,0.1355354398886868
20.076996,5.626951665295344,0.1350378188566663
20.081576,5.637157617281541,0.13462811996518
20.08616,5.644621124476166,0.1342137439888084
20.090744,5.646277329393838,0.1338633463601552
20.095332,5.6544298034247085,0.1333478230645051
20.099932,5.655753356016834,0.1329131712996547
20.104524,5.648204748846625,0.1326060159049617
20.109108,5.63611482798955,0.1323148297750743
20.113704,5.624758015417348,0.1319650491327248
20.118292,5.61360143082481,0.1315433925954093
20.122888,5.598069858708178,0.1311792442785151
20.127476,5.577386049333951,0.1308755836029565
20.132072,5.55347105631157,0.1305963407724537
20.13666,5.5340090940788,0.1301951930998562
20.141256,5.516590370169616,0.129747152249499
20.14584,5.496351158203343,0.1293457086567915
20.15044,5.479054619008304,0.128884469268711
20.155024,5.455994918984941,0.1285277836861852
20.15962,5.437554575913963,0.1280949912458464
20.164228,5.422589785919433,0.1276170519271418
20.168824,5.4107339948589095,0.1271238786252665
20.173424,5.400432703265391,0.1266221124725176
20.17802,5.3904199225487925,0.1261545315392696
20.182608,5.384782129356288,0.1256330208788151
20.187204,5.370849198155288,0.1252954087220519
20.191792,5.364888992268974,0.1248538700037873
20.19638,5.366901511697344,0.1243072829249269
20.200968,5.372800279793226,0.123745213053053
20.20556,5.383729100432557,0.123138574024122
20.21014,5.395479312254019,0.1225864976349874
20.214739999999995,5.410460707723636,0.122012935125395
20.219332,5.427407298251322,0.1214562386709198
20.22392,5.447462887713017,0.1208842473231646
20.228512,5.461799457795016,0.1204720439004698
20.233092,5.474503485144492,0.1201271364807781
20.23768,5.493381368913358,0.11971043169375
20.242284,5.517655859368112,0.1192365356018122
20.246868,5.549003640689902,0.1186813950214806
20.25146,5.578185998973958,0.1181810067693889
20.256048,5.61006666060096,0.1176534900643442
20.260636,5.643091126103901,0.1171069999735344
20.265228,5.68007988353987,0.1165001468600934
20.269808,5.714248152918749,0.115933502673349
20.274412,5.74420776093631,0.115458145240383
20.278988,5.780952148943987,0.1148730080990418
20.283588,5.814220983875218,0.1143307090980792
20.288176,5.844669330749362,0.1138340056327372
20.292776,5.87241937428056,0.1133703213911797
20.297367999999995,5.899269983364111,0.1129245431920536
20.30196,5.924566092980657,0.1124848297031064
20.306552,5.953826494530233,0.111990228908271
20.311143999999995,5.9875399268694185,0.1114070952797971
20.315732,6.025339835855778,0.1107616070392584
20.320328,6.065671722022307,0.1100493723462624
20.324916,6.109435019816655,0.1092629748679581
20.3295,6.151521633429852,0.1085012459848337
20.334088,6.182692848957129,0.1078626752006977
20.33868,6.211532315283902,0.1072356908743808
20.343271999999995,6.241104889895548,0.106564060848932
20.34786,6.267446280859038,0.1059087948145512
20.352452,6.288391065136642,0.1053062679170925
20.357032,6.30393924272836,0.1047579785103774
20.361624,6.3209977783384526,0.1041609538546742
20.366208,6.339688856681066,0.1035090836174434
20.370795999999995,6.357724870004326,0.1028583764780424
20.375408,6.373962014432287,0.1022232149804302
20.379992,6.390810082430979,0.1015517048403766
20.384596,6.4090463237339,0.1008424286401953
20.389184,6.425850250283963,0.1001303567198351
20.393772,6.440078058205227,0.0994314875474669
20.398375999999995,6.445189336935868,0.0988174853945047
20.402964,6.446458508447626,0.0982532635574661
20.407568,6.442453257987642,0.0977269227076406
20.412156,6.439347441975306,0.0971961377353737
20.416748,6.435342191515322,0.0966747947229242
20.421328,6.4268397688171,0.0961868189084626
20.425924,6.420913464747676,0.0956816559181582
20.430512,6.4133104764971,0.0951827168101675
20.435116,6.403419880494648,0.0947257049224792
20.439708,6.394062164797406,0.0942836979659646
20.4443,6.386381133281312,0.0938337153622506
20.44888,6.378577917051074,0.0933889739152335
20.453476,6.37347300416378,0.0929253175362131
20.458064,6.365303233791105,0.0925018005094903
20.462656,6.354190790647195,0.0921125415344148
20.467248,6.346920454722167,0.0916830811380835
20.471832,6.341204618264143,0.0912572423747033
20.47642,6.334344977930183,0.0908517089102491
20.48102,6.327118783453781,0.0904681835653376
20.485608,6.322468707606181,0.0900727839719424
20.490196,6.3242368576062615,0.0896273289957146
20.494779999999995,6.323839584568607,0.0892150196452552
20.499368,6.324874626283813,0.0888125764906442
20.50396,6.319491442151337,0.0884569714789033
20.508548,6.311532139390064,0.0881106699135524
20.513128,6.309991062476472,0.0877180227360926
20.517736,6.312292092781763,0.0872888683221234
20.522324,6.316025437839912,0.0868715023294117
20.526912,6.323723074831089,0.0864115100594377
20.531504,6.330643462088764,0.085949742152379
20.536104,6.340506522117673,0.0854593072397943
20.540696,6.35384513522303,0.0849562440919122
20.545276,6.365140510004798,0.0844814364112439
20.549872,6.383997914510187,0.0839479848501056
20.554448,6.403754753463222,0.0834105329030468
20.559048,6.420324550216733,0.0829191787365777
20.563636,6.433829489484863,0.0824658149847893
20.568235999999995,6.451054351257729,0.0819895986682427
20.572828,6.470322451354182,0.0814932376111788
20.577424,6.49367702809781,0.0809565330967856
20.58202,6.515110551231996,0.0804398082831013
20.586616,6.538587312689771,0.0798999584486626
20.591204,6.564107312471131,0.0793414722200098
20.5958,6.595023918938379,0.0787555871545682
20.600392,6.6291717090537805,0.0781765341826559
20.604984,6.656901273321501,0.0776378466098282
20.609572,6.684508652875077,0.0771123052884624
20.614156,6.713259836304592,0.0765740817325368
20.618744,6.739068346962873,0.0760649896399261
20.623336,6.770640018449476,0.075519777845504
20.627932,6.799635571307283,0.0749834065793933
20.63252,6.829897112755173,0.0744305836659278
20.637112,6.861180273364859,0.0738713208207018
20.6417,6.887721892308012,0.0733493828888494
20.646296,6.916184564860608,0.0728184497304997
20.650884,6.947956464326875,0.0722489261815906
20.655467999999995,6.982915405992668,0.0716474228532805
20.660064,7.015176044315519,0.0710612494749455
20.664656,7.04653724819072,0.0704838404539338
20.669244,7.073934160132895,0.0699435423052371
20.673828,7.104273744846303,0.0693875444447497
20.67842,7.134857698988003,0.0688219444288776
20.683016,7.163520599520261,0.0682719574945307
20.687604,7.189363011995431,0.0677367892788652
20.692204,7.212629305841801,0.0672052955524751
20.69678,7.238716087745263,0.0666599880287664
20.701384,7.263126185467573,0.0661170869646831
20.705972,7.282017491789851,0.0655950435740743
20.710572,7.301808232559778,0.0650714918238162
20.715164,7.314159128320229,0.0645818077020948
20.719756,7.328186708261831,0.0640956677771345
20.724336,7.339638169574634,0.0636136603841261
20.728928,7.352111250049231,0.0631271681803273
20.733516,7.363807080790326,0.0626372130189906
20.738112,7.3719051737408305,0.0621559594979589
20.7427,7.376938409205954,0.0616997398226355
20.747292,7.37825172216634,0.061257177764264
20.751871999999995,7.377643981517283,0.0608232889227614
20.756464,7.372416883915843,0.0604020753045582
20.761056,7.365513102133253,0.0599771275285211
20.765647999999995,7.353867778684132,0.0595719246776621
20.77024,7.342999704968514,0.0591714838030031
20.774828,7.330577131785891,0.0587607758219775
20.779412,7.321219416088647,0.0583278471626314
20.783999999999995,7.313904938714991,0.0578806947586804
20.788588,7.30761208050313,0.057427214189526
20.793184,7.298620918948325,0.056975595179871
20.797772,7.293349679898256,0.0565117113506741
20.80236,7.2862795719528926,0.0560489521150344
20.806952,7.27974234431274,0.0556002036308748
20.81154,7.2712840630631455,0.0551593914145482
20.816136,7.2583727510239395,0.0547614998249955
20.820724,7.241497147051706,0.0543844595232934
20.825316,7.223599923917677,0.0540122639784399
20.829904,7.203659462460062,0.0536503077017755
20.834504,7.183719001002448,0.0532868614544016
20.839092,7.163411985402396,0.0529390431190658
20.843692,7.146824892307081,0.0525819187058376
20.848284,7.132813917840565,0.0522263402329607
20.852879999999995,7.122156311736346,0.0518800483940454
20.857456,7.11125433620384,0.051543889330159
20.862052,7.098964187367102,0.0512324302694851
20.866648,7.086063114959635,0.0509491423405586
