Time,Force,Position
17.887555999999996,4.274046580548887,0.1678195652122247
17.892156,4.373731591495154,0.1668934342961308
17.896735999999997,4.469842526835983,0.1657458815127539
17.901331999999996,4.554328617991168,0.1647301100910346
17.905924,4.625190768085751,0.1639306816396714
17.910524000000002,4.683861291872591,0.1633079856850377
17.915112,4.738557284094664,0.1626301530924333
17.919708,4.792099232809057,0.1618129924473252
17.924300000000002,4.842810453834623,0.1608838843705583
17.928891999999998,4.887015166115251,0.160043255199106
17.933479999999996,4.929210541889183,0.1591617448720533
17.938072,4.967231158118684,0.1583058650699197
17.942659999999997,4.999033776480168,0.1575350851739883
17.947248000000002,5.030059145108151,0.1567729483724971
17.951839999999997,5.063416262936639,0.1559972993859338
17.95642,5.104623921365667,0.1550829007869414
17.961016,5.143421787328669,0.1542617520006511
17.965600000000002,5.188760063853499,0.153299930600493
17.970196,5.23181073262645,0.1524249144109607
17.974784,5.276249574703631,0.1515066431250665
17.979376000000002,5.319544612904874,0.1506469967544041
17.983964,5.3601413477631725,0.1498512148482206
17.988552,5.393298237611997,0.1492286080171823
17.993147999999998,5.423879008832023,0.1486554181340973
17.997732,5.458546256699222,0.1479798420923784
18.002331999999996,5.493946612851298,0.1472408066960382
18.006928000000002,5.52497198147928,0.1465791322248409
18.011516,5.551866732011459,0.1459787119501014
18.016108,5.575285929467195,0.1454350419798582
18.0207,5.592897824645974,0.1449699474821222
18.025296,5.607645090319039,0.1445176165029336
18.029872,5.6227147686859125,0.1439894206147598
18.034472,5.6399057286418905,0.1433545661510679
18.039052,5.658973600758681,0.1426315855944251
18.043652,5.672234170598519,0.1419784298406785
18.048248,5.678010753980255,0.141419262029923
18.052848,5.685009184503447,0.1407641492909542
18.05744,5.682891085836014,0.1402681677135415
18.062036,5.681750464881748,0.1396966848797341
18.066632,5.676234856403389,0.1391902205430964
18.071224,5.665567010667433,0.1387510518002783
18.075824,5.651545796569178,0.1383495652466468
18.080424,5.638790571061008,0.1379031256786184
18.08502,5.626401899695274,0.1374273121645196
18.089616,5.610537675253095,0.1369997136903023
18.094204,5.598393373315652,0.1365052637584031
18.098796,5.590091178597093,0.1359355194842667
18.103388,5.586530525545063,0.1352803187821554
18.107984,5.588077968302002,0.1345123790343414
18.112572,5.588237237754711,0.1337875443182933
18.117172,5.585742345313103,0.1331543362212732
18.121764,5.5803489215488895,0.1326331222192899
18.126344,5.570624651709208,0.132222147597386
18.130936,5.558246219975213,0.1319024057274852
18.135524,5.550653471356377,0.1315471735302559
18.140116,5.545680982814967,0.131211398471466
18.144712,5.542429319903335,0.1309100157003792
18.1493,5.544452078963446,0.1305358134938883
18.153896,5.54688553361462,0.1301869450891699
18.158484,5.552427987199804,0.1298227865334622
18.163072,5.565043731652024,0.1293638673122348
18.167668,5.582933898075986,0.1288349035131908
18.17226,5.602012009824515,0.128327167585956
18.176864,5.621378632449964,0.1278558297612234
18.18146,5.640378700932976,0.1274118304294277
18.186056,5.656069542502315,0.1270571442472115
18.190632,5.670860949624007,0.1267196400736292
18.195224,5.6795226417749385,0.1265131069474508
18.199812,5.684875107012198,0.1263902377518472
18.204408,5.698933405849016,0.1261159919937867
18.209004,5.719121419656594,0.1257199901097744
18.2136,5.740575422054257,0.1252848351893643
18.218192,5.761374359432565,0.1248398848376449
18.222788,5.784338719848605,0.1243454333049017
18.227376,5.807791819121228,0.123822372663046
18.231968,5.832466765535308,0.1232166903321648
18.236556,5.857874820234261,0.1225673568709331
18.241152,5.883893798503944,0.1218812607733917
18.24574,5.91093439593542,0.1211827248470137
18.250324,5.937808667204121,0.1204517307576597
18.254916,5.962351189272316,0.1197388176435867
18.259508,5.9863608310353005,0.11901908362698
18.2641,6.011347950511452,0.1182386650613915
18.268688,6.032448821320091,0.1174656289656587
18.273288,6.055959484594753,0.1166338397914743
18.277876,6.079958886725999,0.1157708079225482
18.282468,6.103303223837889,0.1149069119735518
18.287056,6.127380669234651,0.1139884733907222
18.291644,6.149004180716762,0.1130803222394348
18.29624,6.165886150532342,0.1122498441454438
18.300828,6.175206090624302,0.1115238815512631
18.305416,6.1830937159634045,0.1107919471883296
18.310012,6.196500132702538,0.1099966491078419
18.3146,6.209906549441672,0.1092061382521727
18.319192,6.217671990066628,0.1084871340969766
18.323772,6.224704322406709,0.1078213803452126
18.328372,6.230226296728415,0.1072094050894839
18.33296,6.236281151355333,0.1066171396929136
18.33756,6.237838833744009,0.1060684818667461
18.342148,6.237108908380808,0.1055696017354788
18.346748,6.237933482484612,0.1050732016907799
18.351344,6.237492067998331,0.1046099091049328
18.355936,6.235662480207818,0.1041872236245457
18.360532,6.240661813856052,0.1037240741394505
18.365128,6.2442729742000544,0.1033015342321964
18.369724,6.24674033066812,0.102902321952734
18.37432,6.250640001889042,0.1025125753533278
18.378916,6.25854810649162,0.1021165466949063
18.383512,6.270831198618294,0.1016904065631146
18.388104,6.284790974926118,0.1012594982580385
18.392688,6.305291161795767,0.1007619923980843
18.397276,6.327878728437631,0.1002808692086636
18.401868,6.348545241470054,0.0998280013110274
18.406456,6.369333939216623,0.0993716714757293
18.411048,6.396663047525018,0.0988518587554516
18.41564,6.42129385249047,0.0983539008210324
18.420224,6.443470723541269,0.0978626735270937
18.424816,6.467690832915656,0.0973513017668111
18.429404,6.496408114528281,0.0968072431784189
18.433992,6.527168634464493,0.096237555228426
18.4386,6.556252470219555,0.0956812698628725
18.443192,6.586480109850557,0.0951075555403782
18.447784,6.617729368643353,0.0945243492135474
18.45238,6.645747443787993,0.0939521338467451
18.456968,6.673765518932634,0.0933815510134103
18.461556,6.7049706362768,0.0927683705837665
18.466148,6.734743438868107,0.0921512533541633
18.470744,6.760507808077759,0.0915391388228961
18.475328,6.785739296982202,0.0909175652845888
18.479924,6.807495232810197,0.0903138110784579
18.484512,6.824509626971662,0.0897552074845851
18.489112,6.842257129418001,0.0891584259434796
18.493696,6.858205762969044,0.0885743460665349
18.4983,6.873132777358294,0.0880053155625833
18.502892,6.886260922852247,0.0874522548791292
18.507484,6.903475544993376,0.0868530728517406
18.51208,6.92555389351518,0.0862114837693021
18.516676,6.942890700370453,0.0856138572081438
18.521264,6.957529203882784,0.085033449791558
18.525864,6.972167707395112,0.0844566856631841
18.530452,6.985784591745649,0.083893797476742
18.535048,7.000423095257979,0.0833242020879168
18.53964,7.013917794894369,0.0827745040755511
18.544224,7.027168125102469,0.0822396742331098
18.548816,7.043483312795949,0.0816760536528193
18.553408,7.056611458289904,0.0811539457868207
18.558004,7.066674746298476,0.0806632433067597
18.562592,7.084177879316523,0.0801318120534311
18.567184,7.103357696515721,0.0796040829014628
18.571768,7.125602371200297,0.079047078584961
18.57636,7.153854576141491,0.0784396488599589
18.580948,7.183783465263835,0.0778385048716197
18.585536,7.217676646319206,0.0772091155603582
18.590132,7.251814196802869,0.0765704198599012
18.594716,7.282476194210087,0.0759412029210127
18.59932,7.3119943877413665,0.0753341395712461
18.603916,7.335627235730175,0.0747744123783764
18.608512,7.360403887594923,0.0742006691608898
18.613108,7.385547093602107,0.0736095791875665
18.6177,7.4070925618187005,0.0730318773889293
18.622304,7.426184096120642,0.0724509690109119
18.6269,7.442455142365493,0.0718883219002178
18.631492,7.459337112181074,0.0712972021459178
18.63608,7.4763412667108,0.0707016587466139
18.64068,7.485006141783403,0.0701433161951873
18.645268,7.495059190160237,0.0695584568284507
18.649876,7.5082992807365985,0.0689402034730569
18.654464,7.51001304965631,0.0683920007768806
18.659068,7.50285465881369,0.0678618384889259
18.663652,7.493775214361628,0.0673430505370321
18.668248,7.477011555471801,0.0668678319866055
18.67284,7.452930236286646,0.0664157924562016
18.677436,7.422308506539663,0.0659899390869554
18.682027999999995,7.391808961506825,0.0655560833565325
18.68662,7.36466278483629,0.065123450245258
18.691212,7.3376387928799005,0.0646843973896889
18.6958,7.314579092856538,0.0642174387604995
18.700396,7.29025340424309,0.0637690741443368
18.704988,7.26940326870609,0.0633188095209784
18.709579999999995,7.250229817350238,0.0628681777737709
18.714172,7.230811996566096,0.0624258139466332
18.71876,7.206530449401277,0.0620065416441326
18.723348,7.181637978665728,0.0616161364315237
18.727948,7.155723888768389,0.0612319960743728
18.732536,7.141869000832908,0.06080817904308
18.73712,7.128791362630927,0.0603888131283348
18.741708,7.115224985572365,0.0599928714458712
18.746296,7.110120072685071,0.0595645399919872
18.750892,7.113642950131818,0.0591380837243558
18.755484,7.116554904007836,0.0587408791628015
18.760076,7.123841845407947,0.058341799607883
18.764668,7.139101512122744,0.0579371942394525
18.769256,7.1604128505427855,0.0575361546519652
18.77386,7.1811132653920975,0.057166618817879
18.77844,7.203734733850852,0.0567924029424334
18.783052,7.223291344824224,0.0564405055218124
18.78764,7.24080471747401,0.0561042431143853
18.792232,7.258562459552087,0.0557565014947325
18.796812,7.2712121058211965,0.0554444613995736
18.80142,7.288725478470983,0.0551129941445245
18.806008,7.308692785035421,0.054790081223417
18.810608,7.33904260938057,0.0544353023588366
18.815192,7.3683708145639235,0.0540876507074126
18.819784,7.3987206389090705,0.0537349565228918
18.824376,7.416766891864067,0.0534233630847763
18.828972,7.4322811676388945,0.0531487909633654
18.83356,7.446118759232572,0.0528698402666581
18.838148,7.451250517226691,0.0526250658364362
18.842736,7.450985668534922,0.0523841542243652
18.847324,7.44659020174735,0.0521265333578008
18.851908,7.438596997169188,0.0518704806819777
18.856504,7.42430775145749,0.0516180637243161
18.861096,7.401923595716961,0.0513685894622263
18.865688,7.375042267738195,0.0511195738536826
18.870284,7.340721094749953,0.0508839097866896
18.874872,7.298715707323947,0.05067217519118
18.87946,7.253767647126705,0.0504711356988131
