Time,Force,Position
18.913804,7.566223215193164,0.1476606189087553
18.918392,7.618746727667436,0.1467611876442705
18.92298,7.653104985394241,0.1459851713171879
18.927576,7.672451128756212,0.145335499352714
18.932176,7.6844354703742255,0.1447606965202451
18.936756,7.697197061725741,0.1441841161448349
18.94134,7.709303588057902,0.1436087562674896
18.945932,7.71948906078062,0.1430660850533328
18.950528,7.726609676017959,0.1425782638620853
18.955116,7.726534815674115,0.142182373872708
18.9597,7.725316151454331,0.1418130160652713
18.964288,7.722709313930316,0.1414827663390811
18.968884,7.717692683940276,0.1412086895543686
18.973472,7.716806672046038,0.1409003367579374
18.978068,7.723482689875421,0.1404855172948602
18.98266,7.730158707704804,0.1400716923170462
18.987236,7.737734159981836,0.1396459098710699
18.991828,7.745964677278224,0.1392242910329231
18.996416,7.748065479603852,0.1389081887145397
19.000992,7.746079805282304,0.1386619732051301
19.005592,7.745526445713613,0.1384148147191614
19.01018,7.751757866135042,0.1380670170222903
19.014772,7.759910340165913,0.137692603645423
19.019368,7.768062814196784,0.1373178864642431
19.023952,7.778136341837096,0.1369193147985213
19.028556,7.786288815867967,0.1365488197480011
19.033148,7.792520236289396,0.1362060998618839
19.03774,7.798996026139117,0.1358508267408174
19.04232,7.810579911797805,0.1354138059177528
19.046912,7.824573589922517,0.1349234027144569
19.0515,7.836113334132578,0.1344497014105185
19.056096,7.845443513856277,0.1339778319189402
19.060688,7.858205105207794,0.1334384359525371
19.065284,7.869534381806451,0.132899873574112
19.069876,7.874323247843283,0.1324441559102885
19.074468,7.875392191375378,0.1320321155490703
19.079072,7.8789931120876435,0.131561922573463
19.083668,7.88140608747534,0.1310783511067708
19.088256,7.889293712814441,0.1304948728515954
19.092848,7.89587120811483,0.1299001753693921
19.097428,7.904736311167096,0.129262899398563
19.10202,7.904895580619804,0.12874210404281
19.106608,7.902112177301277,0.128262636166418
19.1112,7.897652089801601,0.1277935299633918
19.115792,7.8864072223118065,0.1274159741346509
19.120384,7.87324130121257,0.1270624160313809
19.124976,7.862362987865214,0.1266631680966348
19.129564,7.851362489803709,0.1262702750385153
19.134148,7.83664206923747,0.1259204547840957
19.13874,7.820655660081144,0.1255984929953796
19.143328,7.806223750391823,0.1252708648854415
19.147916,7.79604464351245,0.1249109867831039
19.152508,7.782311940291114,0.1246235810955523
19.157092,7.769112117374989,0.1243463441562452
19.161692,7.757588978640014,0.1240569814462348
19.166288,7.753139130772075,0.1237035595353536
19.170884,7.748733424352765,0.1233883112582951
19.17548,7.747681086295755,0.1230526393544791
19.18008,7.746140009382162,0.1227446393003234
19.184668,7.750406234745522,0.1224039209685422
19.189268,7.750341614033416,0.122135234025818
19.193856,7.761314576121377,0.121755019419222
19.198456,7.776540341019285,0.1213477015643536
19.20304,7.796918343174787,0.1209052916403818
19.20764,7.824736190339765,0.1203859539453823
19.212232,7.857173394457128,0.1198202198751407
19.216824,7.887489316985387,0.1193285033980316
19.221416,7.921158607875944,0.1188228887396288
19.226008,7.956915278538718,0.1183276526250086
19.230596,7.995125883116143,0.1178237287275283
19.235188,8.036156975750659,0.1172948875314492
19.239776,8.081152360318201,0.1167284929424221
19.244364,8.131255840694713,0.1160990585390737
19.248948,8.182503124947162,0.1154538620238424
19.253544,8.239513570027936,0.1147542578963504
19.258124,8.295991134803499,0.1140561690953882
19.262712,8.351036384826205,0.1133593374392099
19.267308,8.40134009318238,0.1127139313443676
19.271896,8.447801694319667,0.1121111414034471
19.276488,8.494752034313544,0.11149334256295
19.281076,8.544112166773441,0.1108322635567965
19.285664,8.588564431404034,0.110198843205876
19.290256,8.629130447367116,0.1095731182263725
19.294848,8.667609083557984,0.1089441269070558
19.299448,8.699380983024254,0.1083469005528755
19.304044,8.729065502718305,0.1077440521612422
19.308628,8.76033842369625,0.1070686529204288
19.313224,8.784127358216093,0.1064224231768728
19.3178,8.803497163763215,0.1057678011317064
19.322396,8.82114614368056,0.1050889194827252
19.326984,8.831966202159158,0.1044415915024085
19.331584,8.83174867783769,0.1038788098752745
19.336172,8.825601666525124,0.1033416548056452
19.340768,8.818022340459699,0.1027995595357387
19.34536,8.803369723527238,0.1022985695164731
19.349952,8.78470867321312,0.1018032178442127
19.354544,8.766291992327291,0.1012962649465633
19.35914,8.751306723069284,0.1007388540647089
19.363744,8.73975286543909,0.1001314128718522
19.368336,8.723168955265448,0.0995394256239568
19.372936,8.706951599234246,0.098930676366341
19.377528,8.689590439327102,0.098337315290431
19.382116,8.6741503330294,0.0977269414330195
19.386712,8.656666988408109,0.0971363701094298
19.3913,8.646379119368001,0.0965058034039207
19.395884,8.637645749794899,0.0958766843594632
19.400476,8.629323075812863,0.0952655179273998
19.405068,8.627174258250216,0.0946254335392551
19.40966,8.626335570726281,0.0939946388616994
19.414236,8.625785394079266,0.0933866503462161
19.418832,8.632308508299287,0.0927469792654465
19.42342,8.64717090197643,0.0920545802454847
19.428008,8.666041729035232,0.0913626426184297
19.432616,8.688388109170477,0.0906627222915692
19.437204,8.713310607934524,0.0899550784152239
19.441808,8.738521617575486,0.0892706490568497
19.446396,8.766675299987686,0.0885687928300647
19.450984,8.795117493276802,0.0878947398512276
19.455572,8.822171513261688,0.087249801482491
19.460164,8.851190728304646,0.0866246019453925
19.46476,8.881397888672169,0.0860221109547587
19.469344,8.9113606796114,0.0854307218902185
19.473944,8.939813112532255,0.0848710027260994
19.47852,8.97059729465362,0.084316512342788
19.483124,8.99423014264243,0.0838275186279222
19.487716,9.016230447898716,0.0833752947549851
19.492316,9.035043710955476,0.0829558890997885
19.4969,9.051691550974503,0.0825617203771637
19.501484,9.073858182393565,0.0821433542235724
19.506068,9.095125379364978,0.0817294710827318
19.510664,9.112672653831654,0.0813370931214109
19.515256,9.125234017203509,0.0809837575658238
19.519856,9.135996511680064,0.0806388276291354
19.524444,9.144715767833036,0.0803130580075352
19.529028,9.154090089005363,0.0799952235626378
19.533616,9.161054617711669,0.0797079050111843
19.538208,9.159724008409476,0.0794913123235836
19.542792,9.152996792421398,0.0792933576361193
19.54738,9.14602520700503,0.0791054110518723
19.55198,9.139297991016951,0.0789073283215471
19.556568,9.131915710009515,0.0787027054560536
19.56116,9.127476101773318,0.0784792479291675
19.565744,9.126101351022498,0.0782323110493792
19.570332,9.125215339128262,0.0779662544435219
19.574928,9.12649475027176,0.0776785701779206
19.579516,9.12826290027184,0.0773712213074288
19.58412,9.134650407224305,0.0770452697283242
19.588712,9.14013847972912,0.0767222641352217
19.593304,9.140762825853262,0.0764293434491563
19.597896,9.145762159501492,0.0761289220336446
19.602476,9.152438177330875,0.0758284988043637
19.607068,9.162956302379142,0.0755081676874813
19.611648,9.169387950780235,0.0752170412613606
19.616248,9.172632556981805,0.0749533796513167
19.620832,9.17497772873572,0.0746928893150065
19.625432,9.1834526154604,0.0743878681264836
19.630016,9.1969134132799,0.0740488277744175
19.634608,9.215893002499437,0.0736895224112913
19.639196,9.234994776433116,0.073326062059626
19.643792,9.25679485370974,0.072957525364375
19.64838,9.277328942396275,0.0726075863707557
19.652976,9.293654369721498,0.0722923923399394
19.657564,9.30985761233257,0.0719845419367678
19.662156,9.324672681639411,0.0716995591861947
19.666744,9.344229292612784,0.0713955242899612
19.67134,9.364685338033803,0.0710907170629503
19.675928,9.382443080111882,0.0707943291345732
19.68052,9.403798559980553,0.0704907733191931
19.685116,9.426175659011015,0.0701807571196576
19.689704,9.44315615135559,0.0698848709123298
19.694296,9.460136643700164,0.0695903533074116
19.698884,9.473152844111713,0.0693186016539242
19.703476,9.494874878122818,0.0690062552369618
19.708072,9.521949377371184,0.0686527716764713
19.71266,9.551067114943136,0.0682883275491612
19.717264,9.578385983619793,0.0679310872725899
19.721852,9.606848656172389,0.0675646076458912
19.72644,9.631591406220249,0.0672111864236575
19.731032,9.655434721820455,0.0668601372000105
19.735632,9.67388143073478,0.0665207432264265
19.740236,9.691673074629747,0.066174334226617
19.744828,9.71097507654309,0.0658028810904747
19.74942,9.723736667894606,0.0654520226417011
19.754008,9.73596537894091,0.0650894355764797
19.758608,9.739854810530096,0.0647509478194161
19.7632,9.743089177099924,0.0644058250045747
19.7678,9.742070740859802,0.0640580406760461
19.772388,9.737698936257384,0.0637080566203815
19.776988,9.733693685797398,0.0633446420885296
19.781584,9.73071005449921,0.0629744367521481
19.786168,9.725028119858075,0.0626082877275048
19.79076,9.72277759684476,0.0622105826175723
19.795352,9.713209413536116,0.0618290702227146
19.799956,9.695834831075558,0.061479781453741
19.804552,9.676661379719707,0.0611331892909995
19.80914,9.656466309202065,0.0607921665691141
19.813736,9.633572935341473,0.0604537853405723
19.818324,9.615543287861565,0.0600961842116213
19.822908,9.600700682581175,0.0597175115825541
19.827496,9.59035524953903,0.0593331736181338
19.832088,9.58205305482047,0.0589379843855706
19.83668,9.574772479263704,0.0585371889103805
19.841268,9.576197737306495,0.0581058111839474
19.845868,9.579421864244583,0.0576732799215078
19.850456,9.58750971756335,0.0572218164049909
19.855048,9.595353201453822,0.0567801156833421
19.859636,9.608226737887746,0.0563459141308948
19.864224,9.619179220712226,0.0559170313779162
19.868824,9.63180838771786,0.0554930904273174
19.873408,9.645459173885287,0.0550646634937382
19.878012,9.660253763928653,0.054626480265089
19.882596,9.672882930934287,0.0542040324561596
19.887188,9.685512097939917,0.0537800666496936
19.891788,9.70210555687858,0.0533389628364866
19.89638,9.71281367027477,0.0529170986454149
19.900984,9.722744533937458,0.0524918149475082
19.905564,9.733208277905357,0.052078892774818
19.91016,9.737009426597282,0.0516827795961612
19.91474,9.73582466419439,0.0513065917115512
19.91934,9.72630062233437,0.0509409379855176
19.92392,9.708070746874792,0.0505981088966873
19.928516,9.685632210053896,0.0502772412902539
19.933096,9.652566786024,0.0499846206478513
