Time,Force,Position
18.236616,7.017837072245546,0.1523497991609703
18.241212,7.070679814491956,0.1518114847260532
18.245792,7.113907049059419,0.1513363697817188
18.250388,7.1487508627211325,0.1509716948085536
18.254968,7.17873095000217,0.1507005203360416
18.259552,7.207689418121413,0.1504565551173195
18.264132000000004,7.244454285392568,0.150078028173348
18.268728000000003,7.28775956322555,0.149600665523117
18.273312,7.326323299392,0.14920211170926
18.277912,7.3657864700061,0.1487960187969048
18.282508,7.406926324801347,0.1483826130889163
18.287104,7.449742863777746,0.1479566930068533
18.291692,7.494480456363585,0.1475076259530928
18.296284,7.543959590615958,0.1469894528939488
18.300864,7.587142683734793,0.1465567100370183
18.305448,7.63081451571021,0.1460970416469195
18.31004,7.673542771789354,0.1456119775828667
18.314628,7.719946808924605,0.1450415014388186
18.319224,7.767861204078231,0.1444281866332499
18.323804000000003,7.814221099764853,0.1438291853448324
18.328380000000003,7.857105442375031,0.1432772997618862
18.332976,7.901255773575293,0.1426980228835055
18.337560000000003,7.944751039756199,0.1421223763470205
18.342152,7.986813991184245,0.1415525126756168
18.346744,8.031286735078318,0.1409319718614403
18.351332,8.070240687572356,0.1403827318938156
18.355936,8.099833741447478,0.1399622339076109
18.360512,8.121209700579625,0.1396443793859793
18.365108,8.146139256053736,0.1392492066760415
18.369684,8.16861487761319,0.1388743253416858
18.374284000000003,8.187614946096204,0.1385384150103512
18.378872,8.202362211769268,0.1382411634310834
18.383472,8.210691251594652,0.1380225492804606
18.388064,8.211580446410563,0.1378985876851748
18.39266,8.217088998178856,0.1377174574220474
18.397252,8.221575930785356,0.137553337154504
18.401848,8.227861732287153,0.1373698361526026
18.406436,8.233248099341301,0.1371985841770169
18.411032,8.235569608910069,0.1370763853829634
18.415624,8.236869499317043,0.136970586966824
18.420216000000003,8.239068824171666,0.1368555995717704
18.4248,8.2392249107027,0.1367729667363348
18.429388000000003,8.236682693890792,0.1367192129381064
18.438564,8.224036230543353,0.136706997971652
18.443156,8.22251563289324,0.1366374662212327
18.447744,8.224959327176153,0.1365104879246698
18.452336000000003,8.232144563125596,0.1363223962009894
18.456924,8.241128667970335,0.1361178696688004
18.461528,8.25137876140516,0.1358859418662607
18.466112000000003,8.258031117049393,0.1356909696854836
18.4707,8.267870514893152,0.1354429781085126
18.475308,8.281796389384088,0.1351320367645805
18.479896,8.30107472911228,0.1347291920745421
18.484488,8.31646682017296,0.1343434262022577
18.489084,8.331570400356721,0.1339356970569513
18.49368,8.345363850501771,0.1335238291591308
18.498276,8.35298344422743,0.1331701610536018
18.502868,8.361824885094547,0.1327537635835059
18.507464,8.370622184513035,0.1323029405340704
18.512052,8.372346193064487,0.1319169544213782
18.516652,8.373615364576244,0.1314798701715703
18.521236,8.376761448248816,0.1309838939771246
18.525836,8.383050432672286,0.1304007632751618
18.53042,8.38418717983816,0.1298571098412997
18.535020000000003,8.380904798031311,0.1293175713057368
18.539612,8.380398762832924,0.1287125310955488
18.544208,8.378949151738261,0.1280822589311546
18.548796000000003,8.370548434490708,0.1275088459214198
18.553388,8.358017099147348,0.1269580646230211
18.557976000000004,8.347362675964805,0.1263465879754575
18.562572000000003,8.334132134153464,0.1257538314107617
18.56716,8.32151251591285,0.1251311403268367
18.571748,8.307338398205234,0.1245125569339484
18.576336,8.294063714945262,0.1238840620697854
18.580928,8.28397607388482,0.1232075164996929
18.585516,8.27184519450079,0.1225581495512054
18.590108,8.262534803173848,0.1218757542568507
18.594696,8.252613488276177,0.1212230575252315
18.599276000000003,8.24346942311201,0.120568288130569
18.603868,8.244952245156842,0.119790981419153
18.608456,8.248155892831456,0.1190400049270278
18.613044,8.25177023609713,0.1183082960922442
18.617648000000003,8.255673090239727,0.117601961588603
18.622236,8.263051497458768,0.1168680861951949
18.626844,8.275093403078822,0.1161281492613702
18.631436,8.28844543873759,0.1154060410750613
18.63604,8.303884854168572,0.1146957024421547
18.640636,8.322677637961856,0.1139674762489795
18.645224,8.349198777641533,0.1131975440746551
18.649816,8.378584546826925,0.1124387999639374
18.654396,8.413366922698208,0.1116449799613626
18.659,8.445617321389317,0.1109038787483251
18.663576,8.481098903728583,0.1101600225967643
18.668176000000003,8.520955473591943,0.1093963506781214
18.672756,8.56199998877987,0.1086598829189071
18.67734,8.605864992024886,0.1079011272033822
18.681924,8.655248786669935,0.1071083116874572
18.68652,8.710151372715014,0.1062818174137533
18.691108,8.766730642941248,0.1054564708839486
18.695704,8.818324002072654,0.1046951784316018
18.700292,8.8720827842418,0.1039141568413811
18.704888,8.922898893639706,0.1031635831853393
18.709476,8.973715003037611,0.1024193063023642
18.714060000000003,9.030294273263843,0.1016345020700532
18.718652,9.08621847847072,0.1008543805016751
18.72324,9.134458469239828,0.1001418501804593
18.727836000000003,9.181143960541934,0.0994348901010682
18.732416,9.226807832682246,0.0987400735952831
18.737008000000003,9.269240521174403,0.0980592631303668
18.741588,9.313183567684936,0.0973554865137368
18.746180000000003,9.352507257243085,0.096687689963654
18.750764,9.393996369838964,0.0959975164644554
18.755352,9.432787179091902,0.0953273505285424
18.759944,9.4670808161066,0.0946858461156919
18.764536,9.499164888634937,0.0940447108025212
18.769124,9.533414384201008,0.0933860151228802
18.773728,9.56226727308119,0.0927594648907418
18.778316,9.587766793599076,0.0921468265104688
18.782908,9.611711814649953,0.0915364316931
18.787488000000003,9.633857966805536,0.090934826843608
18.792088,9.651629131437025,0.0903513821030216
18.796668,9.670666284658598,0.0897488988053549
18.801268,9.689048372860816,0.0891432692265857
18.805864,9.701911669663,0.0885699993448589
18.81046,9.710932859246302,0.0880227140441964
18.815056,9.721586591562128,0.08743990702082
18.819648,9.7331397583256,0.0868555356897477
18.824256,9.750167575040477,0.0862183965584204
18.828852,9.762576034802969,0.0856039648158325
18.833444,9.767300280127692,0.0850370776103114
18.83804,9.77202452545242,0.0844700525735707
18.842636,9.775072086595996,0.0839062563709303
18.847232,9.776442963558422,0.0833442554811081
18.851812,9.777936025234991,0.0827772879603891
18.856396,9.776119859997896,0.0822442105761571
18.860984,9.768296164504177,0.0817546746294325
18.865576,9.759450849848667,0.0812720146547209
18.870172,9.747662862421922,0.0808079336908712
18.87476,9.73383163667159,0.0803586560311215
18.879352,9.722698714264205,0.0798998512321832
18.883940000000003,9.713897541057325,0.0794459342193452
18.888536,9.706895236745735,0.0789863595414177
18.893120000000003,9.69850475912992,0.0785482754995164
18.897708,9.68884829292402,0.0781261223512293
18.902308,9.680213445879916,0.0776954136483139
18.906892,9.677263716398611,0.0772692814330989
18.911484,9.671371314146077,0.0768606877203965
18.916076,9.658205393046842,0.0765085939036989
18.920664,9.649170090043407,0.0761563205847357
18.92526,9.647330262621155,0.075782649771501
18.929844000000003,9.64446881603711,0.0754155369844986
18.934444,9.643161868920073,0.0750530739721719
18.939032,9.643409421270036,0.074694667247367
18.943632,9.640469931420474,0.0743610143318203
18.948216,9.636631007123263,0.0740284734386416
18.952816,9.636756374759084,0.073671792367455
18.957408,9.6394578610237,0.0733126744614364
18.962000000000003,9.642037162574171,0.0729573927383248
18.966596000000003,9.64551589857229,0.072599332348381
18.971192,9.645396896779816,0.072250408028618
18.97578,9.643601210806194,0.0719017229803368
18.980376,9.639884471223132,0.0715624903163288
18.984952,9.637555904944298,0.0712024533096392
18.989548,9.63763713113149,0.0708146794208828
18.994136,9.63604167313753,0.0704255189586503
18.998724000000003,9.627739478418972,0.0700345154939284
19.003312,9.620703272290497,0.0696266658806255
19.007908,9.61481087003796,0.0692058356834383
19.012500000000003,9.604910034403767,0.0687751927708736
19.017088,9.590756395959628,0.0683451664244043
19.021688,9.578890365267362,0.0678920240582519
19.026272,9.565347650393951,0.0674378436453702
19.030864,9.550372620767682,0.0669724205168243
19.035448,9.54357054443576,0.0664565306386591
19.040036,9.541099314179302,0.0659059358824682
19.044632,9.535396900274693,0.0653477745513435
19.04922,9.529405975493164,0.0647693863264953
19.053808,9.5259470278918,0.0641602761262365
19.058404000000003,9.523754068880525,0.0635363346694207
19.063004,9.526547020964069,0.0628878385053197
19.067596,9.5306059616377,0.0622250838756035
19.072184,9.535930890901415,0.0615482395643778
19.07678,9.54305468906043,0.0608718330176712
19.081368,9.54711362973406,0.0602119469419276
19.085968,9.554115243178924,0.0595394029093427
19.090548,9.566635648023825,0.0588566926816231
19.095148,9.58005548731637,0.0581743796355366
19.099732000000003,9.594619130484856,0.057482029903889
19.104324,9.61445719562508,0.0567895398536455
19.108912,9.633518011031803,0.056092431029859
19.113508000000003,9.652456641724385,0.0554024301687123
19.118112000000004,9.668452599645727,0.054722018700756
19.122704,9.685880872319933,0.054054078401014
19.127292,9.693215138090345,0.0534331830451633
19.131888000000004,9.691599200832908,0.0528459951173232
19.136476,9.686429667233506,0.0522876405861762
19.141060000000003,9.67615203782514,0.0517522022639098
19.145648,9.66027757375122,0.051257237785535
19.150244,9.639950078887686,0.0507935122799501
19.154836000000003,9.607607523510923,0.0503757730620026
