Time,Force,Position
19.438075999999995,5.398252981116983,0.1741568179673188
19.442664,5.832760626063294,0.170544684236122
19.447272,6.240743257541537,0.1680250540004471
19.451864,6.62273375585692,0.1659699878516733
19.456456,6.982618369676956,0.1643418789377276
19.46104,7.310835972403066,0.1632817271445618
19.465636,7.6191131136715615,0.1622747866518568
19.47022,7.901153752348907,0.1614885382180038
19.474808,8.161455060673342,0.1607789263248096
19.479396,8.395275496978336,0.160196385294121
19.483979999999995,8.604702441036105,0.1596788243673685
19.488556,8.78409491673247,0.1593557086434918
19.493156,8.94150369264763,0.1590421837013491
19.497748,9.073986096010357,0.1587759775807192
19.502332,9.18754965707726,0.1584408137024963
19.50692,9.276797769162457,0.1581158764827419
19.511508,9.336700379722492,0.1578475986187704
19.5161,9.372698236891887,0.1576066807215095
19.520684,9.381814766082512,0.1574940199854642
19.525272,9.374687094135108,0.1574426737784812
19.529876,9.363795358234336,0.1574066507015552
19.534464,9.36484063958128,0.1572283757190594
19.53906,9.373447950651844,0.1569532754067143
19.543652,9.391538345055467,0.1565565637398517
19.548252,9.408729305011445,0.1561709469991683
19.552848,9.435481391566,0.1556251716116208
19.55744,9.460923348081842,0.1550797237091436
19.562031999999995,9.48313412094953,0.1545555691494107
19.566612,9.498638157092618,0.1540879341343782
19.571212,9.512421367605928,0.1536025310878524
19.575792,9.527792979403133,0.153040898063917
19.580392,9.54528587278944,0.1524093705378836
19.584984,9.5551725950035,0.1518421076974361
19.58958,9.565259545197224,0.1512318352242667
19.594159999999995,9.568884128094638,0.1506651566720142
19.598756,9.566823593429245,0.150135454859092
19.603348,9.565496167048726,0.1495661572895162
19.60794,9.55092159338178,0.149135269882979
19.612532,9.531805706027969,0.1487222053539171
19.975288,6.787658076034972,0.1486712213135571
19.979872,6.803413538316416,0.1486480510445464
19.98446,6.824076868427166,0.1485795513134773
19.989064,6.847849197471923,0.148490216537408
19.99364,6.8788170020978665,0.1483040342259873
19.998232,6.918124086180929,0.1479888218442699
20.002812,6.96229489664467,0.1475960763351178
20.007411999999995,7.010185629613147,0.1471527029544646
20.011996,7.065271838162809,0.1466180303786881
20.016596,7.129474575903093,0.1459635391103164
20.021187999999995,7.203526951118877,0.145144584521678
20.02578,7.28232086800119,0.1442762920002235
20.030372,7.360992600169358,0.1434386965253908
20.034956,7.439786517051672,0.1426087505061812
20.039544,7.52548739863825,0.1416777831592937
20.04414,7.616462702196568,0.1407122243105093
20.048728,7.715122220192653,0.1396641160172645
20.053312,7.813615412025963,0.1386251662196002
20.0579,7.910554104392271,0.1376124478478594
20.0625,8.01554356533878,0.1364954453945647
20.067096,8.126907110684341,0.1352966521265348
20.071676,8.246810163466689,0.1339949700621846
20.076268,8.372676605057022,0.1326075037858464
20.080856,8.507815662369012,0.1310854076848159
20.085448,8.637758340974784,0.1296015953338242
20.090048,8.771088289759742,0.1280679798189995
20.09464,8.90384121679086,0.1265330538951335
20.099236,9.038549099248312,0.1249469533416229
20.103815999999995,9.171614199341498,0.1233402214506773
20.108404,9.299927518136418,0.1217219985663366
20.112995999999995,9.421856512900543,0.1201255323973731
20.117584,9.53805624865324,0.1185525055682303
20.12218,9.651591582879878,0.116957329628367
20.12676,9.76528300363755,0.1153153417539973
20.131364,9.872467915650288,0.1136876829858227
20.135952,9.97339068834638,0.1120661184199102
20.140552,10.06282104120271,0.1105084092894669
20.14514,10.142313473686288,0.1090009026996567
20.149736,10.221839807986756,0.107446427389823
20.154328,10.292327656362117,0.1059389691286489
20.158924,10.354432083831725,0.1044814593424811
20.163504,10.402145560138967,0.1031275195596985
20.168099999999995,10.43816638862679,0.1018520004143501
20.172688,10.458041538505578,0.1007050846037109
20.177284,10.475873450060778,0.0995790664899754
20.18188,10.482301224673478,0.0985405399197941
20.186476,10.483987457619644,0.0975405851165949
20.191064,10.476112563967233,0.0966410339716937
20.19566,10.462885205077564,0.0957985299237022
20.200247999999995,10.4454933262752,0.0950250102745994
20.204844,10.427656850064883,0.0942978826751415
20.209432,10.409620145874904,0.093608767320541
20.214032,10.390117225115178,0.0929747833143993
20.218624,10.367593588318698,0.0923950943036301
20.223204,10.347445842171354,0.0918446980423437
20.227796,10.3277529330637,0.0913359848971517
20.232375999999995,10.314278021824066,0.0908328983866543
20.236964,10.306243858718943,0.0903342177879266
20.24156,10.296499109615787,0.0898994298608644
20.246148,10.28925243587591,0.0894900329503541
20.250756,10.284992576355895,0.0890891690207726
20.255351999999995,10.287561638274626,0.0886737715595013
20.25994,10.296959621632102,0.0882445809564907
20.264528,10.31841680695144,0.0877593686269887
20.26912,10.348091087013756,0.0872448156485805
20.273724,10.386881896266694,0.0866963221087737
20.278312,10.425183966663049,0.0861673101750779
20.28292,10.473213489820752,0.0855845211412852
20.287507999999995,10.528682857987937,0.0849752699279187
20.292108,10.587994333374,0.0843487977142502
20.296684,10.649715601226088,0.0837002534762935
20.301276,10.709105119877668,0.0830504120371609
20.30586,10.77102661570942,0.0823742523144085
20.310455999999995,10.836257338454844,0.081675354529249
20.315044,10.902998419218644,0.080960614228942
20.319636,10.969206619677232,0.0802404020910312
20.324224,11.029607517858867,0.0795266742103199
20.32882,11.08767666684,0.0788123222640455
20.333408,11.143414066620624,0.0780945270744278
20.338,11.19964020525783,0.077364438519402
20.34258,11.253045855837946,0.0766498630575666
20.34718,11.30657369113221,0.0759389663838265
20.351764,11.356381603921736,0.0752459752509624
20.356356,11.39916036729285,0.0745997062542473
20.360952,11.433355481778552,0.0739951482163897
20.365532,11.46436355406473,0.0734190290080628
20.370124,11.496926125817913,0.0728480321865964
20.374711999999995,11.52258173286683,0.0723159543743924
20.3793,11.5400643866214,0.0718345721199172
20.383896,11.559223724557118,0.0713571099169109
20.388484,11.576750519760315,0.070907403508614
20.393072,11.598530117773462,0.0704578935798495
20.397668,11.616756119444643,0.0700424774853371
20.402256,11.635026262564455,0.0696558620448398
20.406852,11.650886613218244,0.0692942063026407
20.411448,11.66727984417724,0.0689435421809212
20.416048,11.687681508517896,0.0686007093314865
20.420632,11.712458160382642,0.0682559652745157
20.425228,11.74569627641866,0.0678892465490147
20.429815999999995,11.78073326134997,0.0675228361906165
20.434416,11.819612353500162,0.0671456629561054
20.439008,11.855670957593269,0.0667793993226406
20.443608,11.898392156962345,0.0663962098375559
20.448196,11.942379344921504,0.0660019026196206
20.452788,11.992374063137282,0.0655845748866062
20.457367999999995,12.038238163257256,0.0651643840946436
20.461956,12.082792133338518,0.0647339291619346
20.466548,12.130777515047596,0.0642810246604606
20.471148,12.184481916136372,0.0637888703001944
20.475728,12.23278971053926,0.0633067868211774
20.480312,12.280931178779376,0.0628069767670648
20.4849,12.326985267247274,0.0622965554343641
20.489492,12.37953562482837,0.0617522463417762
20.494084,12.42525706097072,0.0612070128738026
20.498664,12.466725694303124,0.0606600273131309
20.50326,12.510848489529844,0.0600909167083121
20.507836,12.555704393041436,0.0595051346203999
20.512416,12.595285874581288,0.0589241489208398
20.517012,12.625873011644662,0.0583554016004431
20.5216,12.649919738146211,0.0578000197098673
20.526188,12.6733113996284,0.0572424531471611
20.530784,12.69592581137709,0.0566832505885366
20.535371999999995,12.70750264032571,0.056139983913558
20.539964,12.71650335064554,0.0555949919158031
20.544543999999995,12.717819846527595,0.055069093285795
20.549144,12.719913592143158,0.0545449010183679
20.553732,12.721107903311072,0.0540208623879984
20.558332,12.713229826736988,0.0535269644848882
20.562912,12.696279362420906,0.0530634000524274
20.567512,12.675486790885945,0.0526056185220676
20.572104,12.648442319666083,0.0521719469551523
20.576699999999995,12.616045383208954,0.0517620148685679
20.581284,12.570856136505094,0.0513853896132757
20.58588,12.5235014667635,0.0510162292643257
20.590475999999995,12.478722915650708,0.0506473832806631
20.595076,12.422584369044037,0.0503204248033856
20.599668,12.35725124998122,0.0500239812968117
20.604264,12.289630523166537,0.0497389900678018
20.608848,12.220255068905177,0.0494756841042924
20.613432,12.150635245215526,0.0492164891926202
20.61802,12.069777610746147,0.0489948657570322
20.622608,11.984466945487156,0.0487959622868673
20.627199999999995,11.90226527916218,0.0486078884348047
20.631788,11.819330504552324,0.0484385461935866
20.63638,11.736684240819391,0.0482849952622336
20.640968,11.65342705351573,0.0481472613258537
20.645551999999995,11.567515704317753,0.0480324515055013
20.650148,11.485857157929722,0.0479234805142991
20.654736,11.405508741580404,0.0478277340781422
20.65934,11.328024954736806,0.0477528508603752
20.741968,10.282837985121374,0.0477205647100107
20.746552,10.216402020709578,0.0477115520619197
20.75114,10.147101426792064,0.047676423009126
20.755724,10.070439031130594,0.0476140794150674
