Time,Force,Position
19.612892,8.966592812633506,0.1549131051310814
19.61748,9.033022411201957,0.1548838057509211
19.622072000000003,9.07955568976142,0.1548195196320516
19.626668,9.10329411698929,0.1548015969645495
19.631272000000003,9.116751731887115,0.1547152863046558
19.635864,9.124924685181464,0.1545862381748794
19.640468,9.13988241846593,0.154362064231069
19.645064,9.159792161028328,0.1541308853871275
19.649652,9.181789283362942,0.1538988918102128
19.654244,9.204852166307976,0.1536825874733751
19.658836,9.23216785206296,0.1534290886738593
19.663432,9.257929038350936,0.1531868009904427
19.668012,9.284711843800707,0.1529293696700423
19.672608,9.319178863688249,0.1525689604044989
19.6772,9.351191949661134,0.1522303725478562
19.68178,9.384104470081668,0.1518803228174923
19.686376000000003,9.418038609663997,0.1515168741935619
19.690964,9.450784803921756,0.1511434581137494
19.69556,9.483120302588448,0.1507621564582974
19.700156,9.515455801255143,0.1503827320641517
19.704732,9.552899395730808,0.1499260242039284
19.709324,9.589810109901256,0.1494667233811807
19.713912,9.624389074871203,0.1490201881602708
19.7185,9.654837421745343,0.1486054199363204
19.723092,9.676413608857152,0.1482792210953419
19.727684,9.696801850644396,0.1479459458229482
19.732276,9.713714539355191,0.1476472099140877
19.736856,9.726618794684333,0.1473725742953598
19.741452,9.736946931384674,0.1471203112238032
19.746032,9.745842753332155,0.1468700531371982
19.750624,9.750363587755546,0.146662024101278
19.755208,9.751164499674202,0.1464970268023941
19.759804000000003,9.75400864991644,0.1463030528795918
19.7644,9.752111258492148,0.1461669601350987
19.768992,9.74792625931598,0.1460713748314801
19.773580000000003,9.743863444853956,0.145970071945465
19.778176,9.740044999820226,0.1458578443522217
19.782764,9.738147608395934,0.1457218393241004
19.78736,9.73240810975276,0.1456333131244775
19.791948,9.727812414985529,0.1455248060736152
19.796532,9.724238339380086,0.1454021829941768
19.80112,9.718987579593495,0.1452917624540737
19.805712,9.714880623682845,0.1451615805124786
19.810296,9.712816906095778,0.1450028421545347
19.814884,9.717293599070542,0.1447709246586817
19.81948,9.71817255425471,0.1445740188316761
19.824060000000003,9.717374825257732,0.1443890004626665
19.82864,9.724261310698516,0.1441128707477238
19.833232,9.737277511110063,0.1437534688502045
19.83782,9.7505380809499,0.1433829995067397
19.842408,9.76428738964632,0.142990557585879
19.847012,9.783389163580004,0.1425182033618038
19.851596,9.797993765275445,0.1420901668641236
19.8562,9.814885974722763,0.1416242712180025
19.86078,9.833044172760168,0.1411322925467021
19.86538,9.855166662730598,0.140592548691537
19.869956,9.871892546015143,0.1401033691621209
19.874548,9.892049840927504,0.1395614618257712
19.879136000000003,9.912818059410595,0.138992622658552
19.883732,9.930110724817244,0.1384528215225047
19.888316,9.946381771062097,0.1379310713017697
19.892908,9.96289718673524,0.137400222216855
19.897508,9.98170021016026,0.1368353287538965
19.9021,10.001524852747076,0.1362594124368984
19.90668,10.024003657228208,0.1356358812256695
19.911264000000003,10.049425134480574,0.1349777730277724
19.915840000000003,10.077789284504172,0.1342867387073806
19.920432,10.099613023965947,0.1336647550210375
19.925016,10.116450852332898,0.1331053856321161
19.929604,10.137130787918734,0.1325084887302136
19.934196,10.157810723504566,0.1319119952532879
19.938772,10.17489292129981,0.1313484999233267
19.943368,10.194917791866288,0.1307533294789417
19.947952,10.215064847146913,0.1301562894879965
19.95254,10.239420563788856,0.1295083792122588
19.957148,10.260300727354354,0.128887496868313
19.961736,10.28436793311938,0.1282233579323246
19.966324,10.300750924446636,0.1276381557648009
19.97092,10.318932784669194,0.1270407868207773
19.975516,10.34120112153892,0.1263975883471844
19.980124,10.359993905332203,0.1257785649836808
19.984704,10.380829927449074,0.1251396512973884
19.989296,10.39950052652821,0.1245326210586598
19.993876,10.419314929483283,0.1239130055410548
19.998476,10.435042855791188,0.123342595909638
20.003064,10.451137336241526,0.1227593761615417
20.007668,10.471440478053184,0.1221325083659837
20.012248,10.495952281226163,0.1214587340391369
20.016844,10.521852257703372,0.1207606778481677
20.021436,10.54362161608478,0.1200825884748771
20.026032,10.569477451113364,0.1193651469387255
20.03062,10.59545547085609,0.1186440166126227
20.035204,10.622943848617194,0.117898560688477
20.039792,10.648999911625438,0.1171537251106702
20.044384,10.6704366176813,0.1164460845003457
20.048976,10.694938181222538,0.1157107385006404
20.053564,10.72328185198266,0.1149482816121276
20.058152,10.75673361855175,0.1141351364896891
20.062744,10.791451373710927,0.1133087298146319
20.06734,10.823348640813007,0.1125075863851083
20.071928,10.85651189650518,0.1116877419052013
20.07652,10.883911991369027,0.1109149419574496
20.081108,10.911800825089458,0.1101266654693876
20.085700000000003,10.93543685599994,0.1093577079268193
20.090296,10.958662191319354,0.1085759929291317
20.094884,10.982009711352916,0.107792883715678
20.09948,10.997917386377004,0.1070634506327003
20.104068,11.009205704448704,0.1063648648366796
20.108656,11.018939523053405,0.1056677215120415
20.113252000000003,11.027285168353874,0.1049919773827952
20.11784,11.028190968644868,0.1043639325915117
20.122432,11.029341138364154,0.1037270565887207
20.127024,11.021663289769736,0.1031577242165233
20.131624,11.01104276840408,0.1026096637969914
20.136204,10.999644997304925,0.1020599375723885
20.140804000000003,10.982850619519882,0.101537031251681
20.145388,10.9597602006013,0.1010450011302334
20.149988,10.934993097501572,0.1005565704518342
20.154580000000003,10.903807768554165,0.1001013864591438
20.159176,10.872988993749187,0.0996310424100537
20.163768,10.84241458837251,0.0991499622010543
20.168364,10.814127790747705,0.0986399547025311
20.17296,10.781998885904017,0.0981533750258435
20.177556000000003,10.747826742736745,0.0976805627566403
20.182144,10.712632980407676,0.0972135259945992
20.18674,10.676417598916816,0.0967531730566526
20.191328,10.638525533244804,0.0962927612291958
20.195912,10.600633467572797,0.0958291688175639
20.200504,10.562619217186638,0.095367249189656
20.205096,10.52611532481886,0.0948760615177228
20.209688,10.489611432451078,0.0943806568735761
20.21428,10.451186486473857,0.0938947451479512
20.218872,10.418769070753246,0.0933590908463506
20.223460000000003,10.390193762251524,0.0927962950525093
20.228052,10.364316757092745,0.0922199848188244
20.232648,10.34179312029626,0.0916353217152139
20.237224,10.321601232700289,0.0910504881218382
20.241832,10.300021171800086,0.0904858757240782
20.24642,10.28383771758577,0.0898972730211885
20.251024,10.266143905353076,0.0893335558321853
20.255612,10.246162485368506,0.0887931971267671
20.260204,10.227735564850942,0.0882537066059789
20.264796,10.211884762962177,0.0877060604677749
20.269388,10.2004089485975,0.0871435067503542
20.273984,10.192408687309271,0.0865712185352118
20.278572,10.185185675754546,0.0860001264815832
20.283168,10.17902842481024,0.0854462302796178
20.287748,10.175080738352296,0.0848996610730885
20.292352,10.17088868246606,0.0843609795494775
20.296936,10.167762387190246,0.083842824633881
20.301536,10.174652055552706,0.0832866438622045
20.306132,10.181297354486874,0.0827378175129761
20.310728,10.189497152888046,0.0821934242738136
20.315312,10.19822983159443,0.0816615439504207
20.319896,10.205818706424871,0.0811424985701649
20.324484,10.212385962093522,0.080631569152722
20.32908,10.217809413886233,0.0801319421100343
20.333668000000003,10.224010115412446,0.0796335243570526
20.338256,10.228045393900924,0.0791551541096853
20.342836,10.233102291551198,0.0786691138851907
20.347436,10.242778546153858,0.0781657907362378
20.352028,10.251433181594722,0.0776704106514387
20.356616,10.26200887064503,0.0771666869862976
20.361212,10.274383428590632,0.076660108786282
20.3658,10.289334105165032,0.0761543625338154
20.370392,10.303018793149349,0.0756650174293057
20.37498,10.32181157694263,0.0751427993941874
20.379568,10.340848730164202,0.0746132773931862
20.384176,10.362462002014574,0.074082275880227
20.388764,10.386118512188531,0.0735406491407699
20.39336,10.403889676820024,0.0730342828195205
20.397948,10.42681307870911,0.0725249726188199
20.402536,10.44757105756046,0.0720343521207262
20.407132,10.467185232535876,0.071556171663236
20.411724,10.489375526140089,0.0710781425532559
20.41632,10.510954896173567,0.0706214518922403
20.4209,10.537275807873582,0.0701483917357258
20.4255,10.564373969307098,0.0696786324952175
20.430088,10.589184522988734,0.0692288122904451
20.434688,10.611707468918492,0.0687992384564223
20.439276,10.629000134325135,0.0684050872008306
20.443876,10.645559691446907,0.0680363305647722
20.448464,10.659709456102656,0.0676933083771856
20.453056,10.669650559397086,0.0673791526184774
20.457648,10.670885829091954,0.0671020126201522
20.462244,10.672898348520324,0.0668273931048595
20.46684,10.67507719411147,0.0665778112949034
20.47144,10.67394681278894,0.0663537337586148
20.476032,10.671672627590477,0.0661399867384823
20.480632,10.665189781030689,0.0659535505928373
20.48522,10.654742642537872,0.0657853478693101
20.489804,10.640209027397884,0.0656402185609764
20.494392,10.625308858115458,0.0655072046649373
20.498992,10.607221646633503,0.0653950717831462
20.503584,10.584925773790234,0.065309597158414
20.508176,10.566716377594137,0.0652011244960317
20.51276,10.54237726642728,0.0651260475645497
20.517348,10.522290958070366,0.0650517123546823
20.521944,10.507723441113487,0.0649645079893449
20.526528,10.497653096394847,0.064870015098552
20.531116,10.491058304752658,0.0647738530082362
20.535712,10.486628936148197,0.0646624445292749
20.540296,10.485797305334328,0.0645456694556745
20.544888,10.49252770424408,0.0644061816696906
20.549484,10.5084968170586,0.0642452297766819
20.554084,10.524099375730682,0.0640968121914282
20.558676,10.53765869607918,0.0639599198582456
20.563268,10.560701099760736,0.0637948205022468
20.56786,10.586319622071091,0.063630991856763
20.57244,10.621421227714508,0.0634403890501451
20.57704,10.664739928100902,0.0632353745556585
20.58162,10.711245670686823,0.0630116056410308
20.58622,10.76339238938692,0.0627743869004383
20.590816,10.825144376134224,0.0625075670249455
20.595412,10.892004458690495,0.0622165792897086
20.6,10.959763975694417,0.0619293292523282
20.604592,11.036473695726189,0.0616074775349963
20.609188,11.108031178500362,0.0612873874970179
20.61378,11.178156346521677,0.0609609765076514
20.618368,11.253511795066109,0.060612096122368
20.622968,11.333686828542586,0.0602259846053816
20.627556,11.418192708094526,0.0598192665989481
20.632144,11.500611207874254,0.0594003200077807
20.636728,11.578244024538822,0.0589740263728373
20.641328,11.652112777250023,0.0585347788612726
20.64592,11.727980626836189,0.0580641575872534
20.650512,11.802005466078429,0.0575713593239066
20.655104,11.86805758000598,0.0570865741707108
20.659692,11.933166118037258,0.0565818852272095
20.664288,11.985926943229758,0.0560826626329887
20.668876,12.034146454735392,0.0555655358967711
20.673468,12.07913478259287,0.0550419869245428
20.678064,12.113818635935155,0.0545113753256593
20.682644,12.135910407010371,0.0539892720030273
20.687232,12.14978508334261,0.0534748152244085
20.691828,12.149024439084194,0.0529721835632651
20.696416,12.132362485645032,0.0524931251737739
20.70102,12.111447729395923,0.0520060811305203
20.705612,12.083337497565635,0.0515194313314405
20.710208,12.037282718231015,0.0510622233435022
