Time,Force,Position
22.286228,2.376151628238649,0.1989333282423057
22.290808,2.3789618766639995,0.1984172317001512
22.295408,2.3850033087375047,0.1977851248055142
22.299988,2.397873662249755,0.1968794723015634
22.304568000000003,2.4175729372007515,0.1957073827207963
22.309176,2.4427129602862627,0.1944182691132098
22.313764,2.4785240120294034,0.1926755166176888
22.31836,2.515400824382965,0.1910369381936587
22.322948,2.5672014682041038,0.1888200036894123
22.327536,2.6281627826644938,0.1862551700753112
22.332132,2.7014718099636634,0.1831383516417854
22.336724,2.784840942349733,0.1797497264387931
22.341328,2.879413983698642,0.1760701837811604
22.345916000000003,2.9759522201056208,0.1726581985969654
22.350512,3.077398324341903,0.1692566882033987
22.3551,3.186039904159369,0.1657417269265027
22.359696,3.297257602605632,0.1623188866935868
22.364288,3.418613449404313,0.1586405575678553
22.368892,3.543811403421877,0.1549838637201531
22.373476,3.669253726867733,0.1514604609474444
22.378072000000003,3.79044324750364,0.1482278414801594
22.382652,3.908035030348956,0.1452877589462407
22.387244000000003,4.025748997908418,0.1424196834867744
22.391844,4.137944174067846,0.1398410848771652
22.39644,4.24666379715083,0.1374479156114043
22.401032,4.352396606013949,0.1351690663228196
22.405624000000003,4.450933939295886,0.1331576603811805
22.410212,4.547383892805609,0.1311876501857719
22.4148,4.633162817657702,0.1295343136259387
22.419392,4.721307393527192,0.127811499779169
22.423984,4.805443536015025,0.1262082566629334
22.42858,4.885693429835347,0.1247155749902771
22.433168,4.961035455826364,0.1233611227513872
22.43776,5.03224686372158,0.1220911226870913
22.44234,5.100227087968641,0.1208892707977916
22.446936,5.162277825224604,0.1197983149490905
22.451528000000003,5.221219563546558,0.1187509394542284
22.456116,5.273987445449123,0.1178268210809556
22.460712,5.325445197312975,0.1169258100096251
22.4653,5.376003514729179,0.1160566277970777
22.469900000000003,5.428849439897261,0.1151472508656212
22.474496,5.483205723083721,0.1142045988355593
22.479088,5.540871233183852,0.1132140344157236
22.483684,5.599025482140564,0.1121954081077056
22.488276,5.656524666077921,0.1111796505634115
22.49288,5.713246600281775,0.1101786038770915
22.497476,5.76943565418042,0.1091619904327173
22.50208,5.825746892793208,0.1081471752359058
22.506656,5.886266792767317,0.1070601136674494
22.511256000000003,5.936281990246571,0.1061392752711741
22.515844,5.986785926582409,0.1052052597759994
22.520444,6.032792690680006,0.1043283163198763
22.525036,6.071848348624714,0.1035141790697649
22.529632,6.111270560711858,0.1026861085775962
22.534216,6.147583773864991,0.1018670335915691
22.538808000000003,6.182464672265268,0.1010482680358917
22.5434,6.216446136217898,0.1002464910576057
22.547992,6.24719641652237,0.0994601543725017
22.552584000000003,6.272672274855102,0.0987235027320372
22.557184,6.295039134253825,0.0979914093778886
22.561776,6.313808255861959,0.0972975723714537
22.566368,6.329879074127148,0.0966348856642513
22.57096,6.338632232097007,0.0960425536709987
22.575556,6.346730325047511,0.0954445998349035
22.580144,6.355439341568744,0.0948129030895451
22.58474,6.365414346680061,0.0941573428458481
22.589332,6.378209839848467,0.0934779030453515
22.59392,6.392271321606957,0.0927758653967516
22.598512,6.404656119184299,0.092086274753569
22.6031,6.420760839266377,0.0913621603865289
22.607696,6.431102398520131,0.0906985182454852
22.61228,6.438623469716796,0.0900562040799846
22.616868,6.44896502897055,0.0893877698390549
22.621468,6.458651523204947,0.088716063455912
22.626060000000003,6.47205793994408,0.0880193137421647
22.630648,6.48558654139736,0.0873184490421304
22.635244,6.499481696993077,0.0866008204170865
22.639832,6.517096775093532,0.0858605022881335
22.644436,6.532790799584544,0.0851360197838072
22.649032,6.548362639361412,0.0844191675299264
22.653624,6.562379979671274,0.0836989953940603
22.658216000000003,6.574598451085841,0.0829915422045225
22.662816,6.586816922500409,0.0822819363038149
22.667404,6.60173369725792,0.0815639263910444
22.671996,6.614485048977698,0.0808794573799105
22.676588,6.622494859030945,0.0802332308023303
22.681184,6.630093973493128,0.0795688844824585
22.685768000000003,6.635772034345869,0.0789239794864204
22.690356,6.638629607141518,0.0782993252155282
22.694948,6.643652602974902,0.0776492167091217
22.699544000000003,6.656359813246054,0.0769443177644321
22.704136,6.675851803507322,0.0761863810099386
22.70872,6.695343793768588,0.0754317896608351
22.713308,6.71189311125862,0.0747039123020374
22.717896000000003,6.726521375139212,0.0739972228659573
22.722484,6.739883650429718,0.0733153740282862
22.72708,6.753123741006079,0.0726448563621708
22.731672000000003,6.761500105201763,0.0720133304063422
22.736256,6.77257477274039,0.0713712500990386
22.740848,6.78557049388846,0.0707184308182518
22.745436,6.803840637008271,0.0700587454095596
22.750032,6.825708517918673,0.0693923035707841
22.754624,6.850274702172019,0.0687190056585858
22.759212,6.872142583082421,0.0680602745021805
22.763816,6.89580933288812,0.0673988027990485
22.7684,6.921152766874967,0.0667370814103231
22.772988,6.945885277291087,0.0661130918637729
22.777572,6.970373418278914,0.0655045488512931
22.782164,6.996293874019602,0.0649109391903282
22.786768,7.020293276150847,0.0643336734005049
22.791364,7.034687410234887,0.0638126455833039
22.795964,7.04613887154769,0.0633146629539323
22.800548,7.057345963432203,0.0628306636602937
22.805148000000003,7.069330305050218,0.0623502894497408
22.809732,7.081070277239941,0.0618851547857787
22.814332,7.094609118324959,0.0614174710840424
22.818924000000003,7.105205286638743,0.0609684362072196
22.823512,7.116945258828466,0.0605048624617762
22.828096,7.1292181113234,0.0600597012816215
22.832692,7.142512582980128,0.059610644830955
22.83728,7.152986566579767,0.0591767713907395
22.841880000000003,7.155898520455785,0.0587724504760976
22.846472,7.157011605436507,0.0583715734950874
22.851064,7.15530420236014,0.05797977764175
22.855652,7.149754692064891,0.0576043791015481
22.86024,7.14624842009323,0.0572146862353544
22.864828000000003,7.139144410330976,0.0568287594142795
22.86942,7.130119346959281,0.0564501425276547
22.874012,7.121216468301733,0.0560654248593297
22.878608,7.111047601054097,0.0556992715017869
22.8832,7.103699221863553,0.0553208077467148
22.887792,7.099293515444243,0.0549290224571953
22.892384,7.096031612900872,0.05452511206577
22.896964,7.094690763966944,0.0541139338765239
22.901552,7.085910070023539,0.0537179993552264
22.90616,7.0765964957749246,0.0533051578835419
22.91074,7.067160736812164,0.0528962330751761
22.915352,7.059035107888115,0.0525101106910312
22.91994,7.047556110601767,0.052113251378751
22.924528,7.028925779182865,0.0517607351541378
22.929124,7.0035106677738455,0.051433406018546
22.933716,6.980549490279477,0.0511136626215497
22.93832,6.9527245864044325,0.0508111680469465
22.942908000000003,6.927231431729895,0.050523832136751
22.947512000000003,6.9035371459506525,0.0502335233061489
22.952092,6.875756383524237,0.0499677341164002
22.956692,6.848630686117177,0.0497115843398251
22.96128,6.8207277389766165,0.0494467574510925
22.965884000000003,6.789882119064819,0.0491933801790417
22.970468,6.756216011095933,0.0489446162785303
22.975064000000003,6.7230827834322575,0.0487129010597515
22.979648,6.680877168026587,0.048531681465354
22.984244,6.6326640223643,0.048380432846456
22.988840000000003,6.579342780893046,0.0482599576846681
22.993436000000003,6.532439765269472,0.0481297736397668
22.998024,6.481083718856286,0.0480424138771962
23.002616000000003,6.427806618833662,0.0479594224145525
