Time,Force,Position
28.327936,2.793932568948499,0.1608698493299119
28.332524,2.8949481891969584,0.1605019447636902
28.337116,2.9863041603178444,0.1601484487704599
28.341695999999995,3.0680004823111564,0.1598149475192963
28.346284,3.146577565738721,0.1592180097405674
28.350867999999995,3.2156171847528574,0.1586625099676976
28.35546,3.2825591843630404,0.1578049500359248
28.360036,3.3379204812362087,0.1570956041405957
28.364632,3.3815788906582145,0.1565564318678741
28.369219999999995,3.414189477648417,0.1561688666841271
28.373804,3.430888515826138,0.1561181515887471
28.378408,3.440914719096149,0.1560455690158562
28.383008,3.445700402211308,0.1559495083386133
28.396788,3.433664862434599,0.1559136201940773
28.401368,3.430389537337817,0.1558944927451968
28.405964,3.433288068660424,0.1556964567520078
28.410547999999995,3.437496730021744,0.155505860206624
28.415148,3.4418717175458378,0.1553842076742378
28.419732,3.4464130312327046,0.1553309451313801
28.424323999999995,3.45635095160546,0.1551174437104027
28.42892,3.4702973053598707,0.1548318435404416
28.433512,3.4890293422294407,0.1544640779433437
28.438112,3.5031861635952537,0.154327561953601
28.447292,3.5331867301397684,0.1542755855703637
28.451888,3.5523397022321417,0.1542095412443478
28.456476,3.5729249890773738,0.1541342999856543
28.46106,3.595842025123113,0.154025300534542
28.465648,3.625954536750035,0.1536999062161604
28.470244,3.658110286700544,0.1532921369669024
28.474836,3.6936194050133535,0.1528316516422326
28.479412,3.734158575869612,0.1522840659627153
28.484003999999995,3.7742090078692887,0.1518032147469797
28.488592,3.816302678192552,0.1512528665067893
28.49318,3.8583963485158153,0.1507224125414172
28.497788,3.8982024110872,0.1502966371193586
28.502376,3.937109039210937,0.1498918057801677
28.506972,3.9778145362299697,0.1494506516616825
28.511564,4.016476794925416,0.1490814000744146
28.516151999999995,4.05321800001142,0.1487853563722828
28.520748,4.088282520916274,0.1485251948010515
28.525331999999995,4.121914727068271,0.1482781481105759
28.529924,4.158489605991501,0.1479305517187978
28.855908,3.716087278996024,0.1477801736541583
28.860503999999995,3.7102697370873337,0.1476436908093612
28.865096,3.701920217998473,0.1476374509904128
28.869696,3.697168436700203,0.1475381133078482
28.874284,3.692416655401935,0.1474377723912308
28.878872,3.694982534398993,0.1471491939639507
28.883448,3.7043331933861694,0.1466578598158487
28.888032,3.713806037087493,0.146150948234944
28.892616,3.725854999417613,0.145600671940217
28.897196,3.742889872842556,0.1448957551040704
28.901788,3.765810091809968,0.1440293790641282
28.906372,3.7979248832335215,0.1428448406557958
28.910948,3.837846073808986,0.1414425695326597
28.915548,3.881853741031625,0.1399214191652313
28.920127999999995,3.923818169930677,0.1384973919887826
28.924724,3.970646325210405,0.1369440903051144
28.92932,4.021438772423162,0.1352931941399429
28.933908,4.071986850207627,0.1336848913725003
28.938504,4.124578166315679,0.1320602696667661
28.943088,4.176392232690229,0.1304736129013595
28.947688,4.228817222635508,0.1288297635932034
28.952276,4.276989409770838,0.1272908446217826
28.956872,4.329492442981634,0.1256141669204555
28.961455999999995,4.379297172849487,0.124018400681968
28.966056,4.425626349640894,0.1224914863852812
28.97064,4.469379407803504,0.121038250805007
28.975231999999995,4.508268739585436,0.1197242479289673
29.191044,2.860704516650384,0.1190895034365411
29.195632,2.8365214920145605,0.1189869064126308
29.200223999999995,2.81671345490283,0.1188064122214689
29.204812,2.8036901977812168,0.1184234733853729
29.209416,2.798884035402581,0.1178418729422658
29.214012,2.791545895843775,0.1173958143848815
29.2186,2.7875611246472687,0.1168984622952436
29.223192,2.785253037631912,0.1163707564135693
29.227788,2.790140426197739,0.1156779026721157
29.23238,2.7932730873168987,0.1151258857207191
29.236968,2.804011919608306,0.1144574688067704
29.241568,2.8214574886243127,0.1136951471773399
29.246148,2.837026145479508,0.1131055926694722
29.250736,2.855459431840419,0.1125575984145479
29.25532,2.886240431040109,0.1117984692388066
29.259916,2.9247497861261933,0.1109191762324729
29.264496,2.9685335631840184,0.1099652004796228
29.269088,3.0163257736235,0.1090100690704988
29.273684,3.069025851892286,0.1080489807789156
29.278272,3.123036060199785,0.1071546083224656
29.28286,3.179378017707791,0.1062953528975245
29.287448,3.234331801911566,0.1055556662221828
29.292036,3.292516769763496,0.1048133456268019
29.296636,3.353810736549434,0.1040863919238104
29.301224,3.4148603339070807,0.1034231536951737
29.305807999999995,3.487069698778939,0.1025577508423507
29.3104,3.5646756703366846,0.101646952294747
29.314988,3.6474338791520258,0.1006930011471967
29.31958,3.729048284091428,0.0998279901555974
29.324168,3.819246337916243,0.0988172781026064
29.328755999999995,3.9123870645122936,0.0978114738341322
29.333359999999995,4.002340748908817,0.0969075075770641
29.33794,4.096136540524224,0.0959517359419721
29.342528,4.188377832672627,0.0950276063067615
29.347112,4.273423649239846,0.0942459705832386
29.3517,4.358058770216001,0.0934623741866649
29.356296,4.4428160759063005,0.0927058479553829
29.360883999999995,4.52536381711024,0.0919579696340964
29.36548,4.606357058847174,0.0912391133110543
29.370068,4.682975313060015,0.090562187060832
29.374668,4.758161252519997,0.0898955597281229
29.379256,4.828072770008238,0.0892704871795537
29.383856,4.895530353581827,0.0886593607872054
29.388448,4.961677807116703,0.0880383944214279
29.393044,5.024716261717571,0.087422065137818
29.397635999999995,5.078516002413668,0.0869169406933624
29.402232,5.127041321138024,0.0864624643169897
29.40682,5.17360144480431,0.0859856932750685
29.411416,5.214232081479499,0.0855333420515526
29.416008,5.24496893923056,0.085166064781399
29.420596,5.26286934528626,0.0849150659670797
29.42518,5.28276884821692,0.0845772354324339
29.429768,5.299559352213572,0.0842360924370679
29.434356,5.313240857276214,0.0838876515095257
29.438948,5.3225473748147625,0.0835616734693413
29.443544,5.327356720115073,0.083269865218239
29.448132,5.327013828157787,0.08299964769217
29.45272,5.326015871181144,0.0827195229155065
29.457308,5.317167373603961,0.0824742819326453
29.4619,5.311505918226304,0.0821767728216504
29.466496,5.301591660038699,0.0818904107300343
29.471084,5.296130432640708,0.0815205976153677
29.47568,5.289481259918147,0.0811184762531314
29.480268,5.281277587728583,0.0807109935827264
29.484864,5.271152861929576,0.080321314066115
29.48946,5.265481166920182,0.0798502416618526
29.494048,5.258377157157929,0.0793638465087458
29.49864,5.246653790443291,0.0789104802568521
29.503219999999995,5.238772530947536,0.0784182112314783
29.50782,5.234977748098953,0.0778703025041923
29.512408,5.238334299382927,0.0772230650640817
29.517008,5.2378487434480165,0.0766140293954743
29.521596,5.232621645846576,0.07604381241609
29.526195999999995,5.230092851588079,0.0754610030154051
29.53078,5.229607295653169,0.0748481321861579
29.535372,5.227567240251256,0.0742237537748754
29.53996,5.223850500668192,0.0735963125392901
29.544552,5.217313273028038,0.072990438372828
29.54914,5.219237509559153,0.0723189182080018
29.553732,5.219362877194971,0.0716596335153262
29.55832,5.21810007152656,0.071034084878971
29.562912,5.214016777801058,0.0704315679766085
29.5675,5.209689114647267,0.0698448190565171
29.572099999999995,5.20433983233168,0.0692699234080603
29.576688,5.200911603625536,0.0686772737704537
29.581264,5.195440136595804,0.0681116114901079
29.58586,5.190090854280218,0.0675359303375855
29.590448,5.188339309755223,0.0669451339673209
29.59504,5.186587765230229,0.0663572333970326
29.599628,5.183814601543441,0.0657828096696627
29.604208,5.179775449266568,0.0652381861157182
29.608816,5.182398892265668,0.0646525417595764
29.613404,5.190663311378944,0.0640329600387152
29.618008,5.195207807987485,0.0634340816662934
29.622596,5.204616030976701,0.0628032021193407
29.627184,5.219420860651805,0.0621603299810087
29.631788,5.238600677851003,0.061515527322507
29.636384,5.261622602269084,0.0608490833916203
29.640988,5.2777375619829,0.0602425801489811
29.64558,5.290909848925482,0.0596573972464422
29.650179999999995,5.310089666124679,0.0590216848756857
29.65476,5.3277591253055,0.0584272623408588
29.65936,5.346328018933969,0.057832379320957
29.66394,5.365019097276584,0.0572301820571087
29.66854,5.385753413942786,0.056614116861758
29.673132,5.4072649803424895,0.0560088001208716
29.677728,5.430086676780907,0.0554353552827988
29.682312,5.453274927361761,0.0548443030032254
29.686903999999995,5.472621070723733,0.0542748761289143
29.691504,5.489801791047971,0.0537317216381183
29.696096,5.507759761105712,0.0531982180220415
29.700696,5.513947040078513,0.0527400538505465
29.705288,5.5142489735088445,0.0523184988017673
29.709868,5.514306537510884,0.0519104383031177
29.714452,5.504758833465719,0.0515494279896089
29.719031999999995,5.4886707188587245,0.0512082594542464
29.723616,5.468984866461139,0.0508685405676229
29.7282,5.441492614911644,0.0505697261247187
29.732788,5.4132231136286455,0.050258882560588
29.737383999999995,5.387651915688591,0.0499436969863578
29.741972,5.3561953722060665,0.0496610999000292
29.746564,5.323961578990041,0.0493679334072421
29.751148,5.286864059393338,0.0490971994409775
29.755735999999995,5.247601116758903,0.0488472583482737
29.76034,5.1977112869154665,0.0486442891709869
29.764928,5.140381612062556,0.0484540480076039
29.769516,5.075856461628464,0.0482606657947973
29.77412,5.001115119576435,0.0481506155204103
29.778711999999995,4.925229973648468,0.048054393304003
29.783304,4.845624905215765,0.0479646456443244
29.787896,4.761522664544821,0.0478682654903395
