Time,Force,Position
21.435224,2.9767463270361225,0.164462926035229
21.439816,3.1420056435518213,0.1627704167572927
21.444404,3.299237853672468,0.1610724075860548
21.449003999999995,3.443457046303241,0.1597693834837288
21.453588,3.580959262577675,0.1585360457023781
21.458184,3.702872342733437,0.1575973193054438
21.462776,3.816758316494147,0.156636692949587
21.467364,3.91775345747913,0.1558506618129243
21.471956,4.001116224021853,0.1554040763905049
21.476536,4.072854146378933,0.1549701060361928
21.481128,4.131945605388577,0.1546099317582273
21.485736,4.186852065222051,0.1540242119707718
21.490324,4.230666561175092,0.1534899940577349
21.494932,4.2626118435142,0.1529772277830978
21.49952,4.284608965848813,0.1524553318548039
21.50412,4.294125950998764,0.1520258634357121
21.508712,4.30044565431745,0.1515112570219854
21.5133,4.3058217817398585,0.1509570993734124
21.517896,4.31647233113401,0.1502924482994158
21.522484,4.32994336858525,0.1495513555198226
21.52708,4.339205744675171,0.1489572389837582
21.531668,4.342460590508476,0.1485551571260139
21.536268,4.34403875216063,0.1481824782883549
21.540844,4.347782336850518,0.1477315851914735
21.545448,4.343431011511575,0.1474653862604486
21.55004,4.346519531182107,0.1470095955933731
21.554635999999995,4.345521574205463,0.1466859689866478
21.559228,4.347344105285909,0.1462897671151848
21.563824,4.35378599331874,0.1457783738184614
21.56842,4.362437445837934,0.1452545315960876
21.573012,4.372276843681693,0.144752226525031
21.577616,4.379584264345283,0.1443703330563184
21.582212,4.387668934742374,0.1439851409147794
21.586804,4.405114503758381,0.1433761285214231
21.591396,4.4192508458607165,0.1428884575078019
21.595984,4.441604282706028,0.1422250834624671
21.600576,4.461303557657025,0.141692297693115
21.605163999999995,4.480269724323147,0.1412345712458025
21.609764,4.495515968484533,0.1408674200666329
21.614356,4.507575170446392,0.1405992453399158
21.618948,4.525563859399349,0.140240602276721
21.623543999999995,4.543063809495724,0.1399208205934364
21.628132,4.561996074344956,0.139599942086613
21.632724,4.581461219499401,0.139300472211738
21.637312,4.606200786625585,0.138895918770789
21.641904,4.6279976809805365,0.1385790213902914
21.646488,4.653758867268515,0.1381559124704436
21.651076,4.677354630518761,0.1378075107420128
21.65568,4.700050959321359,0.1374827675847809
21.660272,4.726711580056985,0.1370649277141211
21.931216,3.489405284120153,0.136746186687917
21.935808,3.4848198289846577,0.1366926135837082
21.9404,3.4835877422114625,0.1365825009087388
21.944987999999995,3.4821112860099754,0.1365015978991939
21.949584,3.4824336987037845,0.1363785251267507
21.954172,3.4899515869787763,0.1360874372650998
21.95876,3.5023332016344444,0.1356550364706002
21.963356,3.5151255118811773,0.1352619890871313
21.967952,3.531515559918501,0.1347926502208102
21.97256,3.5480277926699717,0.1343073904207638
21.977152,3.5618417220784986,0.1338812242751106
21.981748,3.575000586467669,0.1334501194157869
21.986328,3.594944230846957,0.1327996273937247
21.99092,3.619629416892776,0.1320038410668689
21.9955,3.647257275709829,0.1311282335895457
22.000104,3.6750073192410273,0.1302317682426466
22.0047,3.700958493876931,0.1293631989177205
22.009291999999995,3.722045942132157,0.1286623072892051
22.01388,3.740024391453376,0.1279968475712527
22.018472,3.7536278532505007,0.1274246179758758
22.02306,3.7673534997617706,0.1268402837310113
22.027656,3.7754381701588615,0.1264097277875919
22.078128,3.631551629853637,0.1260806434946227
22.087316,3.594233403013794,0.1260559962448229
22.091908,3.574469507350692,0.126040074684946
22.096504,3.561490391677707,0.1258374227828704
22.101092,3.549532895166516,0.125601668057333
22.105688,3.539252082836475,0.1253413615360658
22.11028,3.527949651344641,0.1251116121846885
22.114875999999995,3.5149705356716563,0.1249024431491496
22.119451999999995,3.503501778017048,0.1246030113055008
22.124056,3.497796181190764,0.1241517590181139
22.128644,3.4936450838314834,0.1236886634597916
22.13324,3.4951349625863823,0.1230862984879953
22.137832,3.496991395483718,0.1224325516683397
22.142432,3.5030564897423733,0.121625860276733
22.147016,3.508222149553381,0.1208282781187299
22.151608,3.514120917649263,0.1199289837540937
22.156196,3.513601459897464,0.1191800666766355
22.160792,3.513981436593313,0.1184156340869151
22.16538,3.514605782717453,0.1176186544880725
22.169976,3.5106107718892083,0.1169299860878071
22.174564,3.5037952730038744,0.1163128376164263
22.179151999999995,3.4989008277279816,0.1156416806334235
22.18374,3.4929847632902957,0.115001948400882
22.188324,3.480406103576637,0.11453154346697
22.19292,3.467705259148833,0.1140746200198064
22.19752,3.4500185036262074,0.1137632143088556
22.202112,3.434130616998877,0.1134146928575275
22.206692,3.423517152343289,0.1129720860451996
22.211292,3.4124149488311173,0.112585378389694
22.21588,3.394283595900537,0.1124096200603461
22.220472,3.376030058255811,0.1122489708070598
22.22506,3.355611097573352,0.1121626130732581
22.229648,3.3408772544537007,0.1120258881100774
22.234244,3.326187552782676,0.1119720420065584
22.238831999999995,3.3185711419786896,0.1117966154430732
22.24342,3.3183165329186592,0.1115602100205911
22.248016,3.326567529478525,0.1112210935009005
22.252607999999995,3.337028090524751,0.1108980253261314
22.257204,3.353418138562076,0.1105180795400496
22.261792,3.3784359769334418,0.1100395838921101
22.266392,3.4043973912010843,0.1096255589902338
22.270984,3.433589989116881,0.1092053889641355
22.275583999999995,3.467690454861982,0.1087614973965563
22.280172,3.51054089565527,0.1082123095177579
22.284776,3.558787943134445,0.1076009662210255
22.289364,3.614230466194803,0.106873592571594
22.293963999999995,3.676990649550489,0.1060518577976273
22.298548,3.739506463477884,0.1052926577604411
22.30314,3.8072966993770208,0.104485409422526
22.307732,3.88649107221866,0.1034773470860541
22.312324,3.9739025398032752,0.1023765771198948
22.316916,4.065566810197839,0.1012622820846855
22.321515999999995,4.1564538308589,0.1001815965652739
22.326108,4.252326762614783,0.0990263051755822
22.330692,4.345379206313577,0.0979570689341519
22.33528,4.437121519973658,0.0969158602687381
22.33988,4.525999204128021,0.0958899103725069
22.344468,4.613566758243672,0.0948700017638469
22.349064,4.696881509549374,0.0939102028720664
22.353656,4.774921838883335,0.0930272752461877
22.358248,4.857415199006907,0.0920519228902848
22.362844,4.935533571606386,0.0911242991317104
22.367432,5.0107873147001465,0.0901939617932183
22.372024,5.078312701907514,0.089327635384769
22.376612,5.139664232695492,0.0885273717467032
22.381192,5.200727252606551,0.0877080727983031
22.3858,5.255494231384076,0.0869640512961596
22.390392,5.307030026513445,0.0862334467666839
22.39498,5.357133506889956,0.0855087289113689
22.39958,5.399142077237636,0.0848643686778275
22.404168,5.430601803641834,0.0842902698995265
22.408772,5.455354793321431,0.0837358785795021
22.413368,5.476998784067019,0.0831759936735125
22.41796,5.491569483945572,0.0826630074054966
22.422552,5.505851672947203,0.0821177250241112
22.427152,5.5138378208153,0.0816159878867141
22.43174,5.517082427016866,0.0811602221341539
22.43634,5.5159520456943385,0.0807240512461927
22.440932,5.515066033800102,0.0802728396263674
22.445532,5.510826653543567,0.0798251237038583
22.450128,5.498492363258199,0.0794258403310108
22.454719999999995,5.489345115172358,0.0789773296251727
22.459316,5.479298432638871,0.0785341814493058
22.463912,5.469740488961963,0.0780544214608397
22.4685,5.4586280458180525,0.0775645902060017
22.473096,5.44314061515005,0.0770904645925529
22.477684,5.42867480364384,0.0766032800599213
22.482284,5.411510688794686,0.0761273009864859
22.486872,5.387151098364349,0.0756857149366826
22.49146,5.36176988877222,0.0752540941852109
22.496047999999995,5.340352971113118,0.0747745073474659
22.500648,5.321878726225251,0.0742611009914486
22.505236,5.304426100499179,0.0737326988356714
22.50982,5.288117278649046,0.0731796978492816
22.514408,5.267844164865883,0.0726659657026775
22.518992,5.2476932357968655,0.0721379433319592
22.523588,5.231506598660878,0.0715654048755407
22.528172,5.2177738954395405,0.0709946947546169
22.532756,5.200321269713468,0.070445655909358
22.537352,5.187610185653925,0.0698586408105929
22.541944,5.182705500746294,0.0691995052966017
22.546532,5.175102512495719,0.0685525903987256
22.551128,5.16762170895929,0.0678975413293506
22.555724,5.164393708232809,0.0672447281973711
22.56032,5.1686055525158014,0.0665543453279654
22.564912,5.179357807360621,0.0658338289630869
22.569508,5.188677747452581,0.0650972480327688
22.574096,5.200940360315776,0.0643349909182511
22.578696,5.220642818188445,0.0635359041676448
22.583276,5.2416112646512,0.0627087364576837
22.58788,5.262090972257372,0.0619183599906125
22.592468,5.2824484951493975,0.0611405579766418
22.597068,5.300884964431981,0.0603768331927075
22.601659999999995,5.321120302609861,0.059613586257116
22.606255999999995,5.341477825501888,0.0588363834450208
22.610844,5.365310901470359,0.0580603047712062
22.615435999999995,5.385179685505802,0.0573171138270361
22.62004,5.405415023683683,0.0565528326184731
22.624632,5.427571415471004,0.0557750165014335
22.62922,5.44510845030594,0.0550163048813936
22.633807999999995,5.454716901274821,0.0543214744153046
22.638392,5.460116690882381,0.0536668149252356
22.642992,5.458731700499823,0.0530468421035089
22.64758,5.4488852459459975,0.0524589276158892
22.652172,5.425591416126083,0.0519390088176161
22.656768,5.38962746077358,0.051493197738539
22.661352,5.352275332116848,0.0510755540838322
22.665948,5.309037857917645,0.0506885563911428
22.670528,5.256317300385382,0.0503351937933238
22.67512,5.199632450920091,0.0500003568825186
22.679704,5.138572613930704,0.0496516324076569
22.684296,5.071749616112995,0.0493226225591723
22.688884,5.000717956933965,0.049031351099238
22.693476,4.920613910012939,0.0488091112267285
22.698063999999995,4.838588809482472,0.0485859684590088
22.70266,4.74912386394253,0.0483740180447352
22.707256,4.657860049507295,0.048151895549444
22.82206,1.8983746848602083,0.0481345667294366
