Time,Force,Position
30.104612,6.111938745482763,0.1510502328696618
30.1092,6.390938188859876,0.1508282330638988
30.113796,6.651639953143638,0.1505799761125278
30.118388,6.892245169438747,0.1503127807014368
30.122979999999995,7.111854403297561,0.1500906489548675
30.127572,7.31455413136725,0.149783807069196
30.132164,7.507417644514854,0.1492794607228766
30.13676,7.683083140996414,0.148695288976952
30.14134,7.834355145230748,0.1481466570703404
30.145935999999995,7.959190418894269,0.1476618429182747
30.15052,8.064740296119533,0.1470938226378006
30.155107999999995,8.144997246649922,0.1465553862053162
30.159704,8.204869138314741,0.1460005721729607
30.164292,8.244400112562621,0.145462773132552
30.16888,8.26744251624418,0.1449996009135771
30.173476,8.276905120313764,0.1446350634917904
30.178068,8.282070780124771,0.1442789152117942
30.182672,8.284738364572497,0.1439052774808032
30.187268,8.278778158686183,0.1436205120284349
30.191872,8.274083941389954,0.1433060190968493
30.196452,8.271022266826245,0.1429431782905845
30.201039999999995,8.262441800862504,0.1426512632026892
30.205628,8.255005138774704,0.1423367002010595
30.210236,8.252842898658644,0.1419677174852329
30.21482,8.252357342723736,0.1415856913821176
30.219411999999995,8.252404667094037,0.1412141170236505
30.223992,8.250530937854899,0.140871318289341
30.228588,8.247557546188446,0.1405860591615059
30.233192,8.246060610723482,0.1403336791177831
30.237784,8.252824911450123,0.1400212966664911
30.242367999999995,8.265029960311278,0.1396884332768097
30.246952,8.28459681091639,0.139308280822822
30.251544,8.30870497520837,0.1389169060065382
30.256132,8.339886430367386,0.1384589070768394
30.26072,8.375198503622205,0.1379742049304821
30.265312,8.41758386774406,0.1374229407735245
30.269908,8.462833861371633,0.136877077252684
30.274496,8.512092288380863,0.1363100031458683
30.279096,8.571122309600076,0.1356524529472462
30.283688,8.628519788086761,0.1350465185603206
30.28828,8.68567289714516,0.1344619024892122
30.292864,8.745524309546502,0.1338540618189853
30.297452,8.803088114195964,0.1332913984749088
30.302048,8.858975234664275,0.1327476329977618
30.306636,8.916661224027884,0.132194084889462
30.311224,8.973692148372136,0.1316416034547846
30.31582,9.030234333859806,0.131116900296753
30.320404,9.089308496527645,0.1305455739181546
30.324995999999995,9.15373512443274,0.1298980904365534
30.329576,9.214930568689685,0.1292751366979045
30.334167999999995,9.265865679880063,0.1287609477162971
30.338743999999995,9.312792357688789,0.128270606997739
30.343344,9.35865327488709,0.1277690523636869
30.347936,9.399239770113647,0.1273140520877281
30.352524,9.435817831958552,0.1268775816960944
30.357112,9.468631829850093,0.1264514114540368
30.361704,9.493961841283529,0.1260663525580936
30.366292,9.52104658016363,0.1256396135913177
30.370888,9.540769517299776,0.1252514988205993
30.375475999999995,9.559671063253797,0.124835568875951
30.380064,9.572887491645004,0.1244442760059055
30.384647999999995,9.58258422551114,0.1240473957754874
30.38924,9.5905601337475,0.1236281669845517
30.393832,9.596937401068224,0.1231833912046159
30.398423999999995,9.598118289682724,0.1227412951076523
30.40302,9.597456167953304,0.1222829726303659
30.407608,9.592619286679447,0.1218124945930369
30.412208,9.580831299252704,0.1213866124728485
30.416796,9.558372283168332,0.1210379772166979
30.421388,9.531005399254656,0.1207079463591219
30.425984,9.510256969168324,0.120280956922029
30.430576,9.483456867376743,0.1198894932972377
30.435168,9.452403962775222,0.1195203368868772
30.439756,9.418119874525544,0.1191606668250016
30.444356,9.382403471523004,0.1187962662455375
30.448948,9.34129046183458,0.1184711273803291
30.453536,9.30336449434568,0.1181005474269958
30.458128,9.259020301009102,0.1177814315778301
30.462724,9.211733434901287,0.1174916180543477
30.467328,9.162403330469887,0.1172240195417927
30.471908,9.111929422162548,0.1169729018936499
30.476508,9.059412275531615,0.1167438577694016
30.481096,9.00934906281534,0.1165022046428758
30.4857,8.956631688204745,0.1163105631884078
30.490292,8.901137966985692,0.116176031478045
30.494892,8.846832191091206,0.1160521865812858
30.499479999999995,8.794080914663724,0.1159230751988137
30.504072,8.746604060207984,0.1157560765965511
30.508664,8.705423246885777,0.1155394706909795
30.51326,8.670294105268818,0.1152838437167697
30.517848,8.632632986471686,0.1150734586957007
30.52244,8.602578038846804,0.1148235367840015
30.52702,8.573588851832342,0.1145928991465837
30.531604,8.549507532647183,0.1143431674876346
30.536192,8.52919027741539,0.1140927621267526
30.540784,8.516601378069991,0.1137976636642181
30.545376,8.506754923516164,0.1135154441192139
30.549968,8.501694152077498,0.1132212004908746
30.55456,8.50334011736343,0.112896112475519
30.559148,8.510138319906957,0.1125432620597618
30.563744,8.526830301374611,0.1121195835928717
30.568332,8.552150073176309,0.1116508122513198
30.572916,8.57992377889266,0.1111779659648458
30.577516,8.61105085297131,0.1106904407781926
30.582104,8.650272837078788,0.1101457414783575
30.586692,8.690927135939127,0.1096085651223005
30.591276,8.73816598680992,0.109055014593151
30.595868,8.787736586881223,0.1085067240698437
30.600472,8.842459424210116,0.1079416050577513
30.605048,8.897715141844223,0.1073944637043932
30.609644,8.956446412554776,0.1068330763216082
30.614232,9.017220921588915,0.1062574463817509
30.618832,9.082859157003732,0.1056420229747727
30.62342,9.15528217240866,0.1049788033491641
30.628028,9.229870610851329,0.104295424026766
30.63262,9.302537995684554,0.1036352411561276
30.637216,9.37377306576492,0.1029747480282475
30.641808,9.446396309149517,0.1022961762015606
30.646404,9.520652095266636,0.1015926438909774
30.651012,9.59220957804081,0.1009107736718269
30.655604,9.657593204395594,0.1002685072629988
30.660196,9.716680789616843,0.0996681709396581
30.66478,9.772292821761647,0.0990867603763718
30.669372,9.827616343029533,0.0984884842410931
30.67396,9.881874103686997,0.0978784110602117
30.678548,9.932001246248658,0.097277913870483
30.683132,9.97542165208572,0.0966998759040429
30.687719999999995,10.01393419009348,0.0961333680167182
30.692315999999995,10.044718372214843,0.0955970007404709
30.696908,10.071616305668694,0.0950610254649017
30.701495999999995,10.094627990455034,0.09452503857794
30.706096,10.113509057145572,0.0939997280936643
30.710684,10.124661767949718,0.0934991954657067
30.715276,10.125021265382088,0.0930515623676328
30.719872,10.124070632775748,0.0925953547817072
30.724452,10.121032620397193,0.0921275528849546
30.729052,10.116562293265778,0.0916531460447675
30.733643999999995,10.105018675267324,0.0912049420252197
30.738232,10.08730120084948,0.0907792491906906
30.742828,10.06929521555472,0.0903332291717362
30.747416,10.050511980526457,0.0898849444402831
30.75202,10.02951918101183,0.0894270627802031
30.756616,10.007094066744347,0.0889606645261151
30.761212,9.98389170274336,0.0884922539388143
30.765788,9.955703427647553,0.0880597016691402
30.770388,9.932867617789006,0.0875751793428459
30.77498,9.9093767429111,0.0870824401040209
30.77958,9.884986433585548,0.0865907733527585
30.784171999999995,9.865459850640672,0.0860666971082075
30.788768,9.849531005486387,0.0855287504862882
30.793351999999995,9.835401029227398,0.0849831752744477
30.797947999999995,9.819349999358966,0.0844470547453632
30.802544,9.80959501062407,0.0838868265697948
30.80714,9.800617271622675,0.0833249525007922
30.811744,9.790495728745343,0.0827764253478401
30.816344,9.7839719236586,0.0822157881882293
30.820936,9.783744159705394,0.0816359963073978
30.825536,9.789934621599873,0.081030026914714
30.830124,9.800377886304291,0.0804194799846325
30.834712,9.81429670408516,0.0798050760835679
30.8393,9.830913825208972,0.0791832996692827
30.843896,9.853949172180464,0.0785393131264467
30.848488,9.885201613894932,0.0778712440641816
30.853076,9.920296162828285,0.0771885704359383
30.857668,9.960376622856456,0.0764771522381323
30.862252,9.994982432933226,0.0758172764464212
30.866848,10.03690590330532,0.0751381678575139
30.871428,10.085247599525095,0.0744419592612896
30.876016,10.13322274160244,0.0737663291974597
30.880612,10.182219502841573,0.0730918511129331
30.885196,10.233792382709504,0.0724210168873975
30.889788,10.291783488425116,0.0717354715204974
30.894372,10.350674028588376,0.0710559222931238
30.898972,10.416349348741756,0.0703503349501609
30.903564,10.483168472771071,0.0696398822787568
30.908144,10.549987596800392,0.0689373094289347
30.912744,10.613208983039115,0.0682511567856441
30.917332,10.677451988439635,0.0675674317777342
30.921931999999995,10.73875232106892,0.0669011148574766
30.926516,10.79903103453641,0.0662479068647496
30.931116,10.860331367165694,0.0655948817238824
30.9357,10.921509515080832,0.0649542867903382
30.940296,10.97537000270064,0.064336182534149
30.944887999999995,11.026942882568576,0.0637429477973933
30.949483999999995,11.079415196884154,0.063155196657006
30.954072,11.14071552951344,0.0625369279796054
30.958668,11.196497070742693,0.061936416235064
30.963256,11.251745731666732,0.0613335522708518
30.967844,11.303396654800183,0.0607381555956607
30.972432,11.3503060362671,0.0601596486997663
30.97702,11.393862049371718,0.059581526381163
30.981608,11.432798705523954,0.059016161226624
30.986204,11.470058677495034,0.0584535451399016
30.990796,11.502454923085445,0.0579106099535362
30.995384,11.533829549514056,0.0573751471564954
30.999984,11.56070700370443,0.0568451677222516
31.004572,11.583087285656566,0.0563193836140638
31.009168,11.598027722599229,0.0558072482672611
31.013764,11.611658029503175,0.0552809335788488
31.018352,11.61707124166415,0.0547626056538643
31.022944,11.616965662425088,0.054251390470365
31.027536,11.605455946243524,0.0537631651789195
31.032124,11.588838134252992,0.0532929372737535
31.03672,11.563881042805338,0.0528318208767985
31.041308,11.528297064148688,0.0523960918317381
31.045904,11.479387894940087,0.0519870303009345
31.050484,11.426392249084316,0.0515915397579018
31.055084,11.361381542715314,0.051235010755505
31.059664,11.292650913841577,0.0508792640808094
31.064264,11.21431501692063,0.0505404175475059
31.068856,11.128949970581273,0.0502219569124587
31.073456,11.035001275356503,0.0499163305185438
31.07804,10.92633921627556,0.049648678801634
