Time,Force,Position
26.507876000000003,1.527917530632957,0.1576911478424265
26.512468000000005,1.5835775780147832,0.156963789732083
26.51706,1.637394615052685,0.1563303708716012
26.521660000000004,1.6899795653173912,0.155577316635192
26.526252000000007,1.738389756037667,0.1548575927376257
26.530843999999995,1.7870001747376063,0.1539208361545652
26.535436,1.8304583561799497,0.15336387221288
26.540023999999995,1.8739945808878105,0.1525307424827631
26.544608000000004,1.9142996219475168,0.1518145124766186
26.54920000000001,1.9523950985208625,0.1512080756375003
26.553796,1.9917565636842929,0.1504472014690261
26.558384,2.0253107265707717,0.1500188066546594
26.562964,2.0533019566085886,0.1497987808831679
26.567556000000003,2.082559175236491,0.1494419715163301
26.572136,2.105520352730858,0.149413625834007
26.576728,2.125861270147799,0.1493754060892839
26.595088,2.1880278262745616,0.1491569442368673
26.599692,2.2009967023158072,0.1489039800356985
26.622668,2.210445883831979,0.1486492783472843
26.627244,2.203773048924268,0.14858694409928
26.631836,2.1979555070155774,0.1483445532316967
26.636416000000004,2.191971638944112,0.1479902776749801
26.641012,2.184144760528724,0.1475799360485296
26.645596000000005,2.172676002874115,0.1471946191673842
26.650192,2.15719881183785,0.1469147309823641
26.654779999999995,2.14131092521052,0.1465684200354194
26.659372,2.1225584090774725,0.1462297561280383
26.663968000000004,2.105560620391093,0.1456710534480833
26.668564,2.0859867130759158,0.1451994439061135
26.673151999999995,2.065347045150316,0.1446350873154293
26.677744,2.0480166041383883,0.1438182899435886
26.682331999999995,2.0351833353647004,0.1427978218379654
26.686928,2.023860424609388,0.1416059830466826
26.691516,2.010372090816344,0.1405616225239699
26.696108,1.997661006756801,0.1394974722214948
26.700703999999995,1.9916125179732305,0.1380775711587022
26.705288000000003,1.9844202253137209,0.1367330016093196
26.709876,1.979437497140572,0.1353709775331002
26.714464,1.9728222262349009,0.1341811113804351
26.71906000000001,1.9685387045297364,0.1329572385189258
26.723656,1.96544312814914,0.1317975158901176
26.728244,1.9646793009690493,0.1306016075365667
26.732852,1.962282931056437,0.1295843553671242
26.73744,1.9656938634207768,0.1284249239987865
26.742028,1.9715587296997688,0.1271819920896235
26.74662,1.9788559107316204,0.1259512432942949
26.751204,1.9896286448399167,0.1246154163377993
26.755807999999995,2.000934259253424,0.1233241513944767
26.7604,2.016126122334443,0.1220002156293127
26.764992,2.028786008235292,0.1209122596534935
26.769572000000004,2.0390361016701166,0.1200269040884486
26.774172,2.048264575943147,0.1192094424514039
26.778748,2.060968603292624,0.11832499650183
26.783348,2.0743276956614576,0.117456816987538
26.78794,2.0865429841543515,0.116666136592418
26.792524,2.0964706648953677,0.1160473679815599
26.797115999999995,2.1101182681411204,0.1152931312795704
26.801708,2.1211897527580748,0.1146027347788238
26.8063,2.137124963755706,0.1136916124420608
26.810892000000003,2.1493402522486,0.1129269467698246
26.81548,2.155914564627316,0.1123748827489011
26.820072000000003,2.159790573663088,0.111908356498209
26.82466,2.167630874631888,0.1112577444940607
26.829252000000004,2.169175134467154,0.1108098412445145
26.833844000000006,2.1718631981783583,0.1102862174433459
26.838435999999994,2.169931904937178,0.1099209031776001
26.843032,2.165180123638909,0.1096629637653427
26.84762,2.16157214621658,0.1093299857060964
26.852212,2.1511352473555028,0.1091395800155605
26.85679200000001,2.14286377153216,0.1088211626590998
26.861384,2.134836665137108,0.10845264619447
26.86598,2.1260323090085538,0.1080841517592493
26.870568,2.108888673422877,0.1079992035720917
26.875164000000005,2.092233776693784,0.1078103489774397
26.879752000000003,2.0770892379830665,0.1074680641677392
26.88434,2.0634550572907258,0.1069745835338396
26.888944,2.0473669426837326,0.1064988634160944
26.893532,2.0340993161338283,0.1059216200254169
26.898128000000007,2.022997112621657,0.1052325742027198
26.902716000000005,2.0118949091094858,0.1045347818985763
26.907312,2.003080313349193,0.1036846634214831
26.911892,1.9955317061789848,0.1027298530140934
26.916492,1.9861842301134809,0.1018236096475374
26.921076000000006,1.9787578076574188,0.1008356729079468
26.925667999999995,1.9721086349348589,0.0998518364555289
26.93026,1.9705675580212665,0.0986303734811013
26.934856000000003,1.970825350002969,0.0973686115249087
26.939452,1.9703058922511705,0.0961150082041819
26.944044,1.9742836067376104,0.0947321541396393
26.948636,1.974297029291023,0.0934949360762782
26.953228000000003,1.97610932073973,0.0922200630608088
26.957816,1.9798426657978787,0.0908868548124336
26.962404,1.9919152903131492,0.0893254000720486
26.96698,2.0017003070765416,0.0878924453005729
26.971572,2.011896019431,0.0865539533150576
26.976156,2.017883070424137,0.0854039045837969
26.980736,2.0223597633988994,0.0843781400870415
26.985332000000007,2.028635325268957,0.0833447017824366
26.989920000000005,2.027104487987103,0.08256479329312
26.994512,2.02863850819063,0.0816663306891173
26.999108,2.0365907542418378,0.0806574247832114
27.003696,2.046874749493551,0.0796838274960233
27.008304000000003,2.0529500833839456,0.0788645221479025
27.012892,2.0628675244932224,0.0779596910536856
27.01748,2.073806584764293,0.0770412632058557
27.02207600000001,2.086177959788222,0.0761919176557457
27.026664000000004,2.094585042879123,0.0754486656226916
27.03126,2.100582333504,0.0748334140347372
27.035856000000003,2.108378493024172,0.0742052228382682
27.040448000000005,2.120016759763227,0.0734847033995475
27.045036000000003,2.132676645664076,0.0727510819841122
27.04962800000001,2.144192727688985,0.0720796423985551
27.054208,2.151988887209157,0.0714863703070422
27.058804,2.1645265883958604,0.0708117224195891
27.063388,2.1761648551349158,0.0701523066547264
27.067984000000003,2.191400859664562,0.0694498585275206
27.072572,2.2116227752890305,0.0686279758656067
27.077168,2.228002583694616,0.0678979113699503
27.08175600000001,2.249246118480878,0.0670590169000323
27.08634,2.270123099124703,0.066300084443421
27.090932,2.286136353387852,0.0656649730497607
27.095516,2.3013723579174985,0.065031390964906
27.100103999999995,2.3244147615990567,0.0642494744912177
27.104696,2.3423490694716467,0.0636057183103274
27.109288,2.356196900697062,0.0630657662569485
27.113876,2.367224243865389,0.0625729116971397
27.118468,2.3813164445190966,0.0620010904181259
27.123056,2.400394556267626,0.0613311849669743
27.127652000000005,2.416652179959066,0.0607049953079099
27.132236,2.429967130879271,0.0601323440211209
27.136824,2.439195605152302,0.0596565280548501
27.141420000000004,2.4493235138729808,0.0591797408172741
27.146008,2.4602286723271614,0.0587215456070804
27.150596,2.466514473828957,0.0583082659762923
27.155184,2.472678090616607,0.0579136747910421
27.159772,2.4781866423849,0.0574902491587083
27.164368000000003,2.4806303366678124,0.0571377648639449
27.168956,2.4810307926271373,0.056823324933959
27.173552,2.477344771939289,0.0565937689924573
27.17814000000001,2.4719820670702903,0.0563527892561555
27.182740000000003,2.4684182310965874,0.0561062838660772
27.187328,2.4628111567992974,0.0559013233664766
27.191920000000003,2.451440921673683,0.0557670377207841
27.19651200000001,2.441214490424008,0.0555931403640568
27.201108,2.4340529166597142,0.0553558281690441
27.20569200000001,2.426769158181274,0.0551358928174183
27.210288,2.41846378054104,0.054934420521123
27.214887999999995,2.411057837348454,0.0547324117524754
27.219484,2.405328578337018,0.0545429840037735
27.224076000000004,2.398822069592081,0.0543345910867843
27.22866800000001,2.3944809838848755,0.0540673212549726
27.233259999999994,2.3874415948347263,0.0538046065711666
27.237844000000003,2.3795027713369308,0.053543854581744
27.242432,2.374384435896225,0.0532584150644729
27.247028,2.366812166540866,0.0529384566683859
27.251624,2.3592398971855078,0.0526169111841797
27.256212,2.347048270877764,0.0523145046815003
27.2608,2.337921502055401,0.051949459719383
27.265376,2.334557894061362,0.0515218695394696
27.269960000000005,2.3316049816583884,0.0511644136107938
27.274556,2.3212122242459405,0.0508488654121799
27.279143999999995,2.312740520442934,0.0505116990640564
27.28374400000001,2.306189870249369,0.0501504468056028
27.288336,2.299394850627513,0.0498240174789053
27.292924000000006,2.289657158234421,0.0495363467201437
27.297515999999995,2.277998412231889,0.0492683879723271
27.302104000000007,2.2690379695722998,0.0489969053611506
27.3067,2.2523933124749447,0.0488062408889978
27.311276,2.234971405644088,0.0485968182668294
27.315868,2.221924486337325,0.0484009657791495
27.320452,2.2078559478687683,0.0482206914367601
27.325056,2.198406766352597,0.0480180694259946
27.329643999999995,2.1839716737416026,0.0478914247062534
27.334244000000005,2.16839277725467,0.0478013341694804
27.343412,2.143575166862967,0.0477468386200555
27.357172,2.1237876090147134,0.0477440757098704
27.361764,2.113893830090587,0.0477431100431097
27.366352,2.1132387650712308,0.0477044250177
27.370952,2.1098853967089304,0.0476647434596434
27.37554,2.1046109747371893,0.0476432365166617
27.380132,2.1004803566413868,0.0475828486424009
27.384719999999994,2.097126988279087,0.0475421257600039
27.416844000000005,2.054198504220281,0.0474946025210032
27.42144,2.0516223855914832,0.0474733733070746
27.426027999999995,2.0471252133532443,0.0474728529140887
27.435232000000006,2.035554750247968,0.0474519028313999
