Time,Force,Position
26.280592,1.5839101362660566,0.1437370016264468
26.285172,1.5692543364119222,0.1435178240053299
26.289772,1.559750773815383,0.1430435757351482
26.294368,1.548003744915594,0.1429699645784082
26.298952,1.539365714949814,0.1428069742991842
26.303543999999995,1.5364128025468404,0.1424707637294018
26.308136,1.5391450077066733,0.1419668738063922
26.312724,1.5408997351533409,0.1417036508790864
26.317319999999995,1.5480510692858958,0.1411354594162984
26.321908,1.5610097056954026,0.1403545330318923
26.326491999999995,1.5749119180011857,0.1396945841513915
26.33108,1.590779325365038,0.1390849618731893
26.335671999999995,1.6029709516727817,0.1388899550014009
26.340264,1.6192931960763275,0.1385216113221361
26.344856,1.642077807776182,0.1379541364569481
26.349447999999995,1.6696481025911951,0.1372625519018047
26.354028,1.6995501466067149,0.136547617185155
26.358619999999995,1.7328055589845346,0.135699678818425
26.363216,1.7636511788963307,0.1351461434832604
26.367792,1.795684744132694,0.1345995911790744
26.372408,1.825919440473761,0.1341275969664901
26.376996,1.854888148224744,0.1338397385020079
26.399968,1.9803989661710977,0.133807469108466
26.40456,2.004581990806922,0.1337192702041904
26.40914,2.0296644498903933,0.1336010794528437
26.413744,2.0543362133828,0.133452573209527
26.418332,2.073977924331756,0.1334180373251452
26.422932,2.091532255508498,0.1333682700608357
26.427512,2.110596944703615,0.1331467101572842
26.432112,2.132193611078902,0.1327153853082023
26.436696,2.1482273446055284,0.1323983068865006
26.441292,2.1576765261217004,0.1322425845152208
26.445879999999995,2.1629950895420698,0.1321919310976236
26.450475999999995,2.1645495890090745,0.1321707116427694
26.455076,2.164916143151512,0.1320963410850809
26.459672,2.169325032492494,0.1316513056119251
26.46426,2.1781869526230886,0.130909993105704
26.468855999999995,2.1870047313050542,0.1300528757738986
26.473436,2.19079245744357,0.1293194257250936
26.47802,2.191348999933932,0.1286455945637377
26.4826,2.19648075792805,0.1276451850799295
26.487184,2.2030006892263985,0.1265274482561698
26.49178,2.202202960229419,0.1256765674470846
26.496368,2.194209755651256,0.1250844292506837
26.500964,2.187849093805616,0.1243241260620049
26.505551999999994,2.173393521931144,0.123839926586743
26.51014,2.168665402818025,0.1228978452307214
26.514748,2.164714533438409,0.1219452134760496
26.519336,2.1589647951634965,0.1210543322910364
26.52394,2.1464302768984664,0.1204703694079643
26.528532,2.13659406197638,0.1197898823084484
26.533136,2.1321544537401804,0.1189199874298725
26.537724,2.1295137143992773,0.1179820766550454
26.542311999999995,2.1256069864682887,0.1171320946885412
26.546907999999995,2.1224775082708027,0.1162718539548464
26.5515,2.113873380121912,0.1157653965278081
26.556104,2.102082209773494,0.1154416980636473
26.560683999999995,2.086981812511405,0.115319926018044
26.565284,2.075723522468199,0.1150292327897895
26.569863999999995,2.0671635357679365,0.114647170962753
26.574468,2.057215375763443,0.1143839126215411
26.579056,2.043957988845277,0.1143209055167721
26.583656,2.0399393158318824,0.1139271388545373
26.58824,2.043893368133172,0.1132998067115021
26.592836,2.0454376279684374,0.1128598861100952
26.597424,2.052911374794801,0.1122850361843859
26.602011999999995,2.0570758947074927,0.1119320119444676
26.606592,2.0629170988013343,0.1115555667325126
26.611176,2.0726004101140587,0.111043529308534
26.615772,2.088169066969253,0.1102868300654974
26.620356,2.10169448550086,0.1096293618539032
26.624944,2.111133427385293,0.1091612133452094
26.62954,2.118651315660285,0.108760794318546
26.634132,2.1354079178400465,0.1080873552146699
26.63872,2.1542077583433947,0.1073398589216611
26.643311999999995,2.174273587436829,0.1064828257823156
26.647892,2.192296178206675,0.1057091222608403
26.652484,2.211995453157672,0.1048949263878256
26.65708,2.228507685909142,0.1042476023022278
26.661668,2.2419550611752315,0.1037418521832468
26.666267999999995,2.25348138283188,0.1033039364582404
26.67086,2.269871430869204,0.1026768350347843
26.675464,2.2825415564017915,0.1021915325719673
26.680048,2.288260575781487,0.1018517925199182
26.712228,2.2289791284239198,0.1016568268430302
26.716828,2.216787502116176,0.1016142166571052
26.739784,2.137796540175873,0.1016103610146125
26.744375999999995,2.1218408499147645,0.1015197038379512
26.748964,2.106129529081947,0.1013890014751388
26.75356,2.091684196839214,0.1011700268756099
26.758148,2.0790377334917776,0.1009078870810124
26.762744,2.0598508595825145,0.1008447435612321
26.767332,2.0397645512256037,0.1008015107281246
26.771919999999994,2.025974284002228,0.1005979400599464
26.776508,2.0162704934260254,0.1002093674733753
26.781092,2.008365571745119,0.0997771704419025
26.785684,2.0061016261783915,0.0991662842302213
26.790271999999995,2.003348941755081,0.0986354214649287
26.794864,1.999941192312414,0.0980730190757534
26.799451999999995,2.0020522342697795,0.0973421551525585
26.804047999999995,2.004696156532356,0.0966663997690101
26.808632,2.003375786861904,0.0961590527218134
26.81322,1.9953928219154808,0.0958727818960546
26.817816,1.987942737274268,0.0956338414579578
26.822404,1.986255813461379,0.0951870802616355
26.826992,1.983547270486697,0.0947911594645836
26.831596,1.9826375964073104,0.0943528694264855
26.836184,1.9804619337378389,0.0940081593123381
26.840776,1.982905628020752,0.0935409264870989
26.845368,1.9888248753801112,0.0930251202016521
26.849968,1.9938446882918224,0.0925261510397498
26.854548,2.001440619832332,0.0919741366857342
26.859148,2.0108354202681364,0.0913834659677996
26.863736,2.017287547932707,0.0909123782278385
26.868336,2.0221071328647544,0.0906006050043198
26.872927999999995,2.0228402411496287,0.0904621267212228
26.877524,2.0262716527774463,0.0902744908513623
26.88212,2.0353440405194423,0.0899353205223471
26.886716,2.0510790235374103,0.0894232223787784
26.891304,2.0670583759836694,0.0888849115054355
26.8959,2.0841815323058683,0.0883019491218663
26.900488,2.101060319199775,0.0877547693583166
26.90508,2.1207595941507718,0.087127591563072
26.909668,2.142379922711209,0.0864334185407833
26.914252,2.1657991201669424,0.0857445612133108
26.918844,2.1874194487273804,0.0850924078713647
26.923435999999995,2.209161962001964,0.084434724303157
26.928031999999995,2.2310266599906936,0.0837583429742762
26.932624,2.2500708699223333,0.0831652407126191
26.93722,2.2655173420633816,0.082638252488434
26.9418,2.2868491597469,0.0819712840908187
26.946392,2.3113680196299446,0.0811934954978875
26.95098,2.3349874450653414,0.080437892161026
26.955572,2.358073990195527,0.0796381955007884
26.960168,2.382426523915798,0.0787586948446606
26.964756,2.407922861512008,0.0778209722114042
26.969344,2.426878788546391,0.07702233086515
26.97394,2.4414597280566817,0.0762744258309493
26.978528,2.442837661729173,0.0757823162379117
26.983124,2.442661095934661,0.0752793641611948
26.98772,2.4359441195783216,0.0748878417172699
26.992312,2.4297158820785656,0.0744136612121467
26.9969,2.424509263740603,0.0739097982388667
27.0015,2.42351130676396,0.0732755699279152
27.006091999999995,2.413152451168401,0.0727952072078332
27.010684,2.402016345839341,0.0722989804363345
27.015276,2.3861386988437494,0.0718866325399912
27.019872,2.3674405637910687,0.0715208823825754
27.024456,2.3459219406812992,0.0712031952911977
27.029052,2.32440331757153,0.0708812795778367
27.03364,2.294423230290493,0.0707008614174822
27.038232,2.260601035790572,0.0705894200243924
27.042824,2.224979972395356,0.0704932504817366
27.047412,2.1880929204100554,0.0704634228903393
27.052,2.1504286186912527,0.0704129739262636
27.056596,2.1110876327913,0.0703521597366978
27.061184,2.073789885214934,0.0702272090491431
27.065776,2.0402120601433054,0.0700267802451858
27.070372,2.019715056195329,0.0696121727695072
27.07496,1.9968082597813288,0.0693146725382092
27.079556,1.9796646241956528,0.0688917869402576
27.084143999999995,1.965996541686423,0.0684526730369473
27.088736,1.9493857864059572,0.0680764577399818
27.093328,1.9277891200306696,0.0678145592024905
27.097916,1.9101567455884116,0.0674518105500749
27.102523999999995,1.896122108936744,0.0670536228083558
27.107112,1.8860517642181047,0.0665522213654141
27.111716,1.877902473108907,0.0660054413489064
27.116308,1.8734731045044464,0.0654015876908453
27.120895999999995,1.8709647895094277,0.0647607187406423
27.125488,1.8748747003620887,0.0640457785763677
27.13008,1.8843034026147831,0.0632773458344741
27.134676,1.8983514618198625,0.0624620472539575
27.139272,1.9161194435296784,0.061599777112217
27.143864,1.93850678219188,0.0607098613581614
27.148447999999995,1.965269108378174,0.0598243253113841
27.153048,1.9926864995838256,0.058978361597785
27.157627999999995,2.018837902199392,0.0582255904844687
27.16222,2.039226143986635,0.0575888481547674
27.166812,2.064600296868698,0.0568544189960758
27.171408,2.09140676450362,0.0561952417059986
27.175992,2.113471690472012,0.0556050712123551
27.180588,2.139256538945141,0.0549818445763633
27.185176,2.1677396907612123,0.0543558747318682
27.189772,2.200597830101377,0.0537440339961363
27.194364,2.2266711894514257,0.0532285556825298
27.198952,2.2542990482684777,0.0527624445199914
27.203544,2.284869579856765,0.0522620396082398
27.208132,2.316706100035137,0.0517228940507706
27.212723999999994,2.348420435499364,0.0512169531241627
27.217316,2.375393229297059,0.0507661898871305
27.2219,2.3941489283517785,0.05035260273426
27.226488,2.406364216844672,0.049986387745629
27.231075999999995,2.4158812019946216,0.0496267820113799
27.235668,2.4175917879926603,0.0493670062856705
27.24026,2.4137835825906664,0.0491296488089584
27.244856,2.408176508293376,0.0488915729010965
27.249444,2.40077056510079,0.0486546264958806
27.254036,2.39348680662235,0.0483964891381698
27.258624,2.3814615064773808,0.0481756993974476
27.263224,2.365061218808317,0.0479365720756457
27.26782,2.349560365586902,0.0476945229955727
27.272408,2.330583959289041,0.0474292942927381
27.277004,2.3042898926958517,0.0471744902123937
27.281583999999995,2.272354849988483,0.0469559623467573
27.286176,2.2463051528235845,0.0466575817019137
27.290764,2.217312782887451,0.0463982343277585
27.295364,2.183334501856496,0.0462085404483104
27.299955999999995,2.142204886692986,0.0461497100279524
27.33212,1.865589772408513,0.0460903757105957
27.336712,1.8324328825596885,0.0460437540240895
27.345892,1.7612553764813623,0.0460205127439729
