Time,Force,Position
25.925992,1.8245122969656788,0.1489182148860111
25.930588,1.8929409924090872,0.1486346042234796
25.935179999999995,1.9533086796405543,0.1483725495603733
25.944364,2.049328149162453,0.1481833532103063
25.95814,2.136010382250588,0.147945695897738
25.962731999999995,2.1544200064263483,0.147572520919797
25.967332,2.165912426266108,0.1471786061098284
25.971923999999994,2.173796868683536,0.1464983715321639
25.97652,2.171821433993727,0.1460159673680156
25.981103999999995,2.15974175276839,0.1457587023894924
25.985699999999994,2.143653638161397,0.1456058497286313
25.990296,2.12739919739163,0.1453384757700436
25.994896,2.112943625517159,0.1449854847496072
25.999483999999995,2.1010200308228573,0.1443959308110248
26.004079999999995,2.08423270974788,0.1440749157717397
26.008668,2.0692442575681977,0.1436722689082938
26.013256,2.0538892512460785,0.1433485556584217
26.017844,2.0380455060673763,0.143126364088507
26.022436,2.026454563698622,0.1427528623419207
26.027032,2.0228363466445534,0.1420483039608278
26.031624,2.0234709324004325,0.1412013621490756
26.036216,2.0308122548809115,0.1401441916314255
26.040803999999994,2.032967438286905,0.1395660510333818
26.0454,2.0390088703604103,0.1389167071076214
26.04998,2.049469431406637,0.1382335389439549
26.054568,2.058830330025552,0.1377918738046247
26.059176,2.0737541614931287,0.1372404623296625
26.063764,2.092197687485779,0.1367178598695565
26.068376,2.111706974088851,0.1362515500200525
26.072952,2.1340808901976405,0.135765675728997
26.077548,2.1587865555069365,0.1352430146728586
26.082139999999995,2.1807158742077712,0.1349763518792283
26.086732,2.203055888499671,0.1347791254369088
26.091336,2.2253178595260543,0.1347510934826468
26.095924,2.2519548180765305,0.1345758622767913
26.10052,2.27990190666572,0.1344376482782993
26.16478,2.559970293574927,0.1341730728019571
26.169376,2.5636121728141466,0.1341662927161123
26.17396,2.5719514522712683,0.1338442567053035
26.178552,2.5765266677750254,0.1335490858679164
26.215267999999995,2.464106910584063,0.1333140546246922
26.219856,2.444254732023704,0.1331313962119742
26.22446,2.4229702387104872,0.1329339680260156
26.229043999999995,2.397432942587322,0.1328439409492004
26.233636,2.3721400158924486,0.1327081952522144
26.238223999999995,2.34811307778766,0.132475494453011
26.242824,2.328050431615899,0.132040627175485
26.247404,2.3128515118248147,0.1313770501700553
26.252004,2.293033235081346,0.1308917225431221
26.256592,2.2730927736237314,0.1304224252088071
26.261184,2.2515197694335947,0.1301161399905054
26.265775999999995,2.2261046580245747,0.129970527047884
26.270368,2.2030212958160624,0.1297985968143652
26.274968,2.1786719450174643,0.1297252946042071
26.27956,2.162539688961844,0.1293338398472134
26.284147999999995,2.148494812678437,0.1289579872753873
26.28874,2.1424226617097157,0.1283109174618318
26.293332,2.137660640779708,0.1276842931372468
26.297916,2.13204332685068,0.1272258265127888
26.302504,2.130923185159891,0.1266019777695931
26.307095999999994,2.1340558462790504,0.1258609156915101
26.311692,2.136211029685044,0.1253135909914903
26.31628,2.140453592863253,0.1247971783221922
26.320871999999994,2.149604023870768,0.1241900065840386
26.32546,2.1585542268986178,0.1237469814195664
26.330051999999995,2.1695918096986837,0.1233298848106476
26.33464,2.181040088089814,0.1229935975451978
26.339228,2.1898342045866293,0.1228734065972368
26.343824,2.209299349741073,0.1224334407593574
26.348412,2.23175130911538,0.1219949662246662
26.353004,2.254980518223189,0.1215376878697708
26.357603999999995,2.280174922389068,0.1211158427003574
26.362192,2.3090892490596837,0.1205776743590626
26.366784,2.341356944092599,0.1199668289345334
26.371364,2.3696603471924864,0.1195623375079793
26.375964,2.39808593500652,0.1191431884649549
26.380551999999994,2.4254899036587587,0.1187978459989589
26.385152,2.458534848425177,0.1182723787091915
26.389744,2.489003674562797,0.1178062804048009
26.39434,2.518328696824478,0.1174116844975619
26.398924,2.5420127429719805,0.1171996543059836
26.40352,2.5652860935284174,0.1169301794405539
26.408112,2.583285022113113,0.1167926105958674
26.412704,2.59678677845957,0.1167821693176501
26.417308,2.616662619205079,0.1164635637429762
26.421904,2.6360055796453774,0.1161173996357023
26.426496,2.65019630282808,0.115881952473709
26.431087999999995,2.6697394912480408,0.1153970759925102
26.435676,2.683231007962758,0.1150599508019631
26.440264,2.695901133495346,0.1146284382623927
26.444852,2.7112254209222493,0.114032856451234
26.449444,2.724584513291083,0.1133850202747419
26.45404,2.731647564526381,0.1128922609427221
26.458631999999994,2.7365010512753187,0.1123927108365043
26.463224,2.7390227888237493,0.111895879111617
26.467811999999995,2.739212777171674,0.1114063541882158
26.472404,2.7389920699285324,0.1108701812329802
26.476996,2.731942441246645,0.110443098018965
26.481584,2.72628098586899,0.1099222627400376
26.486176,2.7221298885097105,0.1092934642258804
26.490768,2.7224318219400416,0.1084519730868217
26.495356,2.7211792559033685,0.1076093396546834
26.499948,2.723890981799724,0.1066282457805763
26.50454,2.730034119323897,0.105477137407246
26.509132,2.7270607276574457,0.1045417137772877
26.513728,2.719956717895192,0.1036393253761601
26.518332,2.717349880371178,0.1026390933963728
26.522912,2.7101236858947786,0.1017589974230958
26.527508,2.701342991951375,0.1008731776782443
26.5321,2.6905190596843847,0.1000564268222448
26.536691999999995,2.67393196658907,0.0993894959348223
26.541284,2.659388111817342,0.0986454992866653
26.545876,2.6506074178739385,0.0977452197101024
26.550472,2.6435034081116853,0.0968293590299107
26.555068,2.638198267244728,0.0958696712190277
26.559664,2.635591429720713,0.0948589245851579
26.56426,2.630941353873112,0.0939173153360189
26.568848,2.626824158330722,0.0930000248079634
26.573443999999995,2.6214409741982467,0.0921507209014115
26.578032,2.612992932580391,0.0913997613150753
26.582615999999994,2.6039339673918063,0.0907378846168258
26.587204,2.598472739993813,0.0900151880205331
26.591792,2.589047220662792,0.0894010620845116
26.596384,2.579255147189334,0.0888409734840584
26.600976,2.577680168458852,0.0881350323984847
26.605568,2.579214188662379,0.0874362728221974
26.61016,2.577150471075315,0.0867943338476262
26.61476,2.573820764898165,0.0862144996358471
26.619347999999995,2.5728228079215216,0.0856464410326651
26.62394,2.571458296802442,0.0851295088873142
26.628536,2.577167076550399,0.0845237987456452
26.633123999999995,2.583408736603567,0.0839647144329845
26.637719999999995,2.583887235828411,0.0835385608146433
26.642308,2.581545246996165,0.0831668925930307
26.646896,2.5819015615068635,0.0827600960189088
26.651492,2.578293584084533,0.0824528476747077
26.65608,2.572642368338616,0.0822023908562935
26.660675999999995,2.5677684023262013,0.0819555927549304
26.665268,2.5609733827043453,0.081750005632782
26.66986,2.5551999822442824,0.081510503992259
26.674448,2.550692570374304,0.0812024767280862
26.679047999999995,2.541199247409504,0.0810297414224044
26.683628,2.537591269987173,0.0807075694804553
26.688227999999995,2.5302633700601063,0.0804500514143967
26.692823999999995,2.517416678733006,0.0802793298232611
26.697416,2.506613225729493,0.080048015510236
26.702012,2.496587022459482,0.0798207229784106
26.706608,2.488604057513059,0.0795318981708011
26.711196,2.477023354776044,0.0792859736880664
26.715792,2.465564836753174,0.0790198216892036
26.72038,2.449731331206211,0.0787889625103257
26.724976,2.432221141478097,0.0785578726583391
26.729568,2.41650982064528,0.0783023045671751
26.734151999999995,2.39977688065067,0.0780747109106297
26.73874,2.3832883100843505,0.0778031637588595
26.743336,2.370641846736913,0.077449664470049
26.747927999999995,2.360938056160712,0.0770229996149682
26.75252,2.354421307784036,0.0764901474634795
26.757116,2.3535455355215382,0.0758594572057294
26.761703999999995,2.3563896857637783,0.0751778569243628
26.766296,2.355391728787135,0.0745679253892712
26.770883999999995,2.359379682905314,0.0738352477662374
26.775476,2.3603027795381126,0.0731955551095694
26.78008,2.365845233123296,0.0724929859700185
26.784668,2.369344448384892,0.0718302086365956
26.78928,2.372066413912986,0.0711681641198894
26.793868,2.3749105641552264,0.0704841928122381
26.798455999999995,2.379553583292762,0.0697919243606873
26.803052,2.390859197706269,0.0689984707093055
26.80764,2.404985300176866,0.06817154689939
26.812236,2.4198886523809646,0.0673562155011479
26.816816,2.435569254318566,0.0665528283040716
26.821411999999995,2.4531709098656087,0.0657219594780165
26.826,2.4783345951362703,0.0647940904273335
26.8306,2.501210672655054,0.0639675219609716
26.835187999999995,2.523964565459692,0.063171530687956
26.83978,2.551337815216716,0.0623555937839217
26.844368,2.577322891669508,0.0616317425083886
26.848963999999995,2.6003652953510663,0.0609694616531426
26.853552,2.6176445382043,0.060390896604315
26.858148,2.642119256638716,0.0597826811771786
26.862736,2.6655723559113387,0.0592110740603224
26.867324,2.6890254551839616,0.0586427998672244
26.871916,2.709413696971204,0.0581387783245877
26.8765,2.739040652663216,0.0575704272955292
26.881088,2.7653583814415565,0.0570938898438185
26.885687999999995,2.792086805810962,0.0566759323104754
26.890272,2.8149731229614843,0.0563084298279822
26.894864,2.8308302906935974,0.0560651220660742
26.899456,2.846687458425712,0.0558297573943871
26.904048,2.863444060605473,0.0555943196255188
26.90864,2.882121716394676,0.0553428115943924
26.913228,2.899533383593794,0.0551421311536297
26.91782,2.914124562735823,0.054973862123606
26.922416,2.930758980201439,0.0547744908625651
26.927004,2.9466161479335526,0.0545660252246771
26.9316,2.953889666780253,0.0544360390715113
26.936187999999994,2.960508120607597,0.0542801302566655
26.940776,2.9673709438632323,0.0540960301545662
26.945372,2.977831504909459,0.0539036271575014
26.949963999999994,2.982895459269798,0.0537248008814107
26.95456,2.987059979182489,0.0535492478782198
26.959148,2.9894256301998854,0.0533758563036053
26.963747999999995,2.992157835359718,0.053158324065757
26.968336,2.9884718146718705,0.0529669856729694
26.972928,2.986173967288253,0.0527156348120623
26.977515999999994,2.989228585141896,0.0523646362943178
26.982116,2.994082071890834,0.0520094057291689
26.986712,3.003921469734593,0.0515909170248018
26.991308,3.006076653140587,0.0512334194856822
26.995888,3.0055335332036366,0.0508782611294561
27.000476,3.0011483060478046,0.0505554820314626
27.005064,3.000072305805644,0.0501623582049827
27.00966,2.9970752519540422,0.0497871392238959
27.014247999999995,2.988315037274116,0.0494551964698352
27.018836,2.9813536914894856,0.0491234413590127
27.023424,2.9801555065331797,0.0487453739248056
27.028023999999995,2.9776913329867885,0.0484088540458636
27.032612,2.975104974726252,0.0480864613503475
27.037212,2.9726408011798613,0.0477520425337137
27.041804,2.969155008471677,0.0474287754960127
27.046392,2.967468084658788,0.0471074967795274
27.050992,2.9695010833506363,0.0467732321728276
27.05558,2.9732107662236347,0.0464541486551333
27.060176,2.976798264382487,0.046147417854507
27.064764,2.981040827560696,0.0458687458498251
27.069351999999995,2.9773548068728486,0.0456711823685901
27.073947999999994,2.975712024508588,0.0454485409830707
27.078532,2.9692055157636505,0.0452628324483619
27.08312,2.971282655904127,0.0450265867755253
27.087712,2.9729932419021665,0.0448295197895939
27.092299999999994,2.975603262347854,0.0446313723008514
27.096903999999995,2.9702846989274843,0.0445113814801868
27.101492,2.9630450818976737,0.0444029487298848
27.106084,2.9567048993155107,0.0442934438281887
27.110664,2.9472998592479667,0.0442252676288503
27.115264,2.933031092799747,0.0441957478796532
27.119848,2.92092774938926,0.0441234437400453
27.124448,2.9080471562452703,0.0440332511195802
27.129031999999995,2.8932455094918392,0.0439547226745839
