Time,Force,Position
25.718848,1.757990937519235,0.1684960944516016
25.723444,1.840121617288763,0.1666825864819402
25.728028,1.919099156675654,0.165134693297128
25.732628,1.9951679251081995,0.1635701763693849
25.737204,2.070904041215197,0.1618684984805865
25.741808,2.142587582491911,0.1603283430089572
25.7464,2.211773048405344,0.1587947291562615
25.751,2.2791155039748525,0.1572857776902074
25.755592,2.345147829505648,0.1558520644814609
25.760184,2.4129348824831123,0.1541840350893643
25.764776,2.47389301402183,0.1529130461876177
25.769368,2.530842712178891,0.1518138887982725
25.773956,2.583906161668441,0.1508280502957709
25.778552,2.638602153890514,0.1497148490788673
25.783140000000003,2.68646922467384,0.1489651729693948
25.787728,2.732615469827388,0.1481932997327703
25.792316,2.774997651027571,0.1475009317706626
25.796904,2.8159033760262666,0.146746546516523
25.801492000000003,2.8568871442904795,0.1459045253880127
25.80608,2.8901425566682994,0.1453215436651565
25.810672,2.920655524254548,0.1447263210395824
25.81526,2.952390338982253,0.1439406326872956
25.819852,2.9780734820047137,0.1433352555239686
25.824440000000003,3.000114745787956,0.1427569254354203
25.829028,3.016715261436682,0.1422705739727519
25.833636,3.032616570617424,0.1416936609659547
25.838216000000003,3.048185227472618,0.1409725041390203
25.842804,3.061377993678678,0.1401929431970288
25.8474,3.0748931725785464,0.1392873149767263
25.851988,3.084766472239195,0.1383980367194024
25.85658,3.092918946270065,0.1374395023227814
25.86116,3.0997171488135957,0.1363683710653869
25.865764,3.104017275993844,0.1352333933865401
25.870344000000003,3.098912363106549,0.134310718183487
25.874944,3.086567833189444,0.1334927164479228
25.879532,3.070337054604827,0.1327133822143368
25.884136,3.051119461800348,0.1319417994890103
25.888716,3.024950762842977,0.1313389132911262
25.893308,2.99195314244686,0.1308866437621058
25.8979,2.957767576726176,0.1303918326646234
25.902496,2.9258696187573707,0.12975067337093
25.907092,2.888164358511613,0.1292100674907497
25.911684,2.854134879321964,0.1284224195699544
25.916276,2.817284912075225,0.1277287760052278
25.920868,2.779779879809131,0.1270072153595755
25.925456,2.7354900675529183,0.1265531109910047
25.957592,2.3618088206661625,0.1263908642911421
25.962188,2.320882616403989,0.1260776937106879
25.966768,2.283842660809326,0.1257372755179598
25.971356,2.2478684658250847,0.1254632323498119
25.975948,2.211938412289472,0.1253236540944335
25.980528,2.1788729882595765,0.1252164438222439
25.985116,2.149693812897192,0.125069475529803
25.994304,2.0986633620994897,0.1248835661566686
26.003488,2.0626111238497318,0.1247338243967136
26.00808,2.052662963845238,0.1245205183798269
26.01266,2.0470117480993206,0.1243321349474783
26.017256000000003,2.048067269078004,0.1239929308877762
26.021848,2.0542750273142825,0.1235075149059379
26.026444,2.0613041767326914,0.1231496387214582
26.03104,2.071320140370964,0.1227712924099239
26.035632,2.082646234047948,0.1224272164534232
26.04022,2.0969591419447964,0.1220797408582743
26.044816,2.111804930146855,0.121777488971365
26.054012,2.143916538648736,0.1214474972062806
26.0586,2.1633477819862903,0.1212991654002596
26.063184,2.18433352479085,0.1211343787185063
26.067772,2.2125147431765915,0.1207411725190413
26.072368,2.246214752962366,0.1201588338887867
26.076956000000003,2.2806920124816425,0.1195729254624416
26.081548,2.3133704031056235,0.1190573597240813
26.086144,2.348747097072548,0.1184476833211006
26.090724,2.374518522992265,0.1182212037087354
26.095324,2.400412133626128,0.1179698576694114
26.099912000000003,2.4237296256311933,0.1178085582112182
26.1045,2.4429164995404573,0.1177145422326253
26.109084000000003,2.4645131659157444,0.1174813183198195
26.113672,2.486232017005177,0.117235603708657
26.11826,2.5048418691606016,0.1169994637443759
26.122856,2.524062644886754,0.1166573923465014
26.127452,2.5416067364317567,0.1163446372499551
26.132048,2.5584957629574028,0.1160250639684035
26.13664,2.574729724463692,0.1156926303189501
26.141244,2.5870774373024705,0.1153895473917734
26.145824,2.599014454550184,0.1150278590732047
26.15042,2.606043603968593,0.1147421263243473
26.155,2.6090643200053454,0.1144926185759332
26.1596,2.6043566801557034,0.1144011107867608
26.164188000000003,2.5965400413720534,0.1143216883497235
26.168788,2.588434891711485,0.1141655178010403
26.173376,2.580696296193352,0.113949523686338
26.177968,2.568172017560061,0.1137708885770156
26.182556,2.562266192754114,0.1132561036589088
26.187152,2.5539064340335145,0.112767488429143
26.191740000000003,2.540150068627028,0.1124184097862099
26.196336,2.5286813109724195,0.1119368590089619
26.200924,2.512715381079572,0.1115667061012028
26.205512,2.498914874224457,0.1110889641202813
26.210092000000003,2.490999712911812,0.1104018016494839
26.214676,2.480386248256224,0.1097719888680195
26.219268,2.471160956904865,0.1090394460140828
26.223852,2.459359546924709,0.1083473445736142
26.228444000000003,2.445881452763404,0.1076728348444229
26.233032,2.4333027930497453,0.1069732307534253
26.237624,2.420724133336087,0.1062680311924429
26.242216,2.4067573003181986,0.105658071643513
26.246804,2.39446715148146,0.1050160718145321
26.2514,2.389616847654196,0.1041584236381259
26.255992,2.385421608846288,0.1033231476107358
26.260588,2.3817592503435905,0.1025305025387468
26.265184,2.37875195686025,0.1017606295198444
26.269784,2.3789758470250635,0.1009604123685532
26.274388,2.380632051942736,0.1001955220729386
26.278984,2.3875626788321496,0.0993386334353187
26.28358,2.3982132282263007,0.0983728305024099
26.288168,2.406453985154428,0.0975406296144788
26.29276,2.4131843840641785,0.0968185099168067
26.297348,2.412641264127229,0.0963921381023823
26.30194,2.4066234942388744,0.0962242782545942
26.306528,2.4076790152175573,0.0959257055086015
26.311116,2.410044666234953,0.095672528599125
26.3157,2.413065382271705,0.0954378537161134
26.320292,2.4194394666707577,0.0951705120332981
26.324884,2.423770312746224,0.0949779977271274
26.329476,2.4294112888604023,0.0948283913874767
26.334068,2.437994937745816,0.0945823372562623
26.33866,2.4549178660883517,0.0941495676003419
26.343248000000003,2.4667326986219185,0.0939111300357824
26.347836,2.478180977013049,0.0937341856341426
26.352424,2.490528689851828,0.0935471364256777
26.357016,2.502754217976461,0.0933825810558626
26.361612,2.5198434724817704,0.0930971759811791
26.366204000000003,2.5342344236441354,0.092866450388262
26.370792,2.547725940358853,0.0926594281050613
26.37538,2.561872522092928,0.092477060659334
26.379972,2.5817822646553257,0.0921654503546613
26.384556,2.6047568647031043,0.0917566559903466
26.389144,2.6329617452739966,0.0911582622162686
26.393736,2.666519091082148,0.0903686383744102
26.398328,2.6919815268614684,0.089716272803821
26.402916,2.7149900287261373,0.0890775574224241
26.407512,2.743639506704984,0.0883407577096897
26.412108,2.7697128660550328,0.0876324461236975
26.416704000000003,2.797829463728669,0.0868596746373907
26.421280000000003,2.82860022329662,0.085963466469866
26.42588,2.8605147867405103,0.0850429147943411
26.430468,2.8821690171178376,0.0843228592859672
26.435068,2.9030459977616627,0.0835869152611882
26.439656,2.921469044490835,0.0828505374792416
26.444256000000003,2.936416538143562,0.0821490678608035
26.448852,2.947111228986341,0.0814670313591664
26.453452,2.952409313143234,0.0808675395236686
26.458036,2.957707397300126,0.0802703111854347
26.462628,2.959529928380572,0.0797010034096334
26.46722,2.9608195791558067,0.0790965255030635
26.471812,2.957734242406949,0.0785329071250006
26.476404,2.9560370789623214,0.077902607592633
26.481004,2.9526632313365435,0.0772757306098222
26.485584000000003,2.942504603720648,0.0767719711552869
26.490168,2.9369653330571386,0.0762032664565836
26.494752,2.930282258517688,0.0756702634436071
26.499336,2.914238285359324,0.0752734870164883
26.503928,2.8981943122009586,0.0748737498486698
26.508516,2.884970827099683,0.0744317056944746
26.513116,2.86381875813235,0.0741469845910356
26.517704,2.8406234508414308,0.0739061511741465
26.5223,2.822291869931187,0.0735739686501125
26.526884000000003,2.8070251465063243,0.0731676421530625
26.531472,2.7947010958526963,0.0727030698750408
26.536076,2.782909925504279,0.0722743849114205
26.540664,2.776270992413457,0.071827357657881
26.545264000000003,2.7710643740754954,0.0714120333329258
26.54986,2.766512820756889,0.0710217188315996
26.554444,2.766336254962377,0.0706109778711383
26.559040000000003,2.762972646968338,0.0702824344836745
26.563636,2.7555225623271253,0.070043026292779
26.568240000000003,2.742842197162799,0.069935975905029
26.572824,2.7345368195225666,0.069806355919059
26.577424,2.7299513643870705,0.0696306986550738
26.582012,2.725243724537429,0.069471364561721
26.586612,2.724378191906671,0.0692525210284271
26.5912,2.7293980048183824,0.068925033183177
26.5958,2.73646105605368,0.0685536757929274
26.600396,2.740459249803598,0.0682550317313291
26.604988,2.750997854115341,0.0678751684012163
26.609584,2.7615364584270856,0.0674968665564106
26.614176,2.7708090741487448,0.0671764712442172
26.618776,2.778937885994465,0.0668976402451955
26.623364,2.7869445131260395,0.0666394610352555
26.627944,2.795317694400051,0.0663326183366308
26.632536,2.8022585609212043,0.0659939280742498
26.637124,2.8054795049376198,0.0656901074785634
26.64172,2.804325461429941,0.0653953959226764
26.646308,2.79597594234108,0.0651428203014642
26.650896000000003,2.7945333879564824,0.0647736596684889
26.655488,2.8024517321908005,0.0643041335721182
26.660064,2.81229113003456,0.0637999132383759
26.664648,2.8155901173164937,0.063368831493882
26.669232,2.8206879734937225,0.0629310792818337
26.67382,2.8229653416138625,0.0625236249564478
26.678428,2.823443840838706,0.0621298191306108
26.683016,2.8238001553494043,0.0617550765355944
26.687620000000003,2.823912100431811,0.0614142046171238
26.6922,2.821570111599566,0.0610520262538335
26.696800000000003,2.8166520041385223,0.0606877168520716
26.701392,2.8080139741727423,0.0603506844840138
26.705984,2.7987208791876053,0.0599846977683815
26.710588,2.7868516655736704,0.0596102381808636
26.715168,2.771018160026708,0.0592960828855959
26.719764,2.755961904213247,0.0589909497013519
26.724344,2.7406612789714946,0.0587145247615574
26.728948000000003,2.7257272078721795,0.0583845413167387
26.733536,2.714513059277601,0.0580182556942779
26.738136,2.708817702083056,0.0576087219124062
26.74272,2.6972369993460408,0.0572854988951028
26.747316,2.679482440189636,0.0569659530793213
26.751908,2.661850065747377,0.0566274820326313
26.756492,2.64613874491456,0.0562622042399046
26.761096,2.6259302518435037,0.0559075609877822
26.765688,2.605843943486592,0.055530997793913
26.770276000000003,2.580771724034859,0.0552306780380312
26.774864,2.5518573973642438,0.0549707183225057
26.779452,2.519345332903036,0.0547161570266389
26.78404,2.4892872023564814,0.0544829021755917
26.788628000000003,2.457063648772194,0.0543038329703354
26.79322,2.430236701873793,0.0541082703531721
26.797816,2.405863688890045,0.0539373077252896
26.802404000000003,2.383944609820949,0.0537900774931467
26.807004,2.365989822684881,0.0535772238074104
26.811584,2.3499560891582547,0.0533399512007326
26.816176,2.3309796828603933,0.0531428954848257
26.82076,2.318299317696068,0.0529275437526276
26.825352,2.305130213675158,0.0527830527752411
26.82996,2.2878746330070747,0.0527173234203126
26.839156000000003,2.252874732814327,0.0526555495593673
26.843748,2.237051466899102,0.0526338093388779
26.848348,2.224048689040968,0.0525853218278448
26.852944,2.214521464259278,0.0525477188771317
26.857536000000003,2.20691529308703,0.0524866204754991
26.862132000000003,2.2062160866190457,0.052322290862564
26.866712,2.2082151834940045,0.052151889143455
26.871312000000003,2.2097255415123804,0.0520538448453441
26.8759,2.2114802689590483,0.0519176784305609
26.8805,2.2162998538910963,0.0517173609462593
26.885088000000003,2.2168666360131963,0.05148455559446
26.889688,2.212158996163556,0.0512372695850049
26.894272,2.2085951601898537,0.0509504157850944
26.898868,2.202088651444916,0.050703560809251
26.903460000000003,2.1899411665858013,0.0504968357768198
26.908056,2.1799591047644187,0.0502245257086224
26.912644,2.159716709876472,0.0500134173363742
26.917236000000003,2.139063619397461,0.0497198224190718
26.921828,2.119676517508535,0.049358537381298
26.926412,2.1010666653531107,0.0490120483156238
26.931,2.0788590754070952,0.0486659430146999
26.9356,2.051665574366257,0.0484060853464833
26.940188,2.0179316627635937,0.0481864247896153
26.995296000000003,1.3895832983684442,0.0481415263676644
