Time,Force,Position
27.537108,9.91939414933041,0.1451708286530688
27.541696,9.997335956135377,0.1442049855367635
27.546288,10.072657502862914,0.1432404228851824
27.550884,10.147035473694178,0.1422683100590859
27.555472,10.210331720276743,0.1413893574683221
27.560076,10.26933102260074,0.1405196931000815
27.564668,10.326609499294957,0.1396381445835257
27.569256000000003,10.380246096749952,0.1387675637224621
27.57384,10.423944773832195,0.13795897205245
27.578432,10.46310213722757,0.1371695138812072
27.583036,10.496940937202575,0.1363979320190413
27.587616,10.522274131557683,0.135688109291415
27.592216,10.540245524168837,0.1350226974664825
27.596796,10.547668072836506,0.1344429302616276
27.601396,10.546462831170134,0.1339252276308343
27.605984,10.544724709198553,0.1334009003972492
27.610584000000003,10.54600730326372,0.1328114007758721
27.615172,10.538417737566558,0.1322914099482799
27.619768,10.523999250430649,0.1318151992950382
27.624348,10.505450145198935,0.1313597480244897
27.628944,10.477784510776605,0.130982244791514
27.633544,10.44304558548723,0.1306566983844639
27.638136000000003,10.403565118531327,0.1303758448298408
27.642724,10.360486913784833,0.1301215696928244
27.647312,10.32268313101008,0.1298272041518188
27.6519,10.285412228540538,0.1295385731894764
27.656492,10.245731533604973,0.1292874928954986
27.661076,10.206828088402908,0.1290322926123117
27.665664,10.177696237410824,0.1287027742913205
27.670256,10.148075647562155,0.1283919348143083
27.674836,10.120786806913998,0.128073654317794
27.679428,10.099305268542787,0.1277254620936473
27.684016,10.079666740515506,0.1273905142434651
27.688592,10.066857133926968,0.1270145939304807
27.6932,10.061120818205469,0.1265881570501825
27.697784,10.058860055560416,0.1261413633818891
27.702388,10.056765619078137,0.1257193560961247
27.70698,10.06624164570113,0.1252175888696099
27.711568,10.080381170725138,0.124705079758472
27.716164,10.104292289959126,0.1241293816503707
27.720744,10.134132896184214,0.1235227293777858
27.725340000000003,10.169780804686257,0.122891975202125
27.729924,10.216099741845923,0.1221929744401418
27.734524,10.263362254901866,0.1215158608487523
27.739104,10.311934897996522,0.1208515301865504
27.743704,10.36386090945348,0.1201766737798269
27.7483,10.42208296204397,0.1194617629483424
27.752892000000003,10.479938460492024,0.1187645509438536
27.757488,10.537549589511787,0.1180877841647298
27.76208,10.59798120658864,0.1173922131899388
27.76668,10.660988942294292,0.1166895669671866
27.771276,10.724363232142384,0.1159804587417361
27.775876,10.790147314456492,0.1152413708579322
27.780472000000003,10.852333658980012,0.1145300897550529
27.78506,10.91272113460824,0.1138372533457769
27.789648,10.966690384388782,0.1131926027997257
27.794236,11.019882384435824,0.1125539782507737
27.79882,11.066123278329975,0.1119574767402957
27.803412,11.115673399137796,0.1113283030601533
27.808,11.158683109383793,0.1107523527676227
27.812592,11.200260504876928,0.1101766753168269
27.81718,11.238728901436057,0.1096070050016253
27.821764,11.268447322947,0.1090829204337094
27.826352,11.302330264370632,0.1084949828674533
27.83094,11.333470761002696,0.1078990890919145
27.835544,11.35921465094887,0.1073335236148373
27.840132,11.37980630363745,0.1067904352734626
27.844724,11.403951552667989,0.1062063199569219
27.849316,11.422167314707432,0.1056438342140392
27.853896,11.437029708384578,0.105092551675533
27.858496,11.44878310312771,0.1045444889189056
27.863076,11.458615444261405,0.1040118610601365
27.867672,11.466526731785656,0.1034943533934085
27.87226,11.48056773428067,0.1029286650425632
27.87686,11.494075856470474,0.1023565307449522
27.88144,11.512081150898515,0.101763944636308
27.88604,11.528531945859552,0.1011728456463611
27.890624000000003,11.545637805839949,0.1005869382411494
27.89522,11.559023743315604,0.1000250708320622
27.899812,11.570732996610111,0.099467107755087
27.904396,11.5862843571235,0.0988883381829626
27.908984,11.602490782656249,0.0983147895637863
27.913580000000003,11.626259237912612,0.0977007821912046
27.91816,11.64545247766522,0.0971380909519725
27.922744,11.665955847456544,0.0965859673559266
27.927336,11.691445128342687,0.0960000831345323
27.931928,11.72257538534301,0.0953873073878851
27.93652,11.751173665163162,0.0948104736463821
27.941108,11.784024747793264,0.0942252881598914
27.945704,11.820229198785666,0.0936361346748235
27.950292,11.857865964530925,0.093054419821962
27.954876,11.897301599171476,0.0924691921223737
27.959472,11.935593429936093,0.0918966809618469
27.96406,11.966856111282302,0.0913754032323813
27.968668,11.99865167293372,0.0908651877716821
27.973256,12.027871115956344,0.0903629231762187
27.97786,12.059011612588405,0.0898525742541321
27.982448,12.088475425039316,0.0893453806192292
27.987036,12.118061422204368,0.0888361969195216
27.991632000000003,12.148791223245366,0.0883165165561851
27.996224,12.17388004817218,0.0878258654132352
28.000828,12.198191623365496,0.0873353394480036
28.005408000000003,12.215718418568692,0.086883872141361
28.010008,12.233611767914327,0.0864211951523981
28.014596,12.249173368059456,0.0859565470665265
28.019196,12.261914480147492,0.0855060132347729
28.02378,12.2673379319402,0.0850827362786602
28.028384000000003,12.269652384798905,0.0846551972211497
28.03298,12.268735654009452,0.0842276662931402
28.03758,12.262666685962405,0.0838083609655626
28.042172,12.25528758787664,0.0833794410709898
28.046768,12.243533502266782,0.0829596030062272
28.051356,12.231613090494152,0.0825188210788715
28.055952,12.21826036396866,0.0820699947405493
28.060540000000003,12.201798638509162,0.0816154454618753
28.065132,12.18378241358266,0.0811569589635525
28.06972,12.16012521254198,0.0807193502958945
28.074304,12.138755619253176,0.080260754959686
28.078896,12.114932092049722,0.0798004429625744
28.083488000000003,12.090453499826914,0.0793335487491069
28.08808,12.065319842584746,0.0788594545220028
28.092668,12.039653305037367,0.0783748824717657
28.097264000000003,12.012554452737136,0.0778811066242324
28.101844,11.984433981275105,0.0773919100588513
28.106436,11.956313509813077,0.0769008235629882
28.111024,11.92921465751284,0.0764029248028536
28.115612,11.902893054946103,0.0759039647035202
28.120228,11.877348702112874,0.0754045786110352
28.124816000000003,11.85552427178438,0.0748927747040392
28.129412,11.839340817570069,0.0743605073993372
28.134,11.822912993927462,0.0738350886656441
28.138588,11.810205092789593,0.0732975529597209
28.143184,11.797907887242788,0.0727722839616006
28.147776,11.788431169753071,0.0722360614606187
28.15238,11.781408386178008,0.0717011885298293
28.156976,11.779004959555332,0.0711539444128194
28.161568000000003,11.78199813961854,0.070595239765594
28.166156,11.78245934250158,0.0700625290886794
28.170756,11.786151729032772,0.0695344649047908
28.175348,11.795118537535709,0.0690024238000111
28.179952,11.80641709523915,0.0684766726062632
28.18454,11.821846271038392,0.067956153864593
28.189144,11.843449303257026,0.0674299972713997
28.193736,11.866973389085102,0.0668979377323795
28.198328,11.890908170504243,0.0663794991742985
28.20292,11.917541255266324,0.0658601932177955
28.207508,11.94969313142844,0.0653308783308861
28.212104,11.985320560667004,0.0648019530625755
28.216700000000003,12.016861513258393,0.0642950072000193
28.221288,12.047014292545546,0.0638071087748625
28.22588,12.078843756013857,0.0633222798766468
28.23046,12.108629981158575,0.0628489943413511
28.235044,12.14225831352218,0.0623667489847193
28.239636,12.17809621037214,0.0618978028851083
28.244224000000003,12.214711356955608,0.0614337558549716
28.248816,12.249938330234844,0.060988195355298
28.253408,12.282222630742844,0.0605537500824172
28.258000000000003,12.317571788736226,0.0601070114617331
28.262588,12.35112207783431,0.0596638433722715
28.267176,12.378787021389924,0.0592423657078725
28.271772,12.407717953535627,0.058811415506505
28.276364,12.430230659833647,0.05839062202098
28.280972,12.450045062788725,0.0579745374165368
28.28556,12.46961509631551,0.0575665774845722
28.290164,12.492249987327677,0.0571474657005596
28.294756,12.509121717511515,0.0567440743265217
28.299344,12.523295144352414,0.0563446562818193
28.30394,12.53387083340272,0.0559485357175305
28.308516,12.544446522453027,0.0555519316196806
28.313112,12.553345527322184,0.0551537214497965
28.317692,12.559546228848395,0.0547575062712406
28.322292,12.561660453727434,0.0543757072467828
