Time,Force,Position
34.462031999999994,9.160174224324882,0.1546525842867254
34.466628,9.255989592078729,0.1537715550008458
34.47122399999999,9.342223353970514,0.1528833878720331
34.475812000000005,9.417531478144642,0.1520447170653538
34.48040399999999,9.489031396916776,0.1512047464297521
34.485,9.558277609753924,0.1503587621595105
34.489604,9.617874413095231,0.1496159001709202
34.494192,9.673052087463825,0.1488894829926484
34.498791999999995,9.72074577537431,0.1482254059558847
34.50337999999999,9.765164138188013,0.1475517089119714
34.50798,9.799644580628964,0.1469573181984172
34.512568,9.832115686563217,0.1463320587969904
34.517168,9.866053009067215,0.145643666892402
34.52175199999999,9.893117268683842,0.1449849876062971
34.526348,9.920992679850858,0.1442585672051562
34.530928,9.941872843416355,0.1435661782291049
34.53551999999999,9.962298169942162,0.1428344657203496
34.54011199999999,9.971108891914056,0.1421845658496612
34.544696,9.974845419893882,0.1415420354738092
34.549284,9.96664493062599,0.1410264226618376
34.553867999999994,9.950960454899995,0.1405596058521658
34.55846,9.932411349668286,0.1400940638276008
34.563052,9.908465637750687,0.1396788807564274
34.56764799999999,9.881943807204292,0.1392822788780576
34.572239999999994,9.85309022745739,0.1388934560613555
34.576832,9.816019552967507,0.1385831255490137
34.581412,9.779315432620066,0.1382548577005398
34.58600799999999,9.74273349698677,0.1379190451582579
34.59059599999999,9.708561353819496,0.1375370891896604
34.59518799999999,9.674389210652224,0.1371530319069223
34.59978,9.642915370827897,0.1367417596085537
34.604364000000004,9.609031738537544,0.1363727260577586
34.608952,9.574537182676464,0.1360289016793994
34.613547999999994,9.544173244911184,0.1356582375789028
34.618132,9.512709644718596,0.1353348035550929
34.622727999999995,9.48423285874587,0.1350045353156206
34.627308,9.45490077977412,0.1347107898604416
34.631908,9.434074306422271,0.1343569259725451
34.636495999999994,9.420609634814372,0.1339634008343586
34.641096000000005,9.410664657731555,0.1335721371392306
34.645684,9.408980916840338,0.133132715209442
34.650284,9.411960674350135,0.1326799719251246
34.65486799999999,9.420747734136889,0.1321954467302318
34.659464,9.433421042591146,0.1316993011284062
34.664056,9.451657283894068,0.1311858959129624
34.668644,9.47803257667445,0.1306334897933449
34.673232,9.510870236751138,0.1300540549426584
34.67782799999999,9.551314068000076,0.1294348929584884
34.682416,9.59437815932644,0.1288331415166289
34.687004,9.645825671558551,0.1281899992830399
34.691592,9.702181051619966,0.1275309872232032
34.69618799999999,9.765609722548422,0.1268264533220601
34.700776000000005,9.828549654620293,0.1261474051326077
34.70536799999999,9.89075647840729,0.1255040013292336
34.709959999999995,9.958604278308467,0.1248148549198333
34.71454,10.03197086960968,0.1240887751080842
34.71913599999999,10.10713632980618,0.1233540575843398
34.723716,10.179359117231453,0.1226560642294755
34.728303999999994,10.247861982151983,0.1219993332370159
34.73291999999999,10.318774639538542,0.1213076034042332
34.73750799999999,10.387233363010449,0.120631278116015
34.742104,10.45131709895826,0.1199882591553709
34.746700000000004,10.51204746654377,0.1193677403023829
34.751304000000005,10.573266572985863,0.1187334064660039
34.755892,10.624958454646269,0.1181564509344269
34.76048,10.673907891515102,0.1175754645622685
34.76507599999999,10.719093264430567,0.1170005533215638
34.769656,10.753851978116698,0.1164871096746717
34.77426,10.785990431725404,0.1159625160412517
34.778848,10.81113363773259,0.1154528587756623
34.78344799999999,10.83083609560526,0.1149537984381042
34.78803599999999,10.84215513257218,0.1144903249758203
34.79262799999999,10.852652778356967,0.1140016107236793
34.797224,10.861429598511975,0.113492517988911
34.801824,10.8614564436188,0.1130301915296708
34.806408000000005,10.85232261808637,0.1126008940263802
34.811004,10.839424728600576,0.1121704982751002
34.815591999999995,10.82546107850436,0.1117223424244733
34.820188,10.809654418064223,0.111257294244262
34.82476799999999,10.791105312832512,0.1107806954720927
34.829352,10.77149044699038,0.1102858767850715
34.833944,10.749910386090178,0.1097769008755798
34.838532,10.724199707094172,0.1092777528169703
34.84312,10.694724964144802,0.1087752338904256
34.84771599999999,10.667415644233165,0.1082454404990582
34.852307999999994,10.637530205692729,0.1077243610376356
34.8569,10.60891075574238,0.1071829592882102
34.861496,10.585277216886851,0.1065956669720571
34.866088000000005,10.55972262442188,0.1060206725889569
34.87067999999999,10.533801477814473,0.1054572873317691
34.87526799999999,10.505714908169333,0.1049146122407751
34.879859999999994,10.480326641867135,0.1043548210643178
34.884456,10.45289513724135,0.1038116694511108
34.889039999999994,10.426607436491503,0.1032524632402325
34.893632,10.407348885160072,0.1026308061047065
34.898228,10.390299898314996,0.1020103846261551
34.902816,10.373905976489278,0.1013922774090455
34.907411999999994,10.362131411615945,0.1007472816160983
34.911992,10.350645357619532,0.1001197148534266
34.916596,10.34046943366183,0.0995011324925693
34.921176,10.332503074190488,0.0988877579277722
34.925776,10.33009964756781,0.098271646523719
34.93035999999999,10.333625707936228,0.0976384706175376
34.934960000000004,10.34205963613395,0.09699984723412
34.939556,10.356667420751062,0.0963389389647749
34.944148,10.37360695456868,0.0956792581131567
34.948728,10.39275605287266,0.0950298224711819
34.953323999999995,10.409128804568178,0.0944251347710343
34.95792399999999,10.427711120750056,0.0938265674966011
34.96252,10.448625186132444,0.0932308098806078
34.967116000000004,10.47481367348657,0.092616756782126
34.971712,10.50321172532706,0.0920119565169703
34.976299999999995,10.538683068034588,0.0913850921464973
34.980892,10.576241790514327,0.0907733251624827
34.985484,10.61180141611911,0.0902103566938024
34.990072,10.652635463695637,0.0896338499700141
34.994664,10.697600129367965,0.08905605870406
34.999256,10.739499937554909,0.0885073401382042
35.003851999999995,10.784220233798944,0.0879472059415714
35.00843999999999,10.82971777977648,0.087391828252266
35.013040000000004,10.875093141039876,0.0868446548345794
35.017628,10.91723731865511,0.0863013594455142
35.022223999999994,10.958604246536844,0.0857611689006051
35.026808,10.99805012080914,0.0852365446272473
35.031396,11.034797691738488,0.0847265980370886
35.03599199999999,11.075631739315012,0.0841929112435533
35.04057999999999,11.1127458643868,0.0836783977086662
35.045168000000004,11.154190835534052,0.0831294423044828
35.049764,11.197434675576602,0.0825776462926988
35.05436399999999,11.24104506976159,0.0820169948519556
35.058955999999995,11.282978779765426,0.08146124312549
35.063536,11.322580740568752,0.0809041523999251
35.068136,11.35564229081026,0.0803772854643394
35.072728,11.389725460213551,0.0798482016967848
35.077327999999994,11.42327574931164,0.0793116455205096
35.081908,11.452328866171484,0.0787907695922426
35.086507999999995,11.479949668278472,0.0782663950131545
35.091092,11.507448285671313,0.077747676074804
35.095688,11.532126415007063,0.0772420923432128
35.10028,11.55656017491453,0.0767466930535594
35.104876000000004,11.58213773869793,0.0762441032320775
35.109464,11.608614736928978,0.0757408201690209
35.11405599999999,11.635213919874172,0.0752363634682285
35.118644,11.656705007010398,0.0747618950999417
35.123232,11.679872778327772,0.0742903396434377
35.12782,11.697810269122035,0.0738549396456441
35.132408,11.716525009649802,0.0734219655504653
35.137,11.73372939215919,0.0730124550136616
35.141592,11.751544698239307,0.0725864853936881
35.146187999999995,11.769115634891133,0.0721700564055833
35.15077599999999,11.788485440438256,0.0717518444735803
35.155376000000004,11.810186995185884,0.0713410804909574
35.159964,11.833809603542951,0.0709232998802205
35.164559999999994,11.851791235785845,0.0705247131219715
35.169152,11.8668301952575,0.070138824098978
35.173732,11.8837902083386,0.0697467645500188
35.17832799999999,11.897685363934318,0.0693716545845831
35.18291599999999,11.909659465920592,0.0690036987220954
35.187504000000004,11.920489764030927,0.0686445922606558
35.1921,11.931686616283704,0.0682756124468374
35.196692,11.938919176603449,0.0679248080889415
35.201296,11.94284251000952,0.0675969491654686
35.20589199999999,11.9457442242538,0.0672751425618911
35.210483999999994,11.955797272630637,0.0669172491599988
35.215076,11.95636723767441,0.0665880591892656
35.21967599999999,11.959102625755914,0.0662452145569846
35.22426399999999,11.962204567979857,0.0658917219791066
35.228872,11.96309694571744,0.0655276501270506
35.233459999999994,11.958881227646051,0.0651888792856882
35.238063999999994,11.951967206231725,0.0648539260297421
35.242656,11.9432543159221,0.0645221073422301
35.247252,11.93016643808838,0.064192532063999
35.25183199999999,11.915401876073515,0.0638611213427972
35.256424,11.899860064325145,0.0635254415539882
35.26102399999999,11.886239306186214,0.063182677008994
35.265624,11.867999191094896,0.0628484276608267
35.270216000000005,11.850902879879529,0.062504755244697
35.27480799999999,11.832007699768855,0.0621616401566775
35.27939599999999,11.816421746571857,0.0617963508964049
35.283984000000004,11.796627132013535,0.0614530611969523
35.288572,11.778098506045302,0.061096643660424
35.293167999999994,11.763900726152537,0.0607133976355813
35.29776,11.748681327097971,0.0603344600821887
35.302352,11.728720386376878,0.0599675827275025
35.30694,11.71464479119826,0.0595782242599912
35.311528,11.69799307739084,0.0591874269057667
35.31612,11.680319744421626,0.0588006944981471
35.320712,11.663423661185911,0.0584157998536335
35.3253,11.64767138182614,0.0580212151891096
35.32989599999999,11.63294072162816,0.0576212331588592
35.334484,11.613346335049506,0.0572343742375467
35.339084,11.594773567632645,0.0568414501893693
35.343672,11.577877484396932,0.0564501192127439
35.34826,11.565356388685313,0.0560582992103134
35.352868,11.555655781030785,0.0556612848661629
35.35746,11.55057453032864,0.0552568999218823
35.362055999999995,11.547292148521793,0.0548517400318798
35.366643999999994,11.552471230886212,0.0544316013678204
35.371244000000004,11.558305378269988,0.0540201003559998
35.375823999999994,11.568592556443376,0.0535813289275658
35.380427999999995,11.578513180474326,0.0531536599447509
35.385012,11.584880208163312,0.0527529852067329
35.389612,11.59010343197636,0.0523595229575731
35.39420799999999,11.593161232751672,0.051976388486964
35.398804,11.595075229651048,0.0516004815050578
