Time,Force,Position
29.448076,11.43955916780932,0.1466239135087808
29.452664,11.56010068013594,0.1459963996177511
29.457256,11.665331327589069,0.145354752468905
29.461856,11.75218625268332,0.1447334875265606
29.46646,11.823407900210276,0.1441344744342058
29.471052,11.879162596332709,0.1435746973868061
29.475656,11.92329244826949,0.1430117584543137
29.480252,11.947013579155556,0.1425678208667942
29.484843999999995,11.963040255972116,0.1421255955688579
29.489424,11.968019110356872,0.1417045102254304
29.494024,11.961705772881531,0.1413118341447329
29.498611999999994,11.945821069175876,0.1409609282515348
29.503212,11.924495617335705,0.1406278494305952
29.507808,11.897529189381354,0.1403454581325209
29.512408,11.874038314503448,0.1400384335143173
29.516991999999995,11.85365643855955,0.1397202060040978
29.521584,11.833196519350135,0.1394300246998734
29.526171999999995,11.812902926303495,0.1391590495841473
29.530767999999995,11.79584051690501,0.1388730061412139
29.535356,11.77751211891644,0.138607345018596
29.539952,11.762414904576026,0.1383272460322342
29.54454,11.752225558064914,0.1380239617141886
29.549124,11.742735418021788,0.1377470149719847
29.553715999999994,11.740362710294326,0.1374449800677209
29.558308,11.742653500967876,0.1371300140849478
29.5629,11.749485605328292,0.1368062787784104
29.567484,11.756772546728405,0.1365179954910575
29.572084,11.76860080181538,0.1362209592690793
29.576671999999995,11.78574762032273,0.1359147690583548
29.581264,11.809767501717452,0.135595141481604
29.585852,11.84282586903728,0.1352368306827749
29.590444,11.881080615063334,0.1348733942609083
29.595036,11.9273522278527,0.1344821111343745
29.599628,11.97714353516714,0.1340943803919145
29.604228,12.030698906434944,0.1337027733732427
29.608824,12.089162145532056,0.1332948243215693
29.613412,12.150856568277318,0.1328760349584541
29.618004,12.216559424404238,0.1324449028942131
29.622595999999994,12.283328041141582,0.132029472416551
29.627192,12.350507353469988,0.131627300423913
29.63178,12.4192411652654,0.1312256107387799
29.63638,12.487852792346668,0.1308344745499147
29.640968,12.559162722770878,0.1304289505053358
29.645564,12.624953861795056,0.1300660959107358
29.650156,12.688046697476288,0.1297247589436113
29.654756,12.747786164795224,0.1294001789740349
29.65934,12.80748149066553,0.1290533608178676
29.663936,12.86545599090606,0.1286936193851764
29.668516,12.91811192772622,0.1283449701293395
29.673112,12.966226550859512,0.1280055512396757
29.677699999999994,13.007512252554058,0.1277023008807994
29.682296,13.046299878885325,0.1273872759677232
29.686876,13.080790560958013,0.1270724939284329
29.691464,13.11392697154336,0.1267321653350179
29.69604,13.14366587231778,0.1263851408451874
29.700636,13.168741274691186,0.1260496126868052
29.705228,13.193117470596608,0.1256915138313469
29.709816,13.214340526119392,0.1253185904255519
29.714408,13.234209310154837,0.1249200646133349
29.719,13.253256703008146,0.1245021648825034
29.723592,13.26698553244109,0.1240905768780421
29.728176,13.273108190701784,0.1237101210280669
29.732764,13.271624677790234,0.1233604119235
29.737359999999995,13.268298154534758,0.1229980220924615
29.74194,13.263905870668856,0.122622873028435
29.746528,13.263844432878424,0.1222050162404937
29.751124,13.264804614249789,0.1217789092629824
29.755716,13.266542045354647,0.1213524016478222
29.760316,13.269833975926511,0.1209240709640833
29.764908,13.273248091212524,0.1204924564918455
29.769507999999995,13.27408608786974,0.1200706509690712
29.774083999999995,13.27480189981281,0.1196531236530177
29.778676,13.274251723165792,0.1192520934224781
29.783268,13.275011676557488,0.1188575842942702
29.787864,13.277326129416188,0.1184615400009315
29.792448,13.280417832008396,0.1180652733308322
29.797044,13.284164599619952,0.1176733075095001
29.801632,13.290120931717873,0.1172833410045282
29.806224,13.29481127522571,0.1169096338042612
29.810816,13.30027886846705,0.1165359700393046
29.815416,13.30591278787116,0.1161793487830799
29.820004,13.319641617304104,0.1157821331173614
29.824592,13.341831910908311,0.1153336984011814
29.82918,13.369174441770122,0.1148662108584078
29.83378,13.397172037651286,0.1144029671334187
29.838368,13.420428091865915,0.1139713267586923
29.84296,13.443395635203633,0.1135274584434725
29.847556,13.46505304850263,0.1130789224129257
29.852135999999994,13.48474526674356,0.1126221832811035
29.85672,13.501983551069843,0.1121711154095691
29.861308,13.521875997290437,0.1116848709967415
29.865896,13.539681063738817,0.1111932023940415
29.870492,13.55564311984327,0.110687815807557
29.87508,13.565142808651416,0.1101935664092015
29.879672,13.574842725439224,0.10967205155484
29.884263999999995,13.57795809021658,0.1091639642287736
29.888856,13.57526615271698,0.1086696405627204
29.893452,13.566111847921077,0.1081850756254399
29.898032,13.553315663885948,0.1076931805407365
29.902628,13.535978166163956,0.1071985947895058
29.907208,13.51932963527821,0.106658537155495
29.911804,13.494419868200858,0.1061353567518609
29.916391999999995,13.459982876341815,0.1056429580783969
29.920992,13.420227321062406,0.1051466644419311
29.92558,13.37556389795369,0.1046564348107755
29.930176,13.329956898948698,0.1041453140922976
29.934756,13.279974912419611,0.1036467479445976
29.939352,13.22549575365229,0.1031640437658255
29.943943999999995,13.168196106827873,0.1026930634138836
29.948536,13.111918079165257,0.1022118204747665
29.953115999999994,13.058216170131434,0.1017206436392646
29.957708,13.004392076383468,0.1012300341490293
29.962295999999995,12.953266285978444,0.100725264127303
29.966891999999994,12.906637667811658,0.1001990728299196
29.971488,12.85363496524582,0.0997209359283347
29.97608,12.80770555354702,0.0992149707233977
29.980675999999995,12.76410789104873,0.0987065511797161
29.985256,12.72680626968397,0.0981707695829382
29.989852,12.695189765882017,0.0976268817766118
29.99444,12.666437891585783,0.0970890180356927
29.999028,12.64018409265283,0.096569772704382
30.003636,12.618593792120889,0.0960504048745023
30.008219999999994,12.605631281922989,0.0955073833179685
30.012828,12.600930007916697,0.0949540886037649
30.017416,12.60510089367273,0.0943721051195933
30.022003999999995,12.6108704203444,0.0938128434410066
30.026596,12.621303445417084,0.0932561577307283
30.031192,12.639342641662012,0.0926857107844658
30.035788,12.663066955469754,0.0921118098143343
30.040368,12.689123018477998,0.0915410577416476
30.044964,12.716489211524957,0.0909828152740548
30.049552,12.748885457115362,0.0904194915042999
30.054151999999995,12.785045766659133,0.0898669987616598
30.058732,12.822394021527472,0.0893291677908129
30.063332,12.87041330505344,0.0887620653947679
30.067916,12.920764337779914,0.0882025877719573
30.072516,12.97728922692578,0.0876311785074288
30.077096,13.033613888091985,0.0870934395883569
30.081692,13.091248679296898,0.0865685020625955
30.086279999999995,13.151093034988175,0.0860522769350304
30.090872,13.21375787873654,0.0855297323641686
30.09546,13.279121025827848,0.0850034642366752
30.100048,13.339376077110188,0.0845103260946804
30.10464,13.394889586725997,0.0840412499032894
30.109236,13.448770553609284,0.083600465525682
30.113824,13.506371442997306,0.0831490159449285
30.118416,13.565893385994771,0.0826930823364434
30.123012,13.621817591201648,0.082249204824101
30.1276,13.680151588874546,0.0817884708251068
30.1322,13.739262836280949,0.0813321156709933
30.136779999999995,13.79555359563026,0.0808889938690772
30.14136,13.850944920531925,0.080452056143602
30.145968,13.901961257909493,0.0800254494606752
30.150555999999995,13.953221964715356,0.0795948435268558
30.155159999999995,13.996509946206531,0.0791822911713785
30.159748,14.03055921379294,0.07879742427472
30.164352,14.057413005798162,0.0784305138086954
30.168948,14.080380549135878,0.0780576586663215
30.173536,14.100239093539582,0.0776809197122437
30.178135999999995,14.11404596623804,0.0773110051720153
30.182716,14.122334047536466,0.0769571027471979
30.187312,14.123304468539562,0.0766215455477702
30.191896,14.12680686672283,0.0762626830422647
30.196487999999995,14.1285103960108,0.0759074151081434
30.201076,14.12248556941238,0.0755583794342348
30.205676,14.112085755289865,0.0752154514194973
30.210272,14.093468846424372,0.0748911576245688
30.214872,14.075218491701316,0.0745565573874263
30.219468,14.04838448809285,0.0742499854407228
30.224059999999994,14.018441485550374,0.0739367172577264
30.228656,13.987965602702689,0.0736147090621943
30.233252,13.951970928454966,0.0733049272668802
30.237848,13.914055200597804,0.0730003596040592
30.242448,13.874218419131202,0.0727013983771848
30.247035999999994,13.836058321845748,0.0724011978636464
30.251624,13.808402927055148,0.0720669280839168
30.256215999999995,13.78050316283626,0.0717376481928779
30.260808,13.75415789808438,0.071410624656133
30.2654,13.72985587165608,0.0710736757127264
30.269991999999995,13.715036928560844,0.0707089684074904
30.274587999999994,13.69907418158967,0.0703510088119164
30.279176,13.69055127962797,0.0699747593177139
30.283772,13.68513737660028,0.0696068912227536
30.28836,13.682666146343822,0.0692285606835177
30.292956,13.684692088325605,0.0688421213232385
30.297543999999995,13.691337387259772,0.0684466470121846
30.302139999999994,13.70632196565106,0.0680328924555489
30.306728,13.723760477957002,0.0676229639435464
30.311308,13.74941608500592,0.0671991504397707
30.315895999999995,13.780101744598287,0.0667795578357494
30.320484,13.810543034762366,0.0663671919502221
30.325076,13.844948616859469,0.0659408414330299
30.329671999999995,13.887815663127842,0.0654971539552505
30.334267999999994,13.934402631900952,0.065048259089351
30.33886,13.98327720842594,0.064586650260398
30.343452,14.026266439408458,0.064147243540442
30.348052,14.07730643897118,0.0636805492532362
30.352636,14.12949024240984,0.0632081463211618
30.357236,14.18053024197256,0.0627457161105931
30.361816,14.2277281343164,0.0622974850761929
30.366412,14.279134688021555,0.0618315092340374
30.370992,14.325144635040829,0.0613728615419295
30.375584,14.368045583126092,0.0609085586655232
30.380176,14.412334704515583,0.0604346305780126
30.384768,14.459688683390455,0.0599516599901148
30.389356,14.503567109188886,0.0594713798133531
30.393944,14.5469126546821,0.0589866618211417
30.398532,14.587926450974813,0.0584972759377212
30.40312,14.622111325828776,0.0580059495545378
30.407712,14.649222909815702,0.057517981795458
30.412296,14.67747829767857,0.0570245446592577
30.416892,14.705611500827292,0.0565355440647831
30.421479999999995,14.722707121175947,0.0560601226933631
30.426072,14.733262330962775,0.0555946818712875
30.43066,14.741896487140163,0.055134131809055
30.435252,14.746400025221748,0.0546657148380955
30.439844,14.743097164151424,0.0542166208869817
30.444432,14.73889486863345,0.0537680694278044
30.449023999999994,14.72815216255365,0.0533263406125052
30.453616,14.709969611464372,0.0528917741756799
30.458203999999995,14.686023899546775,0.0524668243566054
30.462799999999994,14.664776490972123,0.0520400543027922
30.467392,14.631880576026674,0.0516339435576365
30.471996,14.58786903501564,0.0512579775313598
30.476583999999995,14.535029475690903,0.0508999395084041
30.481184,14.476426755537846,0.0505492366435969
30.485764,14.407730028480996,0.0502248149277998
30.490368,14.3308603481298,0.0499224696394182
30.494952,14.25337974420787,0.0496318662372716
30.499552,14.171934848352915,0.0493470829774837
30.504135999999995,14.083582987793696,0.0490752145593531
30.508731999999995,13.983826990291972,0.0488159725900103
