Time,Force,Position
34.242799999999995,12.26241521504247,0.1463785368204561
34.247395999999995,12.35843081077598,0.1457480483862361
34.251984,12.44715240839931,0.1450688779636508
34.25658,12.529890137951174,0.1443371241458852
34.261176,12.606033075860845,0.1435782492049732
34.265768,12.671861299623584,0.142820015704059
34.27036,12.723410517306364,0.1421031197949761
34.274947999999995,12.763178804272467,0.1414364054217535
34.279536,12.800160504998372,0.1407503466608906
34.28412,12.82941384983788,0.1401131829029562
34.288708,12.856335445476883,0.1394856628992155
34.293304,12.88783225661964,0.1388027550973105
34.297896,12.91429901521895,0.1381493864745093
34.302476,12.943419935712573,0.1374564753525761
34.307072,12.968410238110398,0.1367890433877206
34.31166,12.99617688711668,0.1360809084727298
34.316252,13.022389036655962,0.13537960127129
34.320848,13.047701751747594,0.1346869748222827
34.32544,13.067251306010904,0.13404408885006
34.330048,13.08794466415015,0.1333873071945404
34.334636,13.113746118098366,0.1326822590316147
34.339224,13.135949834255989,0.1320026901577991
34.34382,13.150469335975844,0.1313885775484143
34.348408,13.162945599372112,0.1307964051577029
34.353012,13.172601374711297,0.1302278565661397
34.357603999999995,13.18609925726936,0.1296313145597872
34.362207999999995,13.201151639294428,0.1290309811639915
34.366796,13.216204021319497,0.128430162539075
34.3714,13.227580622288452,0.1278781869760934
34.375988,13.245008894962655,0.1272960645355788
34.380584,13.26129336376092,0.1267273166739008
34.385176,13.272880432341283,0.126217697849824
34.389779999999995,13.288720303731594,0.1256908206476834
34.394372,13.30292763238938,0.1251942204080352
34.398964,13.316890591618876,0.1247075023121809
34.403552,13.323702216715818,0.1242847993141366
34.408148,13.335377568193437,0.1238274912578316
34.412756,13.350772842175786,0.1233487352716262
34.417348,13.370254592805315,0.1228351873770588
34.421948,13.392190277349496,0.1223161353605612
34.426544,13.41363722303709,0.1218155656028612
34.431132,13.437782472067632,0.1213014645669721
34.435728,13.46564764360291,0.1207648676533427
34.440316,13.494656619014128,0.1202184626639714
34.444904,13.523787779139491,0.1196702628012036
34.449496,13.545356909541235,0.1191719462673961
34.454092,13.571134701304295,0.1186390606930435
34.45868,13.602797838609831,0.1180668628509914
34.463272,13.635194084200238,0.1174721995497883
34.467868,13.663948450551423,0.1168770374538209
34.472456,13.697688727997434,0.1162473503368463
34.477048,13.730485429547167,0.1156007099668676
34.481628,13.758129893839303,0.1149756306461311
34.486216,13.785730216682811,0.1143308046176384
34.490812,13.808955552002226,0.1137045658158835
34.4954,13.837777721987193,0.1130240914295902
34.499987999999995,13.859648785819266,0.1123743322126458
34.504584,13.872525505174863,0.1117677485273025
34.509172,13.883725540349309,0.111167570855689
34.513768,13.891161511570392,0.1105674796549754
34.51836,13.892667995800377,0.1099851444977453
34.522956,13.890943296382204,0.1094084522674848
34.527548,13.883944174992292,0.1088516274225979
34.532148,13.870404643040551,0.1083289363366225
34.53674,13.857109480517105,0.1077992669475738
34.54134,13.847778609926683,0.1072412862892801
34.545932,13.832562393793795,0.1067215834960349
34.550532,13.80966196322314,0.1062471996301697
34.555116,13.79252469348081,0.1057395012648128
34.559712,13.774121435148396,0.1052448324528181
34.564296,13.749177766254157,0.1047830187775677
34.568892,13.727587465722214,0.1043126390312136
34.57348,13.70665223020963,0.1038442035682015
34.578067999999995,13.681752702764015,0.1033992717655861
34.58266,13.660450913108996,0.1029385295665089
34.587247999999995,13.6376387654356,0.102499009190579
34.591836,13.614992943924976,0.1020756949397545
34.596436,13.59684429465259,0.1016327816189485
34.601016,13.57628585291418,0.1012135564975445
34.605608,13.559491475129136,0.100797636661339
34.610204,13.549770388211131,0.1003570938929358
34.614784,13.541237246617692,0.0999265099759778
34.619368,13.538755776729497,0.0994785884461361
34.623956,13.54244816326069,0.0990094144157551
34.628544,13.54373075732586,0.0985647782135926
34.633148,13.544402427820302,0.0981377608737413
34.637736,13.55071507442892,0.0976845420090247
34.642323999999995,13.560258904685696,0.0972280995291176
34.64692,13.561385412219828,0.0968337491898182
34.651508,13.569463025906854,0.0964217997461474
34.656112,13.58539118019442,0.0959893903807627
34.660692,13.59723285783481,0.0955838368091806
34.665296,13.611528469389851,0.09517638810295
34.669884,13.636372924888375,0.094740526358794
34.674484,13.660728641530325,0.0943197360016441
34.679064,13.68381836958218,0.0939131076383289
34.68366,13.70948421626284,0.0935014389220502
34.688252,13.737359627429855,0.0930961632710279
34.692848,13.770753829996908,0.0926709053274384
34.69744,13.804803097583315,0.0922525237308669
34.702036,13.836564757417843,0.0918563013071967
34.706624,13.872945774204757,0.09144475838535
34.71122,13.90932679099167,0.0910360553300109
34.715808,13.944441819188498,0.0906416549163744
34.720403999999995,13.984176204337713,0.0902318821567075
34.724984,14.025054393362868,0.0898136571914073
34.729572,14.061479551598408,0.0894317046256265
34.734156,14.09904851370989,0.0890419430084635
34.738752,14.141481202202048,0.0886288538434185
34.743344,14.179416718455968,0.0882320920869716
34.747936,14.20991238970041,0.0878643357134807
34.752524,14.24694847150668,0.0874735326287903
34.757104,14.282185684417652,0.0870889589217746
34.7617,14.309083617871504,0.0867358744744141
34.766292,14.338024789648944,0.0863728259692033
34.770876,14.371174622787702,0.0859856761244217
34.775472,14.404035945049545,0.0855863781665677
34.78006,14.436486571720316,0.0851786993023488
34.784664,14.466361079762292,0.0847770310787144
34.78926,14.492104969708468,0.084378518385465
34.793856,14.51371824155884,0.0839818053008766
34.798452,14.529157656989822,0.0835988136348226
34.803052,14.541121519344358,0.0832222762110868
34.807644,14.55099800192668,0.0828361915031742
34.812232,14.553801193641965,0.0824643513463718
34.816828,14.55876980839498,0.0820797779938732
34.821416,14.561651043375782,0.0816847718734471
34.826008,14.564121582765518,0.0812800295977761
34.8306,14.563238753792955,0.0808771148882159
34.8352,14.560679240639244,0.0804750057470344
34.839784,14.557709031894468,0.0800608196098472
34.84438,14.547787716996796,0.0796565961432195
34.848968,14.540276194565152,0.079232844678377
34.853564,14.531454542094796,0.078799019327575
34.85816,14.516703402633338,0.0783686047376914
34.862744,14.49439023344826,0.0779623453556545
34.867332,14.470933260387246,0.0775637968111393
34.871924,14.446699037592728,0.0771638426443563
34.876515999999995,14.420910315331204,0.0767604432195197
34.881096,14.393322724174386,0.0763589570122784
34.885687999999995,14.369455055522304,0.0759460723799113
34.890276,14.34648682131787,0.0755300699892401
34.894867999999995,14.320698099056344,0.0751205436647867
34.89946,14.302349221804295,0.0746913922834456
34.904044,14.288497516790487,0.0742526612059852
34.908632,14.27284694288138,0.0738178067675094
34.913219999999995,14.262060095352949,0.0733649143511039
34.917815999999995,14.251028878396228,0.0729185318233907
34.922404,14.245105757248476,0.0724490219883064
34.926992,14.241348059138454,0.071967109921842
34.931588,14.242087533266671,0.0714775444652115
34.936176,14.249489602670865,0.0709692427592627
34.940772,14.255747868199114,0.070469881036425
34.945348,14.267402740413251,0.0699626342101788
34.949948,14.28715252265622,0.0694443531270011
34.954536,14.313564900175162,0.06890799090613
34.959136,14.342020516017692,0.0683645696009323
34.963724,14.370353947146072,0.0678260077267385
34.96832,14.401019127474964,0.0672941863763125
34.972912,14.43564859973688,0.0667489050285687
34.977508,14.471299691160592,0.0662018120567472
34.982088,14.510915074517332,0.0656431881174976
34.986684,14.560135725921285,0.0650607284115377
34.991271999999995,14.602815966763403,0.0644955500345576
34.995868,14.648316695662611,0.0639274708840783
35.000456,14.692795805400031,0.0633653754148019
35.00504,14.737152730423304,0.0628096073106948
35.009628,14.782286905180076,0.0622582918264945
35.01422,14.826932341080267,0.0617229503312795
35.018808,14.868268550066784,0.0612058496895367
35.023399999999995,14.911647997376887,0.0606848464966439
35.027996,14.95184040248747,0.0601811615952493
35.032584,14.9929322420457,0.0596789725469309
35.037184,15.031570147689273,0.0591756158069513
35.04176,15.06264602360923,0.0586881186720636
35.046356,15.092944649795683,0.0582011928121047
35.050951999999995,15.118379549601464,0.057726526959137
35.05554,15.142915014959591,0.0572535508398745
35.060136,15.164219296669568,0.056774927933711
35.064724,15.187322447274836,0.0562974245357901
35.069312,15.205561871499432,0.0558313324320627
35.073908,15.21893756934335,0.055377063116251
35.0785,15.223729618301856,0.0549394342278078
35.083104,15.227622232812712,0.0545016136777746
35.0877,15.223419937294736,0.0540671240628804
35.092304,15.214476100110232,0.0536386670070684
35.096884,15.196704244612022,0.0532287365757401
35.101484,15.169693675209045,0.0528257333912005
35.106072,15.133977272206504,0.0524382869112406
35.110679999999995,15.092742077803932,0.0520523380007405
35.115264,15.038059508135277,0.0516877554846527
35.119864,14.972872235971758,0.0513373060991426
35.124448,14.89718026131339,0.0510009383380808
