Time,Force,Position
29.565688,11.0677084377398,0.1549506436312038
29.570284,11.23417936176522,0.1546021612829846
29.574876,11.379199466314647,0.1542464430072172
29.579456,11.49704973200839,0.1539680042079481
29.584052000000007,11.596113579752194,0.1537038648961372
29.588640000000005,11.675902270689477,0.1534726935815471
29.593236,11.740790792344336,0.1532382027612045
29.597816,11.790290405860183,0.1530204408193715
29.602416,11.82812103374176,0.1527748785200073
29.607000000000006,11.856858794617864,0.1524850075139177
29.611591999999995,11.868330735194148,0.1522544192852458
29.616180000000007,11.871575341395712,0.1520234248244851
29.620776,11.8728886543561,0.1517351503384383
29.625376,11.873047923808809,0.1513869730153962
29.629972,11.867966673106668,0.1510303401019491
29.634548,11.85319187146006,0.1507281651297093
29.639136,11.835552440307737,0.1504304859448886
29.643719999999995,11.814070901936528,0.1501732707480436
29.648320000000005,11.78723689832806,0.1499860304637873
29.652908000000004,11.770995880111704,0.1497398784848491
29.657508,11.757174893993112,0.1495319948480657
29.662104000000006,11.75165928551475,0.1492992714427216
29.666684,11.751384197191244,0.1490785460519886
29.671276,11.766321451212232,0.1487585522903768
29.675856000000003,11.788376137548887,0.1484078600163718
29.680444,11.8211459939918,0.14799760945704
29.68504,11.860788913322084,0.1475690759988502
29.68962,11.905017287787864,0.1471539222428771
29.694216000000004,11.957262529016957,0.146704481138725
29.698812,12.012905280056977,0.1462648172489926
29.703399999999995,12.07656489786031,0.1457924000211097
29.708008,12.146686882959957,0.145294340155079
29.7126,12.22237180090826,0.1447807489195296
29.717196,12.30308677140001,0.1442475423395152
29.721784000000007,12.388587425006923,0.1437016801857346
29.726384000000003,12.481039184766727,0.143113462164943
29.730972,12.578398812355838,0.1425091191412629
29.735572,12.68434208883036,0.1418374007874772
29.740164,12.796703591152562,0.1411220437803862
29.744768,12.906366790131823,0.1404379029755449
29.749360000000003,13.02089371549176,0.1397150633934488
29.753952000000005,13.137053183584216,0.1389738434504528
29.758548,13.25280195608561,0.138230129591347
29.763144000000004,13.362499056881758,0.1375320704762397
29.76774,13.474073069838717,0.1368083422641063
29.772336000000003,13.577508031318215,0.1361235567169781
29.776931999999995,13.674480625501417,0.1354691128214984
29.78153200000001,13.768177894587824,0.1348093904947414
29.786124,13.855534981092072,0.1341752929049091
29.790712000000006,13.93732913474766,0.1335637026162234
29.795300000000005,14.012005856087582,0.1329777923161177
29.799888000000003,14.080464579559484,0.1324118205976145
29.804476,14.142050240144018,0.1318641487941076
29.809072,14.19459741480344,0.1313553554037519
29.81366000000001,14.24231476489908,0.1308449313435714
29.818248000000004,14.285979540164432,0.1303304035624988
29.822844,14.322116187523056,0.1298278632877032
29.827424,14.345127872309396,0.1293958876875821
29.832016000000003,14.357546571703626,0.1289999935800448
29.836611999999995,14.36681213071522,0.1285912821251236
29.8412,14.370348430715378,0.1281816073911715
29.845808,14.365501309809783,0.12780551636568
29.850396,14.357012309664974,0.1274296301452639
29.855008000000005,14.34500361499509,0.1270493132670352
29.8596,14.321668826648216,0.1267226368741285
29.86418800000001,14.298944961872074,0.1263769561326358
29.868776000000004,14.278098009256745,0.1259968656380794
29.873368000000006,14.255408046297497,0.1256053506491523
29.877964,14.232551757175465,0.1251961690514197
29.882544000000003,14.20748590356708,0.1247859050254529
29.887144,14.183153158243565,0.1243527563534941
29.89172,14.156733033147836,0.1239146222857331
29.89632,14.126959539689803,0.1234868224281066
29.900912,14.09845203482186,0.1230418291767579
29.905508000000005,14.062382500230298,0.1226440240154896
29.910100000000007,14.023492477581645,0.1222626290476867
29.914696,13.984480270218846,0.12188290793985
29.91929200000001,13.951475593112663,0.1214547183083989
29.923888,13.92309027295886,0.1209971637076766
29.928484000000005,13.89458276809092,0.120542134349578
29.933084,13.865708709080536,0.1200964992547477
29.937676000000003,13.838511334251308,0.1196434603740114
29.94226800000001,13.810414524974432,0.1191934567377725
29.946856000000004,13.78746995295515,0.1187222373073575
29.951452,13.771843041231197,0.1182091147864692
29.956039999999994,13.76095767117377,0.1176665725153546
29.960632,13.747662508650324,0.1171508042258048
29.965224,13.734655857003796,0.1166474530763106
29.969816,13.727945246490805,0.116114616746868
29.974408000000004,13.725731808216048,0.1155596539951116
29.978996,13.723684696104067,0.1150216722585249
29.983588000000005,13.72768925569733,0.1144615412857462
29.988176000000003,13.73774548699584,0.1138789064738502
29.992768000000005,13.752298890532586,0.1132773372652056
29.997364,13.775069388812309,0.112632917657932
30.001952,13.80041600572083,0.1119801213802076
30.00654,13.828338741258149,0.1113191153731641
30.011132,13.854096053757734,0.1106784277459388
30.015724,13.878587377667236,0.1100530981915559
30.020328,13.902589962720151,0.1094429395320829
30.02492,13.927247612792426,0.1088363524087075
30.02952800000001,13.953826316474144,0.1082193471577005
30.034124,13.982081704337013,0.1075982003155432
30.038728,14.006861539123433,0.1069912286776223
30.043316,14.032418623643355,0.1063875370691327
30.047908,14.052090362620811,0.10582265126919
30.052488000000004,14.075726393531292,0.1052340176865196
30.057088,14.10398178139416,0.104625533852034
30.061680000000003,14.122754085923964,0.104069608095329
30.066275999999995,14.140626956006122,0.1035193777136557
30.070872,14.15964362996422,0.1029595605062383
30.075464000000004,14.172119893360488,0.1024324100566595
30.080052,14.180876234252024,0.1019237650333345
30.084647999999994,14.181948360705787,0.1014567905071215
30.089248000000005,14.180322183816612,0.1010004313851267
30.093836000000003,14.178696006927437,0.1005446403136912
30.098424,14.176048210876464,0.1000958430402336
30.10302,14.175976533454294,0.0996407464482105
30.107612,14.180646397698654,0.0991634638984413
30.112199999999994,14.182740143314213,0.0986916486302294
30.116788000000007,14.18495607364392,0.0982165157158761
30.121384,14.184229331202394,0.0977575745259825
30.12598000000001,14.185423642370305,0.0972895860543216
30.130568000000004,14.186251399395784,0.0968311968300628
30.135168,14.180294376431142,0.0964078135902961
30.139756,14.174337353466502,0.0959832024346723
30.144348,14.160573931349948,0.0955994621161358
30.148936,14.139492848938064,0.0952430537019299
30.153524,14.120987885154983,0.0948793780107819
30.158132,14.097741379705372,0.0945364313002015
30.162724000000004,14.074617058969904,0.0941896489286611
30.167312000000003,14.056112095186824,0.0938237978091571
30.171904000000005,14.039650369727324,0.0934447379059054
30.176492000000003,14.028951805096154,0.0930371679203034
30.181087999999995,14.021195913236218,0.0926141880667547
30.18568,14.008576294995605,0.0922145630899072
30.190272,13.995423796449778,0.0918070135843386
30.194864000000003,13.97867356011336,0.0914102237530018
30.199456000000005,13.958081216558062,0.0910314938463772
30.204044000000003,13.94312984911694,0.0906290906873471
30.208648000000004,13.928955731409324,0.0902271105398449
30.21324000000001,13.919278785939948,0.0898116358859317
30.21784,13.910379090204072,0.0893978435254961
30.222424,13.902501013629989,0.0889775904022974
30.227011999999995,13.90128553233188,0.0885288647797174
30.2316,13.906488276881449,0.0880599299357807
30.236196,13.921174104764075,0.0875527864322207
30.2408,13.94227815849439,0.0870250458269256
30.245388,13.96812375389123,0.086480132123592
30.249976,14.0038631282122,0.0859104404788361
30.254560000000005,14.043078055609614,0.0853384349380818
30.259139999999995,14.08000537525515,0.0847858709956313
30.263736,14.117343390491747,0.084246275673136
30.268328000000004,14.155336470747702,0.0837141880292648
30.272924,14.194761865756517,0.0831911246346867
30.277511999999994,14.243670344098392,0.0826351165541078
30.282092,14.296342886393631,0.0820901431400977
30.28668,14.35441203537476,0.0815346364044689
30.291272,14.417100541308276,0.0809693664934012
30.295852000000004,14.481343546708796,0.0804119218916931
30.300448,14.547629790432898,0.0798479887383321
30.30504,14.61031829636641,0.0792946587689707
30.309628,14.67288461758578,0.0787488666360605
30.314215999999995,14.740070295757532,0.0781943662406867
30.318808,14.80827759309108,0.0776402183733543
30.323404000000004,14.874808206243475,0.0770923345255714
30.327988,14.937374527462843,0.0765650942915236
30.332588,14.998797044806274,0.0760492546522342
30.337176000000007,15.05829850854026,0.0755438588635119
30.341772,15.113547169464304,0.0750458247509201
30.34636,15.162011050398226,0.0745732867614647
30.35096,15.21570521185526,0.0740777695761272
30.355552,15.272830784940114,0.0735638467535037
30.36014,15.326358620234377,0.0730581562823673
30.364732,15.37910920579514,0.0725549189737441
30.369328000000003,15.42699606497522,0.0720715564141814
30.373928,15.474838782706678,0.0715727789725373
30.37852400000001,15.52088263154284,0.0710799057227635
30.383116,15.564350361750202,0.0705919153895609
30.387708,15.605364158042912,0.0701055859519713
30.392295999999995,15.64511196574554,0.069631728612663
30.396892,15.689479130400546,0.0691507562835109
30.40148,15.7331912300362,0.0686681427047064
30.40607600000001,15.775226645490704,0.0681888788980215
30.410668,15.814563757602263,0.0677159521626708
30.41526,15.853778684999677,0.0672487942976256
30.419856000000003,15.895159035434824,0.0667732929381438
30.424444,15.940870231945436,0.0662807636764834
30.429044,15.987847417046137,0.0657818608292959
30.43362800000001,16.030860310213804,0.0652963207239396
30.438224,16.077182430295146,0.0647946731839291
30.442812,16.118885193424102,0.064303601566733
30.447399999999995,16.154824795724732,0.0638287632849477
30.452003999999995,16.197549178015482,0.0633395631159771
30.456596,16.233733149744406,0.0628623903685215
30.461184,16.275147401996442,0.0623681012711353
30.465768000000004,16.3134967967631,0.0618865399232452
30.470360000000007,16.352334930386338,0.0613966355518225
30.474956,16.384510468733605,0.0609200072052137
30.479536000000003,16.414887138185573,0.0604463951100772
30.484131999999995,16.441011004827597,0.0599712767707587
30.48872,16.461738264783733,0.0595014030285758
30.493324,16.4758029294639,0.0590437163944082
30.497912000000007,16.48434880274403,0.0585928496974708
30.502508,16.48868601466284,0.0581572753022438
30.507092,16.485050501266965,0.0577236786214669
30.511688,16.47397514286162,0.0572992711391163
30.51628400000001,16.45317233169492,0.056896221538488
30.52088,16.42366368692866,0.0565097797936441
30.525484,16.394643781018985,0.0561111790399256
30.530076,16.36304775648051,0.0557103038589177
30.534664,16.325566386399565,0.0553206225390497
30.53926000000001,16.28219967077615,0.0549416363411169
30.543848000000004,16.223586710991352,0.0545857987845203
30.548436,16.165995370368346,0.0542242983952526
30.553024,16.093935035317458,0.0538874928007502
30.557616000000003,16.015212104990596,0.0535582782846466
30.562211999999995,15.928682775511824,0.0532421465490445
30.566804,15.844074499642492,0.052919470318719
30.571396,15.74973877101181,0.0526123911519528
30.57598,15.651316565733952,0.0523136701735182
30.580572,15.54880788380892,0.0520235358994443
30.585159999999995,15.443234344398508,0.0517386526412169
30.589752,15.333452143626774,0.0514648843355371
