Time,Force,Position
36.149016,1.0370802151380345,0.1894143224541698
36.158204,0.997654129262498,0.1893692041798236
36.16279599999999,0.9840979918356746,0.1890045222418381
36.167376,0.9830117519617754,0.1873013545315377
36.171964,0.9847901415935936,0.185515483370514
36.17656399999999,0.9911098449122792,0.1834614519131594
36.18116,1.0040141002414191,0.1807872051600474
36.185748,1.024524526742807,0.1773348660002826
36.19034799999999,1.0450790946928232,0.1742327397764461
36.194936,1.0686204768627026,0.1710916940489288
36.199524,1.0882417085481817,0.1687461104966851
36.204112,1.1116270041870255,0.1663338625110786
36.208704,1.1333797570933477,0.1644423675211777
36.2133,1.1566870094666744,0.1625877596270332
36.21789199999999,1.1895214866216903,0.1599277546919608
36.22247599999999,1.2224001052253342,0.1576218606011185
36.227056,1.255445049991752,0.1555928426042535
36.231652,1.2917211784063247,0.1532796450312959
36.236236,1.3329051746502014,0.1505266252341367
36.240824,1.3706577592662603,0.1486247847037009
36.245416,1.4072665400063806,0.1469651493565907
36.250008,1.446573624089444,0.145115188252914
36.25459599999999,1.4880902726588685,0.1433442280323251
36.259188,1.5246210101334707,0.1422473636403958
36.26378,1.5624618776467865,0.141264087612072
36.26837999999999,1.600302745160102,0.1403226631858355
36.27297599999999,1.6385101668158542,0.1393789258611956
36.277568,1.676595403757461,0.138594173814883
36.28214799999999,1.7185227479179506,0.1376265992631948
36.28674,1.7553419962694723,0.1370197873876009
36.29132799999999,1.8000898284870512,0.1358667192131904
36.295928,1.842261542075832,0.1348856581115015
36.300512,1.8855770595405523,0.1338295509959251
36.30510399999999,1.9225965358717372,0.1330622318059906
36.30969999999999,1.957284263002416,0.132444788027602
36.314296,1.991683479256175,0.1317431586322349
36.318892,2.0250169348995124,0.1309662071091092
36.323492,2.061126737151311,0.1299611567727702
36.32807999999999,2.0924508562879507,0.129035322230461
36.33267599999999,2.1215654109382296,0.1281175584393488
36.337268,2.151290889159237,0.1270930518106618
36.341852,2.1741874459414987,0.1262630221398398
36.34644,2.1953631770939817,0.1253803843027889
36.351032,2.2166169515119827,0.1243455685791552
36.355628,2.230753293614318,0.1234120017567071
36.36022,2.245744928715673,0.1223393274318108
36.36481199999999,2.255462141845287,0.121442337934999
36.369404,2.255529945479066,0.1208383338512573
36.373996,2.2449267204552164,0.1205977722893011
36.378584,2.2378329503247016,0.1199417028757617
36.383164,2.2201903362507043,0.1196240685749315
36.38775999999999,2.1968626046139,0.1194166925319558
36.392344,2.1704258740430875,0.1192296017588694
36.396948,2.1462767512241525,0.1188829419426866
36.456664,1.644281494675758,0.1187176340626905
36.46124399999999,1.6129810377242688,0.1186791242627667
36.470428,1.5636714125563451,0.1183011252169794
36.47502,1.54427407103568,0.1181056588083927
36.47960799999999,1.5305618470778213,0.1178011949671176
36.484196,1.5188148181780323,0.1175633691290769
36.488784,1.512097841821693,0.1171854957974888
36.493376,1.5071016910951327,0.1169377344478571
36.497972,1.5053808654653544,0.1168062909406104
36.50256399999999,1.512287830169618,0.1163920449733841
36.507156,1.527700400493777,0.1157065240022409
36.511748,1.5403366242094751,0.115377357003555
36.51633999999999,1.5586579654879795,0.1149729935577761
36.520932,1.5868730856906108,0.1141864607379865
36.52551999999999,1.6143550976083678,0.1136404036312958
36.53011599999999,1.6394273170601006,0.1132771150213839
36.534696,1.6695295890552837,0.1128082070698874
36.539308,1.703107414126913,0.1122629263947318
36.543896,1.7372181195037524,0.1117557946930542
36.548484,1.7778692354424184,0.1110078362465203
36.55307199999999,1.8176209169334363,0.1103240915263876
36.557664,1.8576611093013744,0.109788117442526
36.56226,1.905385516107077,0.1089269969542195
36.56684799999999,1.954009357360428,0.1080922567548725
36.571448,2.0062309364043704,0.1071941361565133
36.57603999999999,2.059718504038398,0.1062173749520213
36.580636,2.110385583615336,0.105394928327133
36.58521999999999,2.165261324553594,0.1043646024317899
36.58982,2.215107012948401,0.1033885394981734
36.594412,2.262620952142702,0.1024917144349223
36.599,2.306781522974703,0.1016690804878473
36.60358,2.3502870287873474,0.100822835485464
36.60817599999999,2.386474874304663,0.1001861387047361
36.612764,2.420208785907327,0.0996298737334734
36.61736,2.4486682755382496,0.0991681451826217
36.62195199999999,2.4824802304064306,0.0984553575250099
36.626536,2.5139604360741057,0.0977666865442032
36.631128,2.5432310772554194,0.0970871812428431
36.63571999999999,2.5728682725791705,0.0963444137615708
36.640308,2.5954321770358844,0.09575807772052
36.644904,2.620161504530331,0.0950997745720615
36.6495,2.642148387233206,0.0943874392372157
36.65407999999999,2.6559181751931047,0.0938577997290519
36.658664,2.6654351603430557,0.0933773514803545
36.663248,2.6671016048924665,0.0930061341203218
36.667836,2.662349823594197,0.0927627566420751
36.672444,2.6583311505808016,0.0924090748027374
36.677024,2.6472391867003693,0.0921598504216024
36.681628,2.637413211410021,0.0918368626595079
36.68622,2.6242338677573733,0.0915348612829665
36.690808,2.6106438285136604,0.0911699368754841
36.69540799999999,2.5965209089647363,0.0907611438137721
36.7,2.584807781881837,0.0902235437962973
36.704596,2.5669207983795483,0.0897685335849786
36.70918399999999,2.55042198818149,0.0892157228936847
36.713784,2.530203255478695,0.0887384714714701
36.718372,2.505853904680097,0.0882693612603791
36.722972,2.4768851969291146,0.0878843990878042
36.72756,2.448160858606423,0.0874521321099059
36.73215199999999,2.41751546667429,0.0870639710285338
36.736744,2.3791858603043923,0.0868736058747316
36.74134,2.340489699792057,0.0867316708790521
36.745924,2.3039589623174543,0.0864953408318958
36.75051199999999,2.2693492784522933,0.0861957618826934
36.755116,2.2393589515395176,0.0857950310857032
36.759716,2.2138657968649804,0.0853190582436781
36.76430799999999,2.1858406650102733,0.0849904999555285
36.7689,2.1620683359655146,0.0846242550349621
36.77348799999999,2.1457358519302305,0.0840904820583505
36.778088,2.12956969405772,0.0836608787335594
36.782676,2.1135698623479824,0.0833382643970435
36.787268,2.0988801606769583,0.0830673492897152
36.79185999999999,2.0865222082064414,0.0828128601563475
36.796444,2.075230016346345,0.0826541832066618
36.80103999999999,2.067946257867906,0.0825053327516383
36.80562,2.063116433304119,0.0823547514136103
36.81939199999999,2.065692551932917,0.0823318325200751
36.823996,2.0747310378580246,0.0823191662294631
36.82858399999999,2.0921088032402526,0.0821283337415745
36.833172,2.1120626872512798,0.0819181897747184
36.837768,2.1343483204628124,0.0817370058436334
36.84235999999999,2.1606423870560025,0.0815856427664698
36.846956,2.186692084220901,0.0814850438343062
36.851544,2.217483323052329,0.0812944541183677
36.85614,2.249296181045552,0.0810650652049215
36.86532,2.301395575375349,0.0808909242607771
36.869908,2.3273230878261013,0.0808304600732552
36.874512,2.3545165888669386,0.0806979940768928
36.8791,2.380932840174274,0.0805576975055725
36.8837,2.404650788138666,0.0804556489270567
36.888296,2.433476831912025,0.080194746460699
36.892892,2.4590716920372304,0.0799311242683833
36.897488,2.4783705110289005,0.0797456856616054
36.902084,2.503266164686121,0.0793343841463572
36.90668,2.52595225385698,0.0788902361163297
36.911276,2.5475725824174176,0.0783592670233632
36.91586399999999,2.565961727329701,0.0778249680506676
36.92046,2.5779326463943044,0.0773908037532637
36.925048,2.5891263157254047,0.0769562813083649
36.929644,2.595944997532412,0.0765551982374087
36.934236,2.592869900415293,0.0762685036747576
36.938832,2.5900391727264647,0.0759469082691464
36.94342399999999,2.5876971838942198,0.0755652920568065
36.948016,2.585721749204411,0.075131534284899
36.952612,2.5859117375523355,0.0746284690285355
36.95719199999999,2.589533137528077,0.0739936807526564
36.96177599999999,2.586081246636782,0.0734070933228144
36.96636,2.5820964754402764,0.0727788992526149
36.97093999999999,2.575657770329118,0.0721344040590681
36.975532,2.5703628690938998,0.071444278549768
36.980112,2.562491849229882,0.0707665793861191
36.984704,2.5544986446517197,0.0701013241079748
36.989296,2.553045850635383,0.0693404781224586
36.993888,2.547506579971873,0.0686886711780853
36.998484,2.539024636537128,0.0680862143335315
37.003064,2.5301761389599458,0.0675306108862815
37.007668,2.523126510278059,0.0669604602370032
37.012256,2.5190195543674068,0.066329536839912
37.016856,2.512214295113812,0.0657161942712226
37.02144799999999,2.510805642546104,0.0650638005800097
37.026048,2.51516015080672,0.0643034649197296
37.030644,2.514773117400805,0.0636057907241101
37.035244,2.5024932081958053,0.063145272251756
37.039836,2.4889473104007203,0.0627420469776973
37.04443199999999,2.47413542401555,0.0623977041919502
37.04902799999999,2.4571581145926484,0.0621141253892206
37.05362399999999,2.4485200846268684,0.0617398170682622
37.058216,2.4393933158045056,0.0614350512391674
37.062808,2.4356631536680298,0.0610979915693874
37.067388,2.430134122636258,0.0607679028726659
37.07198,2.42141804940496,0.0605203749081154
37.076568,2.416544083392545,0.060218813335404
37.081168,2.408727444608895,0.059966153768478
37.085756,2.398090317768156,0.0597415171396461
37.090348,2.3912952981463,0.0594612613860167
37.094944,2.3861769627055933,0.0591901823859872
37.099532,2.3779937697795064,0.058984420373706
37.10412399999999,2.373652684072302,0.0587283902192798
37.108704,2.370333217526891,0.0584478467232253
37.113296,2.361494959581448,0.058205657971504
37.117892,2.3543333858171547,0.0579746363808188
37.122472,2.353590037900542,0.0577026188488125
37.12705999999999,2.3616747082976337,0.057287488967766
37.13165599999999,2.372579866751815,0.0568468481714981
37.136244,2.383729394634287,0.0563725240062392
37.140848,2.3946345530884687,0.0559303498049112
37.14544,2.400675985161973,0.0555647199736557
37.15003599999999,2.4077390363972717,0.0551806456849542
37.154624,2.413902653184921,0.0548091675130967
37.159224,2.423664007763163,0.0544310779629933
37.1638,2.4411095767791706,0.0539718148884807
37.168404,2.4535692347003564,0.0535954045769065
37.172988,2.469748815126279,0.0531982210782919
37.17758799999999,2.4878494491616427,0.0527750143284626
37.182172,2.5019857912639787,0.0524092504337249
37.186768,2.516366502794605,0.052014583527473
37.19136399999999,2.531768833487026,0.0515949998829603
37.19595999999999,2.537443711418094,0.0512955144035702
37.20055599999999,2.5455725232638136,0.0510280124553636
37.205156,2.5546007695571813,0.0507537095260954
37.209748,2.5609307125076057,0.0504863406320076
37.21433999999999,2.560964614324495,0.0502280451529937
37.218928,2.5539693667229755,0.0500811655963417
