Time,Force,Position
37.72234399999999,1.806127730709054,0.1447590427683831
37.72693199999999,1.8184856831795717,0.1446732865550166
37.731532,1.8291669514689388,0.1446662235943286
37.736116,1.8412363930625364,0.1445041513813479
37.74071599999999,1.8540389429410085,0.144167051745148
37.745308,1.8678189705326456,0.1436133119868315
37.7499,1.8780012603336915,0.1432221233169237
37.75448,1.8849523664865828,0.1429136053451978
37.759072,1.8945576345337896,0.1423225277694199
37.76366399999999,1.907594314208814,0.1414360107054602
37.768256,1.9203424830069191,0.1404465296841002
37.772848,1.9279384145474283,0.1396574276242366
37.777432000000005,1.9323031624397835,0.1389554105516467
37.782012,1.934580530559923,0.138244180712703
37.786604,1.928396434508795,0.1380259869427762
37.791192,1.9221681970090387,0.1376498202011517
37.795772,1.9196157405653915,0.1369070356766909
37.80036799999999,1.9129326660259416,0.1362984400092982
37.804956,1.9030184078383376,0.1357752754074949
37.809544,1.8944923229549644,0.1350843333300799
37.814128,1.8835123041569384,0.1344654495366994
37.818716,1.8680351131206736,0.1340629355490852
37.823308,1.8495711078645456,0.1336776280947904
37.837096,1.7790991740975506,0.1335609866844759
37.841684,1.7575703113560424,0.133382586710247
37.84627999999999,1.740127925261708,0.132897544558045
37.85086799999999,1.7207644855579325,0.1325051930158204
37.855468,1.699113438102278,0.1322955388036386
37.860056,1.6791390748277737,0.1320173525793175
37.864656,1.6664823718485982,0.1313850398345221
37.869244,1.656279602784075,0.1306860669485775
37.873852,1.647386963758264,0.1300163798874317
37.878444,1.640948258647106,0.1292773967357715
37.88304,1.6327548260892804,0.1287839769705648
37.887636,1.6220294163512847,0.1285534757970113
37.892228,1.6145351902614435,0.1282402841386986
37.896816,1.611415951695696,0.1277407651805555
37.901408,1.6142262001210468,0.1270576156598735
37.906008,1.616425524975669,0.1265103119284349
37.9106,1.6217338487642996,0.1259109543248882
37.915188,1.628640813468563,0.1254584155251311
37.919776,1.6401671351252112,0.124769279037713
37.924364,1.6572122481818925,0.123814331866445
37.928952,1.6778550990291647,0.1227201136384778
37.933548,1.6999302646292958,0.1216899282518245
37.93814,1.7203728874969049,0.1208921971837175
37.94273199999999,1.7381613484701983,0.1203573323000787
37.947320000000005,1.7578708630529338,0.1197343205385641
37.95192,1.7770916387790865,0.1192407155293619
37.956508,1.7923481225722102,0.1189993014448083
37.9611,1.810547279136569,0.1186190815770325
37.965692,1.8315669237580177,0.1181314825629395
37.97028399999999,1.8528309378077568,0.1175898934097559
37.974876,1.8779370590763795,0.1168528003278897
37.979468,1.904842049240298,0.1160209025426026
37.984056,1.928027116899479,0.1153522116040988
37.988652,1.9527666840256643,0.1146999679847246
37.99324,1.9722318291801084,0.1142555241965597
37.997844,1.9974601351628765,0.1135561675737064
38.00243999999999,2.022033376126288,0.1128433753874093
38.00704399999999,2.044519237317484,0.1120773506745778
38.01163199999999,2.06226355684215,0.111524187437291
38.016232,2.07820900747152,0.1110637814814745
38.02082,2.0865924283772697,0.1108994845403891
38.02542,2.0925219153683674,0.1107779318311453
38.030008,2.097796337340109,0.1106327418595358
38.0346,2.109567028425049,0.1101055860855828
38.039196,2.1196610353288383,0.109621455560636
38.04378,2.128444912193914,0.109095617394978
38.048376000000005,2.13669590875378,0.108522705462911
38.052972,2.138284310037674,0.1082098415384833
38.05756,2.1380738424262726,0.1079556643648097
38.062156,2.138884993976664,0.1076542689942882
38.066744,2.137242211612403,0.1073830406285873
38.071328,2.1378870370000205,0.1069736553587475
38.07592,2.142740523748958,0.1063551865932541
38.080516,2.141664523506797,0.105834006700557
38.085104,2.1358469815981067,0.1054740809296131
38.08969999999999,2.1237333985558804,0.1052859542353778
38.094292,2.1117420002278,0.105070848484177
38.098876,2.101016590489804,0.1047563695956626
38.103472,2.09167935405604,0.1043198877441858
38.10806,2.077189880364679,0.1039780537987684
38.112652,2.0696073713775816,0.1033389795872588
38.11724,2.0572833207239536,0.1028683565687609
38.121828,2.044426389765115,0.1023432707075849
38.1356,1.9719316969380096,0.1021789986793448
38.140196,1.947426259608377,0.1021253490054814
38.14478799999999,1.929705602268862,0.101778689798643
38.14939199999999,1.9083872071387555,0.1015355881094867
38.153972,1.886169377561001,0.1013053976705131
38.158568,1.867671470487984,0.1009334439153672
38.16315999999999,1.8471303250913795,0.1006488878761017
38.16776,1.8253231911046903,0.1004450021319815
38.172348,1.809689913537391,0.1001042135932051
38.176948,1.800719231246063,0.0995304287371123
38.181544,1.7953462867453265,0.0988611012630554
38.186132,1.7897289728162982,0.0982408479484212
38.19072799999999,1.78607685394534,0.0977038174917299
38.19532,1.7847564842748882,0.0971772035694241
38.19991999999999,1.7874445479860928,0.0966332948836832
38.204516,1.789888242269006,0.096151399872141
38.209112000000005,1.8015706504566893,0.095416515960251
38.213708,1.8173836767401756,0.0946619046606351
38.218296,1.840392178604844,0.0937277492351002
38.22288399999999,1.8649551799365165,0.0927855810583301
38.22747199999999,1.8997785143347523,0.0915340734149164
38.232068,1.9339909251622605,0.0904588980167043
38.23666,1.9659157282378892,0.0895621850158966
38.24125599999999,2.002337703551758,0.0885660052765406
38.245848,2.037371505561396,0.0876789714816893
38.250428,2.067175027047921,0.0870415979866668
38.25502399999999,2.1014757207726853,0.0863465276024221
38.259604,2.1327115570120685,0.0857675539302348
38.264196,2.161004720480217,0.0853040656056874
38.268792000000005,2.188154080072426,0.0849220086250583
38.27338,2.2162028741122834,0.0845406924106807
38.277992,2.245028917885642,0.0841655688374583
38.282572,2.275120950249087,0.083725137813814
38.28716,2.302514679269588,0.083335982690976
38.29175599999999,2.329253343270732,0.0829233851891012
38.296344000000005,2.3539487689482894,0.0825903600868888
38.30094,2.372881033797522,0.0824200076574362
38.305516,2.391036048913253,0.0822541269375036
38.310116,2.405471141524247,0.0821640014881922
38.31470399999999,2.42105003801118,0.08202216637621
38.319304,2.430088523936286,0.082017446390475
38.323888,2.4367952606608867,0.081994039196609
38.33308,2.447510430767144,0.0819850627974109
38.337672,2.452662668024739,0.0819483533210797
38.342264,2.4603468824625048,0.081770530892225
38.34685999999999,2.4607134366049417,0.0817136184319217
38.35144799999999,2.465044282680407,0.0815498445148831
38.356044,2.4687200637365163,0.0813596478222389
38.360632,2.471862964487414,0.0811269197791366
38.365216,2.4723075618953687,0.0809318887138216
38.369796,2.4732408981599057,0.0806640617447643
38.374396,2.468899812452701,0.0804467804582921
38.378984,2.4675013995167325,0.0801591810569952
38.38358,2.467901855476059,0.0798518274199714
38.388172,2.467647246416029,0.079517602629319
38.392764,2.468658625946083,0.0791160970341417
38.39735999999999,2.46709388684734,0.0787306741625805
38.40194,2.464874082729241,0.0783151308079679
38.406532,2.462532093896995,0.0779207865752645
38.41111599999999,2.4583912361694544,0.0775430007513241
38.41570399999999,2.456826497070711,0.0771525015223223
38.42029599999999,2.454728877666757,0.0767188657188541
38.424888,2.455818300462329,0.076183196777607
38.42948,2.4608720151909296,0.0755648401861586
38.434076000000005,2.467480229386535,0.0749707418837303
38.43866799999999,2.475887312477436,0.0743480018488446
38.443264,2.478653419454158,0.07381434074569
38.447852,2.4812973417167346,0.0732952867062526
38.452452,2.483574709836874,0.0728321270011582
38.45703999999999,2.486629327690516,0.0723763725477728
38.46164,2.4866190880587764,0.0720028073935952
38.466224,2.493027074274719,0.0715511701132334
38.47082399999999,2.498413441328867,0.0711334717301637
38.47541199999999,2.5003242553065697,0.0707329377493558
38.480008,2.5022350692842728,0.0703300578084065
38.484588,2.501858275510097,0.0700129086559394
38.489184,2.503035981202925,0.0697155282221206
38.49377199999999,2.5088330438481385,0.0693621455518995
38.49835999999999,2.5128312375980566,0.069024772656813
38.50295199999999,2.522348222748007,0.0686222073373385
38.50753999999999,2.52790091596493,0.068304567060687
38.51211599999999,2.5312881861441188,0.0680555920886716
38.516712,2.5326322179997214,0.0678605265998479
38.521304,2.527968719598708,0.0677982585675568
38.525892,2.522527971464193,0.0677249151904543
38.53048799999999,2.5199077113867667,0.067613998661578
38.53508,2.5259932849088997,0.0673590106368407
38.539672,2.532323227859324,0.0670685422757093
38.54426,2.5396747899715417,0.0667562644579522
38.548852,2.549069590407347,0.0664013623299252
38.553444,2.5620621286337437,0.0660214618627507
38.558032,2.5691693213176694,0.0657503395724808
38.562624,2.572434406782713,0.065535069602634
38.56721999999999,2.5819955333812925,0.0652836700226376
38.571808,2.593355528875167,0.0650225161462041
38.576404,2.6080247512827133,0.0646604060643238
38.581,2.621794539242612,0.0643054590760759
38.585596,2.636341576936013,0.063974801772026
38.590184,2.653176222381292,0.0635734448125791
38.594784,2.6674347491977723,0.0631786276952853
38.599364,2.683081449318484,0.0627096461241719
38.60396399999999,2.7034696911057265,0.0621888158096782
38.60855599999999,2.7257789865024096,0.0616512214847705
38.613152,2.752174758546268,0.0610344968945726
38.617736,2.7756278578188907,0.0604644975678249
38.622332,2.7936843504056266,0.0599193603507789
38.62692,2.806099866878184,0.0594443699487823
38.63151599999999,2.8222353058554783,0.0589478025989822
38.63610799999999,2.837471310385124,0.0584586330255393
38.640704,2.8488652076958885,0.0580153714186355
38.645292,2.858704605539648,0.0575524105872621
38.64988,2.871608860868788,0.0570334981524361
38.654468,2.886556354521516,0.0564698481252628
38.659064,2.894064003164768,0.055967097876385
38.663656,2.9007944020745184,0.0554554176998441
38.66824799999999,2.9043377587847425,0.0550123631876679
38.672844,2.906326616027963,0.0545415951705009
38.677424,2.899198944080559,0.054108464092464
38.68202,2.890560914114779,0.0537550877665746
38.6866,2.8800018305395567,0.0534183146501571
38.691192,2.868421127802541,0.0530947116594444
38.69579999999999,2.8494005800560527,0.0528148934249017
38.70038,2.82653792509068,0.0525717092438114
38.704988,2.796768305421045,0.0524172722811478
38.709568,2.768020304913203,0.0522423462050493
