Time,Force,Position
31.159208,2.0218372460944845,0.1670063874495665
31.163796,2.0788957064122795,0.1666849807043568
31.168388,2.1322240045935987,0.1660901840631014
31.172976,2.1831322706771554,0.1652924945448029
31.177572000000005,2.228922201320005,0.1645580098681134
31.182160000000003,2.2723701431306096,0.1634452744274136
31.186748,2.3055475122429123,0.1625148695708057
31.191340000000004,2.3291093736762685,0.1617910361013622
31.19593200000001,2.34640909579298,0.1611526613042459
31.20054,2.354626190535956,0.1607254241178849
31.205127999999995,2.357236210981643,0.1603326794684334
31.209716,2.351296484358807,0.1601691432090701
31.21432,2.3466227463260547,0.1598896364268922
31.21890800000001,2.3468127346739798,0.1593262186851981
31.223504,2.346103288574256,0.1588077965733638
31.228092,2.351279188017002,0.1579373442851754
31.232696,2.3570660110304766,0.1569664607675648
31.237283999999995,2.3592550962533605,0.1561520658160679
31.241876,2.3636096045139765,0.1551657983431961
31.246456,2.3665759394703616,0.1543253697463886
31.251048000000004,2.368154101122517,0.1536273010881976
31.255644,2.36474635167985,0.1532299547681915
31.27401200000001,2.3286838737983526,0.1531759134348869
31.278608,2.325242222538796,0.1530448398974981
31.283196,2.3273193626792725,0.1526544660862098
31.287783999999995,2.326698199476805,0.1523811181525439
31.292372,2.327098655436131,0.1520415533341611
31.29696000000001,2.3341617066714293,0.1513553042035753
31.301544,2.339836584602497,0.1507942039054058
31.306132,2.345144908391128,0.1503059769529739
31.3245,2.3428470610075114,0.1500889816493958
31.32908800000001,2.344113049597597,0.1499830505321414
31.333684,2.349876210425921,0.149696405546481
31.338272,2.3562944362736014,0.1494182516264352
31.34288,2.3604250543694034,0.1492983422780724
31.347472000000003,2.3682755949699423,0.1489982307526273
31.35206400000001,2.378824438913425,0.1485833204729878
31.356648,2.391827216771561,0.1481022917984003
31.434716,2.5796370151905617,0.1475459806986664
31.439304,2.593671651842229,0.1474227524255369
31.443892,2.606151789026892,0.1473295313793116
31.448488000000005,2.617321796172842,0.147226089432605
31.453084,2.6264044235465764,0.1471255720003337
31.457671999999995,2.6374861477952702,0.1468095282398586
31.46227200000001,2.6499560453481945,0.146379997845873
31.466860000000004,2.661115812862405,0.1459202316026637
31.471452000000006,2.674441003414349,0.1453306433673347
31.476043999999995,2.679671283937462,0.145039592128025
31.480632,2.688943899659122,0.1444183182698429
31.485228,2.690854713636825,0.1439789814666727
31.489816,2.690678147842312,0.1435376712196759
31.494404,2.692911374513823,0.1429292577348329
31.499,2.693712286432477,0.1423301824073543
31.503588,2.693203068312416,0.1417187068241969
31.508192,2.692894078172019,0.1409628313736425
31.512775999999995,2.6915193274212,0.14014999712277
31.51738,2.6911220543835466,0.1391725110285065
31.521968,2.693545269402982,0.1380802335297663
31.526568000000005,2.695724114994127,0.1370454743727039
31.531156000000003,2.693039234204595,0.1362216344295397
31.535756,2.6916203420051485,0.135314846421522
31.540344,2.688036026767969,0.1345186990039649
31.544936,2.6830635382265595,0.1338266439380557
31.549532000000006,2.6783795605620684,0.1332041552498831
31.554128,2.673329028755141,0.1326390090000216
31.558708000000003,2.6718762347388045,0.1319582618530732
31.563303999999995,2.6696461909889657,0.1312888422801805
31.56790400000001,2.6766548611438967,0.13030435194483
31.5725,2.6846071071951045,0.1294179598588946
31.577088,2.695179613323738,0.1285616581697053
31.58168,2.709227672528818,0.1276305242271087
31.586268,2.722131927857957,0.126772934658533
31.590855999999995,2.734303074902224,0.1260275704950721
31.595444,2.7470071022517004,0.1253190929014906
31.60004,2.7584892824597205,0.1248003046863836
31.604632,2.7714037774205997,0.124291471582237
31.609224000000005,2.7856284024201905,0.1238106718178104
31.61382,2.797565419667904,0.1234529765927573
31.6184,2.807581383306176,0.1231675325782938
31.622996,2.8219723344685423,0.122781819961408
31.627592,2.833586939022446,0.1225893997299751
31.632172000000004,2.8475332927768577,0.1223740028342608
31.636779999999995,2.863933580445921,0.1221213235526578
31.641368,2.8796788030956284,0.1218589721110192
31.645956000000005,2.8971007099264847,0.121569530663436
31.650544000000004,2.9144004320431955,0.1213039260712212
31.655132,2.932110849750972,0.1210882079918648
31.701052,3.01316552927834,0.1210600676486005
31.705644,3.0237143732218232,0.1208397920086462
31.710244,3.0347519560218887,0.1205554531840264
31.714832,3.0423139857455084,0.1203410587056075
31.719420000000007,3.0517529276299418,0.1199718879511367
31.724008000000005,3.060126108903953,0.1195446375577673
31.728596000000003,3.065512475958101,0.1191179309651379
31.733176,3.070243777992893,0.1186788708945395
31.737772,3.074686569150765,0.1181840722955845
31.74236,3.0774526761274874,0.1177133312165129
31.746952,3.079030837779642,0.1172010396945261
31.751532000000005,3.078932315250647,0.1167127883597716
31.756128,3.080999215759385,0.1161414224122171
31.760712000000005,3.081389432086972,0.1155963350740643
31.765300000000003,3.0871321136518186,0.1148378410455108
31.769896,3.093241349359102,0.1140260519475678
31.774484,3.098695520047029,0.1132075646469027
31.77908,3.1078696132396937,0.1122995231917917
31.783668,3.117410260574794,0.1113606972269553
31.788256,3.130260134823568,0.1102949902026151
31.79286,3.140533890443542,0.1092667194250262
31.797456000000004,3.1426346927691693,0.1085083294195279
31.802048000000006,3.140526833733477,0.1078920304916532
31.806632,3.13854115941193,0.1072569052520832
31.811232,3.1354116812144435,0.1066702327813288
31.815819999999995,3.135879940807549,0.1060188753013703
31.820428,3.1409675573530382,0.105272615074419
31.825012,3.145688619756091,0.1045700885121609
31.829612000000004,3.146445390226116,0.1039789964578228
31.834200000000003,3.1514108220574606,0.1032515549934464
31.838795999999995,3.159196741945894,0.1024677114403753
31.843376,3.1680042809961213,0.1016537444024693
31.84797200000001,3.170926474503879,0.1009917666708038
31.852572,3.1731936029922805,0.1003146152463204
31.85716,3.176482350642474,0.0996171913207153
31.861748,3.18001546772096,0.0988877596431356
31.866336,3.186246888142389,0.0981270486766185
31.870923999999995,3.189780005220875,0.0974116615582647
31.87552400000001,3.18857158063283,0.0967927779989544
31.880108,3.1796789416070195,0.0963343427076744
31.884692,3.1736067906382983,0.0958193439855658
31.889288,3.172642735478544,0.0951584861863486
31.893868000000005,3.1775640258612605,0.0943528610115095
31.89846,3.181341512368037,0.0935849375494554
31.903048000000005,3.185774063894171,0.092832553290408
31.907636000000004,3.188407746525009,0.0921185669545872
31.912232,3.1871993219369643,0.0914911626476652
31.91682,3.186357451491356,0.0908161144556177
31.921408000000007,3.1900127532839875,0.0900768821523177
31.925999999999995,3.1884377745535053,0.0894925120709428
31.930596,3.1837979383376425,0.0889901785463381
31.9352,3.1796909824269908,0.0885212914188103
31.939792000000004,3.1832682409541047,0.0879020486755511
31.944388,3.188399998948223,0.0872917191019066
31.948975999999995,3.190100345314524,0.0868048313374436
31.953568,3.1951540600431247,0.0863083585300126
31.958148,3.195099678962757,0.0859378684440403
31.962744,3.194923113168245,0.0855800110924686
31.967328,3.1974448507166766,0.0851884829792715
31.971923999999994,3.2074064332745817,0.0846789309471058
31.976508000000003,3.2173680158324864,0.0841767013219847
31.981103999999995,3.225286360066805,0.083725797731907
31.9857,3.2303842162440333,0.0833224959936266
31.9903,3.241489602677878,0.0827963112711496
31.994892,3.2568036504730413,0.082174423789822
31.999484,3.2653329182780886,0.0816648642241771
32.004076000000005,3.271696763045401,0.0812106401998498
32.008664,3.281658345603307,0.0807258524378612
32.013252,3.287122755922973,0.0802856105503052
32.017847999999994,3.2955298390138736,0.0797897460466237
32.02244,3.3040591068189205,0.0792781528029808
32.027032,3.309357190975812,0.0787578528811058
32.031624,3.3069710606949387,0.078365274267631
32.036216,3.3027860615187694,0.0779897985860167
32.040804,3.297945997323244,0.0775916010459376
32.045392,3.287587141727685,0.0772581593314289
32.049984,3.277717024988709,0.0768638801046381
32.05459200000001,3.2688685274115272,0.0764450180806526
32.059180000000005,3.2580989762249035,0.0760547907048145
32.063776,3.2446311216953365,0.0756886016048362
32.068368,3.2301416480039755,0.0753429639580937
32.07296,3.216795978188555,0.0749583256516572
32.077555999999994,3.203450308373133,0.0745703387717122
32.08214400000001,3.1843414777293866,0.07426711935631
32.08674,3.156526813486082,0.0740951749150708
32.091336000000005,3.137540167556482,0.0737693529208401
32.095932,3.121862748540554,0.0733469862101106
32.10052,3.0987454845151525,0.0730051341921574
32.105112,3.079592512422778,0.0725871512060447
32.109704,3.0605617250445505,0.0721529334299034
32.114304,3.0451286754569136,0.0716925954917927
32.118896,3.031250125336282,0.0712421018023156
32.1235,3.0192926288250903,0.0707575960769814
32.128092,3.0082345667615478,0.0702641359076531
32.132687999999995,3.004083469402268,0.069659385654787
32.13727599999999,3.0027528601000766,0.0690175979478416
32.141864000000005,3.0068188574837733,0.0683467507146027
32.146452000000004,3.0156263965340004,0.0676340339259825
32.151048,3.02827604280311,0.066875325222902
32.155635999999994,3.043623992415164,0.066107162358242
32.16022400000001,3.0569287037036297,0.0653739947793332
32.164815999999995,3.0729317183350395,0.0646386119647221
32.169412,3.090611417147599,0.063910606999905
32.174004000000004,3.1099678001413094,0.0631857462832929
32.178596000000006,3.138685081753935,0.0623773775755575
32.183192,3.1640931364528884,0.0616657326178582
32.187772,3.1900340714570525,0.0609995931649662
32.192372,3.222271047594752,0.0603010426368881
32.19696,3.25234260069472,0.0596593205657901
32.201544000000005,3.28229196908054,0.0590427983523119
32.20614,3.309665218837564,0.0584363003639195
32.210724000000006,3.338060087756379,0.057815320343205
32.215332,3.370297063894077,0.057160733632672
32.219919999999995,3.402045301175193,0.0565593513718893
32.224512,3.425620585161961,0.0560959508917353
32.229108000000004,3.4518941724916723,0.05563334582696
32.233696,3.4744478373166463,0.0552046117533767
32.238291999999994,3.489561657132146,0.0548264477202043
32.242876,3.502632238624059,0.0544819819907296
32.247468000000005,3.514681200954178,0.0541563034353754
32.25205999999999,3.5297950207696784,0.0537892107112504
32.256660000000004,3.541066733366295,0.0534574772254328
32.261248,3.548740708172321,0.0531307931616013
32.265840000000004,3.555637433244845,0.0527934475785914
32.270428,3.553173259698453,0.0525063532890635
32.275023999999995,3.5510756402944987,0.0521825791102754
32.27962,3.544358663938159,0.0518741078625234
32.284208,3.536742253134171,0.0515687172994561
32.2888,3.530147461491977,0.051248941753987
32.293395999999994,3.5179116937356043,0.0509554096439348
32.29798400000001,3.504532122103292,0.0506851842189608
32.302572000000005,3.4889871274332487,0.0504517816606632
32.30716399999999,3.470621644706116,0.0502304574872855
32.31176,3.451967651102063,0.0499466577853604
32.316352,3.43560126524989,0.0496090369689092
32.32094,3.411672849674096,0.0493102709032371
32.32553600000001,3.3791607852128887,0.0490599292283914
32.330124000000005,3.344238928285657,0.0488728814831636
32.33472,3.3081732674824877,0.0487125281330094
