Time,Force,Position
31.843484,1.9445079223367872,0.1655564555761299
32.06848,2.0412573172218877,0.165486068936679
32.073076,2.0604544307628894,0.165471426395122
32.077664,2.0836158362369197,0.1651787698292776
32.082252,2.110497164215687,0.1646387426108032
32.08684,2.137622861622745,0.1640383416173556
32.091432,2.1649929284580955,0.1633510047815985
32.096024,2.191297234683024,0.1626139675855246
32.100616,2.2122049342220653,0.1622123491019625
32.105212,2.2329463075983327,0.1617098223767256
32.109792,2.2535213548118262,0.1610878834378047
32.114384,2.275851129471988,0.1602027868931945
32.118964,2.299813446864671,0.1591328457488387
32.123556,2.320788950037491,0.1581574384764636
32.128168,2.3358349662192133,0.1574346065373281
32.132756,2.3491601567711573,0.1566419121704731
32.137352,2.3548791761508534,0.156172959918584
32.141948,2.355812512415391,0.1558502835490579
32.146548,2.357478956964802,0.1553812272964585
32.15114,2.3592234447797304,0.1547574240518674
32.155732,2.3581033030889422,0.154165558276367
32.160328,2.354651412197647,0.1536301078050451
32.164924,2.344781295458671,0.1534103019340192
32.169516,2.3352777328621324,0.153114564508725
32.174108,2.3296943207499936,0.1524650917215175
32.1787,2.327297950837381,0.1516168854417062
32.18328,2.325390319781352,0.1506722278685204
32.187884,2.32270543899182,0.1497405072767024
32.192476,2.3161343095347773,0.1488698212108832
32.197076,2.306864876734791,0.148106619233074
32.20166,2.2995164975442464,0.1472415424484372
32.206256,2.294333541391434,0.1462308158885877
32.210864,2.28501996714282,0.1453315835009614
32.21546,2.2741518934272014,0.1444525281595992
32.220048,2.262750939406372,0.1435249639933502
32.224648,2.2513499853855423,0.1425845222317436
32.229236,2.239949031364713,0.1416285570551255
32.233832,2.228303707915592,0.1407103241852796
32.238424,2.2157589500188237,0.1398251283369255
32.243008,2.2060346801791435,0.1387937776411461
32.247596,2.19528879117767,0.1378140081228316
32.252192,2.184665086890343,0.1368003297502314
32.256784,2.1768618706601046,0.1356294430951426
32.261376,2.167259785534571,0.1345341236894565
32.265968,2.150384181562337,0.1338968236053243
32.270544,2.128889220637718,0.1334539923606742
32.275124,2.1081715094466005,0.1329904502987308
32.279708,2.088353232703132,0.1324802119999262
32.284296,2.074342258236615,0.1318110571808035
32.288884,2.067282389922989,0.1309110552537927
32.29348,2.0572798488381294,0.1301585136222174
32.298068,2.0467885688966865,0.1295004140471729
32.302672,2.037363049565665,0.1289125815598114
32.307256,2.0311687138827983,0.1282609828677515
32.311852,2.0297600613150903,0.1275258847079228
32.31644,2.031460407681391,0.1267564902326705
32.32104,2.039212425752935,0.1258143170878883
32.325628,2.051339431348573,0.1247450335652215
32.330232,2.065020936411215,0.1236674644131013
32.334816,2.077069898741335,0.1227873892638641
32.339416,2.094271098329052,0.1217929648193505
32.344012,2.1127824279554805,0.1208408972394375
32.348604,2.133092626477205,0.1198404840658034
32.353184,2.157777812523024,0.1187549517825783
32.35778,2.1852834866259307,0.1175401238705658
32.362376,2.2123004218722557,0.1163912990235983
32.366972,2.2393173571185807,0.1152564344803989
32.37156,2.265068303774821,0.1142226841834037
32.376148,2.288365316516409,0.1132482422681232
32.380736,2.3063879072862554,0.1124471133759034
32.385332,2.328130420560839,0.1115250443996527
32.389924,2.347296815206624,0.1106612437752582
32.394516,2.366829763994847,0.1097209475316015
32.399112,2.38468602860192,0.1088294046502304
32.4037,2.4032754014938664,0.1078383236876971
32.4083,2.4194108404711607,0.1068870867665304
32.412876,2.430271857476713,0.1060710171705423
32.417468,2.4384345711393225,0.1053373934684653
32.422064,2.44582003506843,0.1046118442047996
32.426652,2.452794803406472,0.1038312824479592
32.431244,2.452574096163331,0.1032227707377764
32.435836,2.451576139186688,0.1026174294475167
32.440424,2.4504559974958995,0.1020371542071655
32.44502,2.4418960107956367,0.1016584186099463
32.449608,2.4360343274383176,0.1012222193693019
32.4542,2.437856858518764,0.100561808785099
32.45878,2.442255508228008,0.0998744717099038
32.46338,2.4513956996037827,0.0990696998152018
32.467976,2.4627454554659183,0.098292570915015
32.472576,2.476671329956852,0.0974889990208555
32.477156,2.489453400571846,0.0967529949904667
32.481756,2.508287142892084,0.0959504296857787
32.48634,2.52969700384112,0.0951259685130401
32.490936,2.5517619298095124,0.094329278598119
32.495528,2.5747704316741804,0.0936542127852092
32.500124,2.6003550521676475,0.0929605782861046
32.50472,2.629170856309268,0.0922615078431201
32.50932,2.65684285657495,0.0916088745221267
32.513912,2.6850477371458417,0.090999651149829
32.518512,2.712763878860151,0.0904645417415943
32.523092,2.744610638670263,0.0898949298426986
32.52768,2.775313594604436,0.0893725383668189
32.532268,2.806016550538608,0.0888614966333497
32.53686,2.8441593514822543,0.0882000667897967
32.541456,2.8787044146353096,0.0876114101732288
32.546048,2.904665828902952,0.0872336553967654
32.550644,2.929849993437092,0.0868697812616409
32.555224,2.948493747409405,0.0866352620801809
32.559816,2.967504055524156,0.0863590423088362
32.564404,2.982794441134169,0.0861499677073761
32.568988,2.9964081425630327,0.0859501498048116
32.573584,3.002049118677211,0.0858452801561935
32.578172,3.0069128450578875,0.0857388588553964
32.582772,3.010344256685705,0.0856086060327638
32.587364,3.0070689315889227,0.0855067930156409
32.591952,3.000073683987404,0.08546664967695
32.596544,2.991890491061316,0.085368505518312
32.60114,2.9858727211729623,0.0852004215245077
32.605736,2.9783004518176037,0.0850229886550992
32.610324,2.9737930399476253,0.0847666641646217
32.614924,2.96977436693423,0.0844495748233848
32.619512,2.9707416050156565,0.0840213086019942
32.624116,2.9709315933635807,0.0835900185141225
32.628708,2.964214617007242,0.0833072159457132
32.633308,2.957253271222612,0.0830537777475706
32.637896,2.9551556518186577,0.0827019159605994
32.642488,2.951792043824619,0.0824086246420468
32.64708,2.9539472272306124,0.0820397013444323
32.651676,2.951116499541784,0.081781105432665
32.656272,2.948163587138811,0.0815352452616126
32.660872,2.951628900583518,0.0812073973983811
32.665464,2.9621675048952616,0.0808151329826033
32.670056,2.972339555064569,0.0804716602311246
32.674644,2.9847211697202365,0.0801615938961892
32.679232,3.0023772063476457,0.079807970184619
32.68382,3.0237531654797927,0.0794014322227724
32.688408,3.0432522124511263,0.0791237713355674
32.692992,3.060463651670581,0.0789259421721457
32.69758,3.079351775071186,0.0787248471592388
32.702164,3.0954194104147024,0.0785731206735231
32.706748,3.111364861044072,0.0784404737766338
32.711328,3.122446585292766,0.0784001246550471
32.715936,3.1358600587419665,0.078379257951517
32.720524,3.1554032471619267,0.0782203923297324
32.725136,3.1780112930672693,0.0779946314264013
32.729724,3.1975544814872303,0.0778396017515094
32.738912,3.216364561622317,0.0777638294841554
32.7435,3.229078828603533,0.0776278723600027
32.748104,3.2478006258413643,0.0773718558247213
32.7527,3.257405893888571,0.0772181483377374
32.757304,3.257894632745154,0.0771604533551599
32.761884,3.2609153487819063,0.0770024487217314
32.76648,3.2605826964563587,0.0768479394140227
32.771072,3.256774491054365,0.0767107461209275
32.775672,3.252966285652372,0.0765744887635733
32.78026,3.2546327302017835,0.0762909462599634
32.78486,3.260507836112515,0.0759109152166839
32.789448,3.265727877003889,0.0755126570061732
32.794044,3.266983625962235,0.0751805608857724
32.798624,3.2691388093682288,0.0748444048010733
32.80322,3.273215046383664,0.0744803435835089
32.807808,3.2709952422655646,0.074165703876415
32.8124,3.264811146214436,0.0739221007825015
32.816988,3.2594042998968105,0.0736873262266733
32.821576,3.25411963829333,0.07343810049924
32.826164,3.2584402447370566,0.0730478818361541
32.830756,3.2686461967232527,0.0725616390053958
32.835352,3.273499683472191,0.0722075145161036
32.839944,3.271201836088573,0.0719972723511512
32.844536,3.2734011609431954,0.0717513385833985
32.849116,3.284061949969085,0.0713997463539507
32.853712,3.290269708205364,0.0711749433238742
32.8583,3.2990535850704403,0.0709432786456517
32.862892,3.3140113183549063,0.0706833143629346
32.8675,3.3261485635822825,0.0704579358436994
32.872088,3.334199332162485,0.0703159572930014
32.876684,3.337508559076157,0.0702320791681785
32.881268,3.3442933390662746,0.0701400718094418
32.885856,3.359128887636595,0.0699128195471686
32.890452,3.3693450792545305,0.0697265166840893
32.895044,3.3757191636535824,0.0695877506328364
32.899648,3.386301909413955,0.0693590541908287
32.904244,3.3961074054408247,0.0691208377295248
32.90884,3.398350871744075,0.0689673045341316
32.913416,3.4045586299803534,0.06875262725439
32.91802,3.4107663882166324,0.0685438720207159
32.922596,3.4110888009104414,0.0684187651716384
32.927196,3.411899952460833,0.0682394160908265
32.931788,3.4171641348008355,0.0679449180390543
32.936384,3.419730013797895,0.0676661341596292
32.94098,3.4213964583473064,0.0673970760790177
32.945564,3.4225300225915065,0.0670912387297667
32.950164,3.422109087368703,0.0667695279717528
32.95476,3.4143704918505704,0.0665022852791513
32.959352,3.404955212151288,0.0662292162273009
32.963944,3.3918200099472675,0.0659879846523086
32.968536,3.379584242190896,0.0657393420996632
32.97312,3.360030814139196,0.0655446388222432
32.977712,3.3344698558308803,0.0654429616721031
32.982304,3.3091532669508563,0.065312648401289
32.9869,3.2871459049845044,0.0650961533703359
32.991488,3.2664486730568645,0.0649216827129036
32.996084,3.247794679452812,0.0647072775257546
33.000664,3.235270400819521,0.0643802562420986
33.00526,3.2141624733008167,0.064146764085243
33.009844,3.187291384953788,0.063979142817775
33.014432,3.162585719644492,0.0637589816489666
33.019028,3.141844346268224,0.0634747966356334
33.02362,3.122657472358961,0.0632074033556299
33.028208,3.107312705668581,0.0628946330810495
33.032804,3.090291254797051,0.062574316292862
33.037392,3.077111911144403,0.0622110846890565
33.041996,3.062788763615816,0.0618748498189868
33.046584,3.051408288858464,0.061497849500782
33.051184,3.044647171053497,0.0610887215494181
33.055772,3.042871964343352,0.060604627869126
33.060364,3.0412189423473523,0.0601043684051117
33.064948,3.042630777836733,0.0595458052898687
33.069548,3.0423659291449643,0.0589699861485886
33.074132,3.049418740748524,0.058359842071408
33.078728,3.0561049982096464,0.0577945212650214
33.08332,3.0643016136891457,0.0571688543148892
33.087916,3.0731532941879998,0.0565722963377311
33.092512,3.0799617363632668,0.0560110718612421
33.0971,3.0944543929763,0.0553713407885714
33.101688,3.111889722360567,0.0546929332464073
33.106288,3.1341887781255107,0.0539767825618526
33.110876,3.152523541957428,0.0533151420358798
33.11546,3.1663611335511037,0.052667593094699
33.120052,3.1753349987641037,0.0520682990381099
33.124648,3.181244006491723,0.0515101585703524
33.12924,3.1833109070004606,0.050985257057281
33.133832,3.186521611385136,0.0504280952599794
