Time,Force,Position
33.657208,4.503010486081761,0.1553757755202443
33.661796,4.8542909717529055,0.1540704459325491
33.666392,5.179745650423964,0.1533592550922306
33.67098,5.489190257753546,0.1525437495014549
33.675564,5.77460792697834,0.1518932403850989
33.680152,6.036986375443248,0.1514517831445473
33.684744,6.282177046873851,0.1511666642562663
33.689336,6.50948073480217,0.150866263521538
33.693924,6.721673785836658,0.1504589932885942
33.69852,6.9190005694056085,0.1499338483365702
33.703108,7.097574836841512,0.1493142633335664
33.7077,7.26013903293594,0.1486387925899139
33.712296,7.404816245528079,0.1479876524339518
33.716884,7.530584855456137,0.1473815480001655
33.721492,7.640265350777201,0.1467623654081348
33.726084,7.737944208138445,0.1460414033883206
33.73068,7.822477623663932,0.1452639751726911
33.735268,7.889001870972983,0.1444994835125879
33.739856,7.945411632114768,0.1436974222904437
33.744448,7.992361972108642,0.1428615877640263
33.749044,8.027320913774435,0.1420564221628246
33.753636,8.066166104107737,0.1412458144552224
33.758216,8.110984922880768,0.1404237222332404
33.762816,8.162754847806692,0.1395511460960105
33.767396,8.220987140028921,0.1386484366064587
33.771996,8.28539328867054,0.1376913763096771
33.776588,8.351065425902245,0.1367176429623817
33.781184,8.42765296121987,0.1356453287467502
33.785768,8.502607953804974,0.1346277460481862
33.790364,8.578995261142936,0.133627397592791
33.794952,8.661067686043705,0.132607652293955
33.799548,8.743550806535538,0.1316181172717904
33.804124,8.83053109926561,0.1306008803032514
33.808712,8.920986945072126,0.1295687630430858
33.8133,9.014918343955095,0.1285277110374028
33.8179,9.109871361999852,0.1274948831540278
33.822488,9.201104457539872,0.1265175944721883
33.82708,9.29810071390822,0.1254942664552671
33.831676,9.39276522107606,0.1244949514570645
33.836264,9.484442914024038,0.123516762729787
33.840864,9.570191119980915,0.1225855625592278
33.845452,9.650009838946696,0.1217009309843347
33.850044,9.727086113120905,0.1208168245959851
33.85464,9.790793055294545,0.1200385379504291
33.859228,9.847671076029432,0.1193063064888854
33.86384,9.898986163915664,0.1185966900678411
33.868428,9.946415003134383,0.117900133047097
33.87302,9.982229237799196,0.1172657041481027
33.877612,10.015789766529023,0.1166009368898279
33.882192,10.04456461214369,0.1159534532897327
33.886784,10.068675959357346,0.11531894431168
33.891372,10.082360647341662,0.1147419289775748
33.895976,10.087129034115016,0.1141948346710918
33.90056,10.080937881353824,0.1136969030617797
33.90516,10.064686623505729,0.1132423869480586
33.909748,10.04119574862782,0.1128065826094041
33.914348,10.011120321739462,0.1123911695135025
33.91894,9.969474431745825,0.1120465893899904
33.923536,9.92214342418938,0.1117151873115448
33.92812,9.8651630071371,0.1114357686608118
33.932712,9.805073591150814,0.1111568261469912
33.937312,9.742774610678165,0.1108715245606265
33.941908,9.675201208233773,0.110612658740387
33.946496,9.6110592174172,0.1103018604114525
33.951088,9.544218923257686,0.1100061770324211
33.955676,9.47378089130758,0.1097308726049683
33.960264,9.399989490995171,0.1094649049388266
33.964852,9.322888863769087,0.109239799528596
33.969448,9.247098366581724,0.1090186571501183
33.97404,9.170041880804272,0.1088155689506645
33.978632,9.0887767336655,0.1086594225454164
33.983228,9.015728681269705,0.108442452364747
33.987816,8.944523639217833,0.1082422039515971
33.992416,8.881291322480651,0.1079904079476866
33.997004,8.82578736162986,0.1076977526923183
34.001608,8.772659291428205,0.1074328389638983
34.006192,8.724605415218624,0.1071796338007788
34.010772,8.679949048819976,0.1069450278909596
34.015364,8.63946744196576,0.1067277847301369
34.019956,8.609701005217795,0.1064757867502125
34.024544,8.587296370213789,0.1062021828789872
34.02914,8.567922690878277,0.105964573762253
34.033732,8.55554425914428,0.1057228144716752
34.038336,8.551837759192956,0.1054723702180388
34.042924,8.559212983490324,0.1051748486045108
34.047516,8.576281758732154,0.1048583858581232
34.052096,8.601123031309008,0.104540654006966
34.056696,8.63602440897276,0.1041883171259201
34.06128,8.675222730895094,0.1038544269821427
34.06588,8.720761235399586,0.1035158805811161
34.070472,8.773417172219743,0.1031697757005453
34.075068,8.828571184403181,0.1028541359906294
34.079656,8.891209183044722,0.1025195640122893
34.084248,8.955445822601895,0.1022218589336909
34.088852,9.01960441889355,0.1019669996891185
34.093448,9.08482877579563,0.101733009340646
34.09804,9.157248608278891,0.1014607386651306
34.102632,9.238540600524482,0.1011438254248569
34.10722,9.322042157256435,0.1008339798934224
34.111808,9.405054975131808,0.1005490259822031
34.116396,9.487456869436452,0.1002951652211414
34.120992,9.574600305407625,0.1000085791487135
34.125584,9.664319860007597,0.0997171091666
34.130176,9.748154069065096,0.0994793242948469
34.134768,9.826102932580127,0.0992949328274342
34.139348,9.899554623856922,0.0991367967734418
34.143944,9.97145181566671,0.0989815403464877
34.148532,10.0407728888477,0.0988393783917336
34.15312,10.108906016704122,0.0986855022500284
34.157728,10.175729014521831,0.0985251067276114
34.162308,10.241608436443268,0.0983426609526993
34.166908,10.306544282468424,0.098138997770484
34.1715,10.366450075950132,0.0979509019905857
34.176092,10.427088977716712,0.0977381927306267
34.180688,10.482164946634631,0.0975282094614492
34.185268,10.540261631589305,0.0972659006577028
34.189864,10.590996514800022,0.0970182539411549
34.194444,10.637190084323873,0.0967683704567539
34.199044,10.681907197646234,0.0964879696244689
34.203632,10.726169473928906,0.0961693834253948
34.208236,10.768833109295942,0.0958254047197911
34.212828,10.80527874679496,0.0954803462123324
34.217424,10.835384201711816,0.0951376187233571
34.222004,10.867733122931924,0.0947443457398974
34.2266,10.900282272131692,0.0943163504968671
34.231208,10.933931083758772,0.0938507908191615
34.235796,10.962672027556549,0.0933911502992271
34.240384,10.986505103525024,0.0929372434461631
34.244976,11.006207561397693,0.0924903402109853
34.24956,11.021901585888704,0.0920459107154555
34.254144,11.036285480341007,0.0915933826577826
34.258732,11.048870505898009,0.0911497048546554
34.263336,11.057447098073355,0.0907059921227636
34.267924,11.062914691314695,0.0902615358492409
34.272504,11.07324601093671,0.089787105343273
34.2771,11.078058539158691,0.0893391921149013
34.281676,11.08466993627597,0.0888851832793129
34.286264,11.08870521476445,0.0884381763279024
34.290856,11.091841058805285,0.0879956108662531
34.295444,11.091012610913086,0.0875793491173937
34.300048,11.089162543859096,0.0871712923212723
34.304636,11.089644226005614,0.086766434777125
34.30924,11.09294639620922,0.0863481856475129
34.313832,11.092284274479796,0.0859554640148039
34.31842,11.093421021645671,0.0855577966712985
34.323024,11.093536149649749,0.0851681972075743
34.3276,11.09839281932036,0.0847556921082759
34.332196,11.109012649819292,0.0843140156539796
34.336784,11.12245296837532,0.0838601539979516
34.341384,11.139246655293643,0.0834041377372544
34.345968,11.158616460840763,0.0829465157127844
34.350572,11.182849992768562,0.082466404699569
34.355152,11.21272450081054,0.081962744866247
34.359744,11.242354639424226,0.0814691389188233
34.36434,11.271862593323766,0.0809831440609648
34.368932,11.306600827746417,0.0804628924492155
34.373532,11.342605050759156,0.0799318999935271
34.378124,11.380285957953044,0.0794019684257612
34.382712,11.420665168489874,0.0788685109962734
34.387312,11.46320980206444,0.0783195202259638
34.3919,11.507675489248443,0.0777651589913029
34.396484,11.55160829612724,0.0772041179709682
34.401072,11.597584341329622,0.0766357368370958
34.405664,11.652388404845707,0.0760298822942061
34.41026,11.706537403342436,0.0754235545710302
34.414848,11.7636290746104,0.0748083079563086
34.419436,11.82006568085901,0.0741926360252426
34.424024,11.873681799050528,0.0735916182009884
34.428616,11.928441721117984,0.0729859792586154
34.433204,11.983157501736814,0.0723609910161784
34.437792,12.031455056507962,0.0717547392922006
34.4424,12.071535516536136,0.0711717129425558
34.44698,12.111738161278453,0.0705897021455039
34.45158,12.153451164039147,0.0699906914659038
34.456172,12.193731852046987,0.0693873551735292
34.460768,12.22902662896,0.0688101544951008
34.465364,12.260601483368278,0.0682452930471946
34.469964,12.292010011613783,0.0676629165654022
34.47456,12.317366868154044,0.0670851465323515
34.479148,12.344889147732037,0.0664968707790838
34.48374,12.370079678109525,0.0659044200339091
34.488328,12.393715709020004,0.0653086125513626
34.49292,12.407335776292214,0.0647301559224049
34.497508,12.40991826076436,0.0641761787063307
34.502108,12.40890300744591,0.0636270962658635
34.5067,12.399915028812776,0.0630842992366596
34.511292,12.387451497103198,0.0625419683964173
34.515872,12.372001151173755,0.0619847286067901
34.520464,12.354096871329665,0.0614239475194952
34.525064,12.329407811495452,0.0608820747678562
34.529656,12.306884174698974,0.0603251776650531
34.534244,12.286525960940226,0.0597532964966984
34.538828,12.260648955781448,0.0591892017448343
34.543416,12.227987170632552,0.0586426785840644
34.548012,12.19184983240721,0.0580934051172781
34.5526,12.151215321943628,0.0575437047743629
34.557176,12.107105258403603,0.0569891338175563
34.56176,12.055966045445166,0.0564568003029926
34.56634,12.00368302861079,0.055927539191718
34.570916,11.941017493995709,0.0554149072512347
34.575528,11.87168936410465,0.054911672673984
34.580116,11.803016299232953,0.0544115540441776
34.584712,11.741538709942436,0.0539025637118935
34.5893,11.676751893738247,0.053406952572605
34.593892,11.606856981725093,0.0529262816266913
34.598484,11.53598459199877,0.0524694461205629
34.603076,11.46168079064463,0.0520309713320715
34.607668,11.386277326863178,0.0516211584657335
34.61226,11.30065767146379,0.0512466704596634
34.616856,11.216348146103115,0.0508815681195318
34.621444,11.129751012990564,0.050527638774964
