Time,Force,Position
32.532832,8.90041762778206,0.1490786595068231
32.53741599999999,9.179379295553897,0.148033789996184
32.542016,9.436567731155929,0.1470517600325412
32.546608,9.674725379379732,0.1461345132258805
32.551204,9.89552892440646,0.1452482995740207
32.555792,10.09868985535919,0.1443534930481455
32.560388,10.278811565552036,0.1435282119079708
32.564975999999994,10.433684490498637,0.1427697287452997
32.569571999999994,10.568460867456585,0.1420277786343535
32.57416,10.681464012244737,0.1413115860712679
32.578748,10.772205186006502,0.1406363521373484
32.583336,10.836275499400903,0.1401043861693414
32.587931999999995,10.883612872800692,0.1396373452882917
32.592524,10.91258476347335,0.139260153061061
32.59711599999999,10.93447312364723,0.1388528797967369
32.601707999999995,10.948011964732247,0.1384429133409981
32.606288,10.95193529813832,0.1380485852272184
32.610888,10.941790093075836,0.1377373888466604
32.615464,10.925504933410854,0.1374157351561472
32.620059999999995,10.898216092762697,0.1371350321659112
32.624644,10.865075808388957,0.1368584218394361
32.629223999999994,10.827760764470783,0.1365753861224471
32.633816,10.790113068227065,0.1362461429090111
32.638408,10.743793440200674,0.1359475028170568
32.642996,10.693010541752937,0.1356241955099462
32.6476,10.640751187103712,0.1352710308145735
32.652192,10.586771006824709,0.134897373771113
32.656788,10.534178999849937,0.1344929714676228
32.661379999999994,10.47745637477936,0.1341071239707387
32.66598,10.415459327737045,0.1337575579351681
32.670568,10.353951019551308,0.1333839290989328
32.675168,10.290110962165068,0.1330140052310604
32.679756,10.22194005870336,0.132701273060036
32.684355999999994,10.1605980766804,0.1323410773629347
32.688948,10.104408331915035,0.1319418885710946
32.693544,10.048140543884154,0.1315720026827736
32.698128,9.996902808396722,0.1311696191209294
32.70272,9.949629364842322,0.1307185430281797
32.70732,9.900723378555398,0.1303030275685402
32.71192,9.854559837060046,0.129891081884397
32.716511999999994,9.807951698156735,0.1295263667389554
32.721104,9.762820015454915,0.1291891332430138
32.725696,9.718020985078642,0.1288974305819364
32.73027999999999,9.685980363132211,0.1285238401884618
32.734872,9.65762576187363,0.1281775399379084
32.739464,9.636388592930716,0.1278061508024406
32.74406,9.622024486875176,0.1274210805197187
32.748648,9.610813521202273,0.1270570024484548
32.753243999999995,9.606719987845032,0.126669591287913
32.75783199999999,9.614363243755845,0.12621900212228
32.762415999999995,9.623238586439848,0.1258092727451054
32.767,9.641807480068316,0.1253631397948809
32.771592,9.671824652087915,0.1248384246804616
32.776196,9.704706453613234,0.1243201834237379
32.780784,9.739064711340037,0.1238368004743525
32.785371999999995,9.77514379469662,0.1233743423598791
32.789967999999995,9.81678581090186,0.1229006511504876
32.794563999999994,9.863257651670894,0.1224470481513439
32.79915999999999,9.920522705811695,0.1219198824415651
32.80374,9.988580973324275,0.1213228410275703
32.80833199999999,10.064489781437391,0.1206814407109487
32.81292,10.142197458445809,0.120028952064144
32.817519999999995,10.220804569901867,0.1193720204684705
32.822112,10.296346823872549,0.1187606217790233
32.826716,10.375731185062111,0.1181213201026462
32.83130799999999,10.451928504052148,0.1175288130891523
32.835908,10.525427519699242,0.1169608703924926
32.840492,10.599293089488771,0.1163833181017102
32.84508399999999,10.675079712887744,0.1157984772548236
32.849672,10.748412402372065,0.1152320471575099
32.854268,10.82133439626532,0.1146523847820465
32.858864,10.890003587348623,0.1140993443040256
32.86346,10.949678433955455,0.1136076199144147
32.868047999999995,11.007265900790069,0.1131136202335915
32.872632,11.062110922833108,0.1126121195893512
32.877224,11.11805560730346,0.1120720335856694
32.881812,11.166638490029856,0.1115573416822409
32.886399999999995,11.207326690707085,0.1110574247223691
32.890995999999994,11.241308154659713,0.1105884734104011
32.895588,11.266784012992444,0.1101588632428095
32.900167999999994,11.285264623723656,0.1097369726301809
32.90476399999999,11.305499961901535,0.1092818314290031
32.909352,11.325036093611432,0.1087982301892375
32.91394,11.341052530796254,0.1083054163440711
32.918544,11.350973154827209,0.1078137729697253
32.923131999999995,11.357618453761372,0.1073025927793261
32.927736,11.363564546227552,0.1067626513527028
32.932323999999994,11.366768193902168,0.1062118651468774
32.936916,11.36350947428047,0.1056733331094235
32.941508,11.354565637095964,0.1051449463883544
32.946096,11.34647709291048,0.1045859541121439
32.950692,11.33589047336172,0.1040055642154006
32.955279999999995,11.32897963486906,0.1033766929271133
32.959875999999994,11.321780285499482,0.102730955312176
32.96446399999999,11.316091294148286,0.1020598161496535
32.969064,11.311013226367816,0.1013694168686845
32.973656,11.309532896377934,0.1006621573562649
32.97826,11.3081747511022,0.0999472458365698
32.982851999999994,11.29937676081699,0.0992704741288395
32.98744799999999,11.287758282474696,0.0986083621669587
32.99204,11.276917053865898,0.0979444916210253
32.996632,11.260434849142923,0.0973128247430066
33.001231999999995,11.243586090277514,0.096693178556513
33.005824,11.22547134282202,0.0960881614747472
33.010416,11.208666725405234,0.0954907018772372
33.015007999999995,11.1950932916366,0.0948898348522842
33.01959599999999,11.180009499849598,0.0943130080299697
33.024187999999995,11.167501826691392,0.0937289238105773
33.02877599999999,11.155527033838396,0.0931519956690956
33.033356,11.14678342463355,0.0925716949977517
33.037952,11.13934994546742,0.0920016123258241
33.042536,11.129917369426334,0.0914708699877469
33.047124,11.121550553995668,0.0909596163043483
33.051703999999994,11.115271118337215,0.0904598480565712
33.056296,11.107236955232096,0.0899929847686999
33.06088,11.094261022480785,0.0895853384439746
33.065468,11.07936403612003,0.0891884614786255
33.070063999999995,11.07129597119802,0.0887777771347956
33.07465199999999,11.070179012428904,0.0883469339493156
33.079232,11.072171052593797,0.087918881311991
33.08382399999999,11.076372657245043,0.0874982212402188
33.088404,11.083805445544453,0.0870765929719017
33.093,11.093569983044365,0.0866592031748966
33.097576,11.107709508068377,0.0862308762521598
33.10217599999999,11.122137543969302,0.0858208367899845
33.106764,11.136321210441938,0.0854210331545225
33.111352,11.154757679724522,0.0850157894108212
33.115944,11.172461040722231,0.0846373977615156
33.12054,11.196460442853477,0.0842410016242752
33.125128,11.220215475556431,0.0838541020005396
33.129724,11.244747757992888,0.0834709654319845
33.134311999999994,11.27774150460061,0.0830521060445737
33.138907999999994,11.31085743592248,0.0826326274116804
33.143488,11.338743086721236,0.0822515263303838
33.148076,11.370226475310586,0.0818615729355467
33.152663999999994,11.40489690609946,0.0814472487019574
33.157256,11.442021270802986,0.0810351438848795
33.161843999999995,11.478490570487155,0.0806225416256121
33.166424,11.518924162104357,0.0801914530503142
33.171015999999995,11.561523176759286,0.0797460435419687
33.17560399999999,11.606531983880243,0.0792803551276971
33.180195999999995,11.652684594877138,0.0788068943542939
33.184791999999995,11.69830432556882,0.0783276840494585
33.18937999999999,11.746089479298236,0.0778376385809476
33.193976,11.79448555659838,0.0773301372753889
33.198564,11.84018333055558,0.0768309415106013
33.203152,11.882527736150482,0.076335725193186
33.207744,11.924461446154318,0.0758296627205458
33.212332,11.959321865291116,0.0753399110038991
33.216936,11.994671023284493,0.0748368852728311
33.221532,12.02846568181087,0.0743331598932199
33.226136,12.055309234184357,0.0738406763321087
33.230715999999994,12.0768783645861,0.0733568964589302
33.235316,12.103511449348185,0.0728210020418173
33.239904,12.126258285442756,0.0722778658590464
33.244508,12.150759848984,0.0717093819864089
33.249095999999994,12.17047572941008,0.0711336593096631
33.253696,12.181197265359684,0.0705750602501426
33.25828799999999,12.184723325728104,0.0700311712111548
33.26288399999999,12.184118768000722,0.0694849142250118
33.267464,12.176074365263863,0.0689588169096524
33.27206,12.163899344431204,0.0684286451001109
33.276647999999994,12.146572086340951,0.0678988571333714
33.281243999999994,12.119106679898277,0.0673915013866163
33.285832,12.091108393150392,0.0668735958174653
33.29041599999999,12.062699410811446,0.0663400608593008
33.295004,12.031059244824345,0.065798132235797
33.2996,11.9941446568655,0.0652575298138432
33.30419199999999,11.956452819173151,0.0647110137738497
33.308784,11.914263809242568,0.0641678688646914
33.313376,11.869498680683185,0.0636223736826122
33.31796,11.824611367409656,0.0630770984024261
33.322551999999995,11.780867858012066,0.0625192382442571
33.32713999999999,11.728829210605982,0.0620002701628289
33.331728,11.674747324876313,0.061486997729369
33.336336,11.612370301138148,0.0610117805336594
33.340923999999994,11.551547776866988,0.0605377842162734
33.34551999999999,11.495222424834068,0.0600540492765464
33.3501,11.439674322534648,0.0595690970283859
33.354696,11.383881850806938,0.0590875869918864
33.359292,11.330421128279731,0.0586110415614493
33.363884,11.278270535791243,0.0581442449067576
33.36848,11.22922894223676,0.0576857543332989
33.373059999999995,11.184562336206373,0.0572229287832967
33.377655999999995,11.13838537215761,0.0567774369110401
33.38224399999999,11.093640722861702,0.0563390983702184
33.386844,11.05188288778566,0.0559139747057867
33.391436,11.01503292053892,0.0554973532866166
33.396035999999995,10.978349279454957,0.0551002361691706
33.40062,10.946451321486151,0.0547168045050038
33.405216,10.916762928003708,0.0543454581111276
33.409808,10.889406283721769,0.0539825894955281
33.414404,10.864914268945547,0.0536397021973508
33.419,10.849660968074096,0.0532829956614993
33.42359999999999,10.835595612527213,0.0529429344469778
33.428192,10.829869536437448,0.0525898455688045
33.432784,10.824554155938753,0.052251226885583
33.437372,10.819527286316976,0.051931012846145
33.441959999999995,10.818997588933437,0.0516091044011697
33.44654799999999,10.820433086607972,0.0513090464913234
33.451139999999995,10.822645834016004,0.0510121148531846
33.455735999999995,10.826413080891042,0.0507222689645359
33.460328,10.829691588909498,0.0504477653286839
33.464915999999995,10.833502977233165,0.0501843252621154
33.469491999999995,10.83478238837666,0.0499435970719019
33.474076,10.833529822339989,0.0497261217153661
33.478663999999995,10.83191070216088,0.0495201324229109
33.483244,10.827226724496388,0.0493259534373707
33.487832,10.823442181279546,0.0491308350311536
33.492428,10.81413884666267,0.0489398229248082
33.497015999999995,10.799971785665118,0.0487603737860048
33.501608,10.780818813572743,0.0485964108720985
