Time,Force,Position
39.627664,8.552172180911368,0.1533059289305786
39.63226,8.656245601935145,0.1526983617077412
39.636856,8.744397234514702,0.1521201631283822
39.64144399999999,8.820513327317553,0.1515407821946202
39.646052,8.888235759582908,0.1509455817066667
39.65064,8.953371833587727,0.1502787671363567
39.655244,9.0101244866868,0.1496981859929737
39.659828000000005,9.072884670042487,0.1490320040908065
39.664428,9.127061204512758,0.1484899884862259
39.66902,9.179971750392946,0.1479788229796821
39.67361199999999,9.229817438787755,0.1475173531720798
39.678204,9.281828550220297,0.1470261065788076
39.68279199999999,9.335760715262277,0.1465145349879888
39.687392,9.386750207533025,0.1460506799464536
39.69198,9.440193633718422,0.1455809875752496
39.696584,9.495680298227407,0.1450907852067647
39.701168,9.553698939916565,0.1445523632151641
39.70576799999999,9.609752386547653,0.1440127391629447
39.710352,9.66821562564476,0.1434330304169866
39.71494799999999,9.722259735769148,0.1428666739571591
39.71953599999999,9.775893150302474,0.1422956770692669
39.72412799999999,9.828216434797085,0.1417283414584919
39.728728,9.881150642862425,0.1411415632273961
39.73331999999999,9.932241840583838,0.1405490663521391
39.737908,9.981367843247185,0.1399556199044669
39.74249999999999,10.027507031690666,0.1393738636292683
39.74708799999999,10.071681025076082,0.1387851880984266
39.751668,10.10837103200339,0.1382477728536618
39.756264,10.146937951091514,0.1376603038786337
39.760856,10.184683478997508,0.1370478685828605
39.76544,10.225449722940253,0.1363696032616074
39.770028,10.260408664606045,0.1357305224281242
39.77462,10.293891150070351,0.1350692053981151
39.779208,10.322710137133647,0.1344229244715893
39.783796,10.343678583596402,0.1338396133419174
39.788408,10.35973916222985,0.1332858820503118
39.792996,10.371791307481644,0.1327514576260217
39.7976,10.384576561018312,0.1321890929810957
39.802188,10.391798881706316,0.1316498292301754
39.806776,10.400409375698551,0.1310836665572669
39.81137199999999,10.405133621023278,0.1305304872677057
39.81596,10.406504497985704,0.1299970211506648
39.82055199999999,10.40170151852874,0.1295087174645637
39.825140000000005,10.393422985995333,0.1290433863572535
39.82974,10.38179108509962,0.1285956827289619
39.834328,10.371425172793998,0.1281263241575314
39.838932,10.363224683526106,0.1276275774538763
39.84352,10.35796686702945,0.1270973526202053
39.848108,10.351931800799292,0.1265690452159968
39.852704,10.346673984302637,0.1260388642815826
39.85729599999999,10.337696245301242,0.125540987766072
39.86188,10.33088392933758,0.1250143915151279
39.866472,10.320762386460247,0.1245322915981789
39.871076,10.31358351635415,0.1240187856200826
39.875672,10.308447884571642,0.1234808053115712
39.880264,10.30306788336084,0.1229523201795382
39.884852,10.301041250512336,0.12240808304944
39.88943999999999,10.298403694093103,0.1218900251006916
39.894024,10.299119506036176,0.1213560599365189
39.898612,10.299346579122664,0.1208424518995841
39.90320799999999,10.301538847267215,0.1203396002721405
39.9078,10.304919060736342,0.1198483769850601
39.91238,10.312674261729558,0.1193303391542789
39.91697599999999,10.324437896104431,0.1188012976354848
39.921564,10.34417425579399,0.1182252138273994
39.92615599999999,10.36227807275103,0.1176863976544155
39.930752,10.380426031156697,0.1171772080225615
39.93534,10.400416999906284,0.1166867124231421
39.939932,10.425315836485176,0.1161838364681181
39.944512,10.451114107511716,0.1156774431674109
39.9491,10.480265746900557,0.1151593078555076
39.953704,10.511504766061616,0.1146516309592668
39.958292,10.549284195784496,0.1140991428573612
39.96288799999999,10.590172624441388,0.1135468169699313
39.967468,10.635436040622375,0.1129764828885037
39.97206799999999,10.683153390718012,0.1124019455112296
39.97665599999999,10.729604752223564,0.1118506800132162
39.981256,10.776178298443265,0.1112985337253212
39.985844,10.824306344129964,0.1107503986390305
39.990444,10.874355443426108,0.1101910927613403
39.99504,10.927469400207633,0.1096088166534128
39.999636,10.982093715007537,0.1090021893202775
40.004228,11.036718029807432,0.1083999683035672
40.008816,11.09068727958798,0.1077982592215435
40.013412,11.138116118806696,0.1072458691187564
40.018,11.186933131329646,0.106673608400536
40.022592,11.234562198528026,0.1060905930416725
40.027176,11.27818283234475,0.1055158442326435
40.031768,11.313175675827432,0.1049770035173004
40.036356,11.345470215967174,0.1044535275941191
40.040944,11.376210256639908,0.1039334539585796
40.045536,11.40281967921684,0.1034252022550202
40.050128,11.42223362621259,0.1029557652904279
40.05470799999999,11.441481247045566,0.1024686365101028
40.05929999999999,11.453000511992148,0.1020089603547096
40.06388799999999,11.459611909109428,0.1015581495928265
40.068476,11.465279730330428,0.1010867088898155
40.07308,11.466572564027334,0.1006318568345507
40.077668,11.461036476285496,0.1001977826533765
40.08225999999999,11.450348151286065,0.0997799171255652
40.086848,11.431687100971946,0.0993947907784373
40.091436,11.407507259257793,0.0990372788202796
40.096036,11.379074614733696,0.0986904057178046
40.100628,11.349331840170883,0.0983335546039763
40.10522399999999,11.317257316407568,0.0979742284778549
40.109808,11.281052174548446,0.0976202190639952
40.114408,11.245213586831763,0.0972516154980729
40.118996,11.209985922685808,0.0968595546782324
40.12359599999999,11.177823116025234,0.0964402722950379
40.12818,11.149991155440125,0.0959788839531293
40.13277599999999,11.11868364177857,0.0955265862191702
40.137368,11.084800009488216,0.0950786414415251
40.141964,11.050261312178506,0.0946229990081179
40.14654399999999,11.010203823468764,0.0941920469051433
40.151136,10.97337751840717,0.093756462420867
40.15572399999999,10.937328463079083,0.0933186207908414
40.16032,10.898214550265614,0.092902162798147
40.164908,10.861798940795094,0.092472390891916
40.169496,10.828858884401011,0.0920297536653482
40.17408399999999,10.79939438108338,0.0915749277505424
40.17868,10.773405430842192,0.0911075249999246
40.18327599999999,10.751913652839246,0.0906200913164229
40.187876,10.73569629680804,0.0901146881843007
40.19246799999999,10.715270279415511,0.0896428947111621
40.197056,10.699341434261228,0.0891522797414511
40.201656,10.68370109998386,0.0886774534586267
40.206244,10.669493080459352,0.0882087490519236
40.210836,10.658271875154703,0.0877483094699417
40.215424,10.648238615174629,0.0873023561209888
40.220012,10.632852889957292,0.08690286634387
40.224608,10.621597782835757,0.08649917064349
40.229196,10.615250543543528,0.086092324126553
40.233784,10.610868499309367,0.0857005654692756
40.23837999999999,10.609473269295073,0.0853168844163896
40.242976,10.61077634262372,0.084924479896181
40.24757199999999,10.619274891533548,0.0845086521300562
40.252152,10.63304786241512,0.0840789560707827
40.256748,10.64849751747784,0.0836486888563642
40.261336,10.663580618398123,0.0832315503979692
40.26594,10.683283076270795,0.0827988903648634
40.270524,10.703762783876966,0.0823686084497459
40.275132,10.727718044559584,0.0819343549000554
40.279724,10.750407316652115,0.0815181036117365
40.28432,10.78119149877348,0.0810777777424237
40.288912,10.810587507590611,0.0806591439537414
40.293508,10.84742336141722,0.0802132172858876
40.298096,10.884014845815535,0.0797784713943977
40.30269199999999,10.91778584215676,0.0793577786014108
40.307288,10.953600076821573,0.0789262930451578
40.31188399999999,10.99571035261992,0.0784791399559683
40.316472000000005,11.03524450978947,0.0780367030990895
40.32106,11.076166840263252,0.077578663873334
40.325648,11.124240504869586,0.0770798282113251
40.33022799999999,11.17268072361836,0.0765708158356558
40.334824,11.219199888757691,0.0760736160836905
40.339416,11.259423012763486,0.0755963526415616
40.34401199999999,11.296048398978693,0.0751299170674235
40.348600000000005,11.334717023517484,0.0746550900892785
40.353184,11.375673255808154,0.0741618801699455
40.357764,11.404325916708675,0.0737163931451396
40.362352,11.431834773733256,0.0732817684213417
40.366944,11.454191393500238,0.0728538272771305
40.371532,11.47446063349501,0.0724129599785271
40.376136,11.49059925539398,0.0719723654722194
40.38072799999999,11.508126050597175,0.0715155120966266
40.385328,11.521400042990429,0.071063486352507
40.38992399999999,11.533241720630816,0.0706043765657849
40.394524,11.544550517965996,0.070135169225266
40.399128000000005,11.551239958348791,0.0696791335430003
40.40371999999999,11.553021530902283,0.0692192989653841
40.40832399999999,11.558767395388804,0.0687419780667212
40.412904,11.556951230151704,0.0682884895785336
40.417504,11.54655141602919,0.0678661321548364
40.42209199999999,11.534230548297236,0.06745016413744
40.426684,11.520599550526567,0.0670212211748431
40.431264,11.50888960636534,0.0665848794338172
40.43585999999999,11.500244519689494,0.0661325339287275
40.44045199999999,11.484159588004172,0.0656984990716821
40.445036,11.467175221871209,0.0652660209382934
40.449624,11.462983165984973,0.0647811024363048
40.45421999999999,11.4623447064407,0.0642666177210578
40.45880799999999,11.466325603848814,0.0637434026121675
40.463396,11.46904051266684,0.063231590411105
40.467984,11.470733802323076,0.0627243446719665
40.47258,11.470628223084011,0.0622201617904422
40.477172,11.468235036093075,0.0617330978328981
40.481764,11.46457586051205,0.0612577629012832
40.48635999999999,11.46247118439803,0.0607876618244237
40.49094,11.463309181055246,0.0603064701436346
40.495536,11.463780623570024,0.0598357932145295
40.500124,11.462331012475362,0.0593721923489413
40.50471999999999,11.471386103875554,0.0588804801549984
40.509312,11.48338386804698,0.0583785454172796
40.513904,11.500245358599084,0.0578629658956228
40.518512,11.517761914170542,0.0573543766982313
40.5231,11.53413466586606,0.0568548987893726
40.527688,11.550140863419143,0.0563687259986827
40.532284,11.5735869059817,0.055870294948729
40.536872,11.596011329382463,0.0553774540934982
40.541476,11.611162233936527,0.0549210371295278
40.54606799999999,11.620960673253334,0.0544939191187745
40.55067199999999,11.624995951741813,0.0540817594676094
40.555268,11.630830099125587,0.053667937160406
40.559872,11.639362549852306,0.0532532225997064
40.564452,11.643808523931853,0.0528535955653229
40.569048,11.64429020607837,0.0524644123399629
40.573628,11.64579350738668,0.052070635150009
40.578228,11.64063421341902,0.0516886341328481
40.582808,11.629345204480597,0.0513293313672052
40.58740399999999,11.616012957218588,0.0509764325000703
40.59199199999999,11.596550994985815,0.0506459943076051
40.596588,11.566217776115751,0.0503477088721737
40.601176,11.530776461436725,0.0500675154458174
