Time,Force,Position
33.141872000000006,9.480351394915372,0.1477324844862682
33.146460000000005,9.63915470997811,0.1469047473599477
33.151056,9.782480834004584,0.1460449727865889
33.155640000000005,9.89724894587114,0.145310129746139
33.160228000000004,9.99347500921605,0.1445793292076381
33.164835999999994,10.070303731040292,0.1438948334180027
33.169416,10.12578015591754,0.1433310140271746
33.17402,10.174461561172928,0.1427610130734967
33.178608,10.217047153274446,0.1422155699189168
33.183188,10.252759682488591,0.1416966655886149
33.187792,10.291859481881929,0.1410953143692211
33.192384000000004,10.3220429800643,0.1405493303033279
33.19698,10.34596433893003,0.140001381629585
33.201567999999995,10.358515462670145,0.1395213734779178
33.206168000000005,10.35891910155114,0.139107450238367
33.210756,10.349795515650452,0.1387688688245435
33.215352,10.341405038034637,0.1383977724197909
33.219936000000004,10.325774943389009,0.1380627376583498
33.224536,10.304704100608866,0.137747106051811
33.229119999999995,10.28317842078903,0.1373895030032457
33.233716,10.252614255044088,0.1370814161295627
33.238308,10.217508775612275,0.1367821731439045
33.242896,10.174674940294077,0.1365355835375851
33.247484,10.136049766337193,0.1362295485899381
33.252076,10.094193408732153,0.1359368979462088
33.256664,10.049350236907252,0.1356468344977795
33.261252,10.00740559640496,0.1352917798478438
33.26584,9.966071879473391,0.134907399104281
33.270439999999994,9.927025770293705,0.1344832533644371
33.275028000000006,9.891699583618756,0.134020028833124
33.279619999999994,9.847134683039036,0.1336414871173294
33.284216,9.802036902154104,0.1332522981887081
33.288796000000005,9.75975960932626,0.1328319189545212
33.293384,9.7205471739838,0.1323698111505174
33.297972,9.690695637260252,0.1318121976278929
33.30256,9.665585642203238,0.131203072627853
33.307156000000006,9.643051765775022,0.1305752235421955
33.311747999999994,9.62146146524308,0.1299657421741269
33.316344,9.599382425854555,0.1293746541443945
33.32093999999999,9.57542647430522,0.1288325062167269
33.325528000000006,9.557522194461129,0.1282463327112525
33.330119999999994,9.541460924960958,0.1276728719834109
33.334712,9.53402744579483,0.1270396145945519
33.339304,9.528681346400916,0.1264110925151272
33.343896,9.52799874540802,0.1257691488209766
33.34849199999999,9.531857458101989,0.1251207552583851
33.353076,9.540257484482822,0.1244680006678402
33.357671999999994,9.551399955655228,0.1238258311145373
33.362260000000006,9.560421145238529,0.1232433710308416
33.366856,9.569486476270455,0.1226928071811976
33.371452000000005,9.58717959763643,0.12208722366923
33.376048,9.613500509336443,0.1214320387928872
33.380636,9.642808235256318,0.1207814180882665
33.385232,9.672037917910677,0.1201673742964903
33.38982,9.698246884528285,0.1196224535791707
33.394412,9.726176676775667,0.1191032103083856
33.39899200000001,9.752884621881597,0.1186383861668969
33.403588,9.786910227282853,0.1181194615148573
33.408176,9.827764754122857,0.1175677639034701
33.412772000000004,9.872094834039306,0.1169992544806172
33.417364000000006,9.917490674566174,0.1164541267224041
33.421955999999994,9.96828312177893,0.1158773918246881
33.426548,10.018831199563396,0.1153188002395416
33.431128,10.070689407386576,0.1147731613439419
33.43572399999999,10.126267537714492,0.1142059536306415
33.440304,10.179924614432965,0.1136586693967923
33.444892,10.2324378872755,0.1131327415194905
33.449496,10.28368517152795,0.112630886887299
33.454088,10.34363828937996,0.1120599385409736
33.458676,10.404735211107903,0.1114783272063447
33.463272,10.46570994812171,0.1109088718477353
33.46786,10.520022089859538,0.1103978576570266
33.472455999999994,10.570858678520924,0.1099083949097263
33.477048,10.626803362991277,0.109374639120477
33.481644,10.686179459089448,0.1088013540233344
33.486232,10.742568740967751,0.1082293060393502
33.490832,10.800712750292726,0.1076236013055737
33.49542,10.8555033912554,0.1070366339079785
33.500020000000006,10.905263979674626,0.1064706912892299
33.504608000000005,10.949750146122108,0.1059315254248625
33.509208,10.99035006390208,0.1053963565126827
33.5138,11.025797744424455,0.1048856116575565
33.518396,11.054949383813296,0.1044091137939109
33.522992,11.08238019757236,0.1039141313241914
33.527584000000004,11.103881524340323,0.1034414004717032
33.53217600000001,11.128159197716752,0.1029268048637167
33.536772,11.151493295196902,0.1023930313842584
33.54136,11.17208494788548,0.1018465184401385
33.545956000000004,11.18290500636408,0.1013471341595073
33.550544,11.18971663146102,0.1008526011639678
33.555132,11.19072095428101,0.1003709905130134
33.559724,11.18976008204293,0.0998745427239456
33.564308,11.18262535338546,0.0994013514104144
33.5689,11.16764008412745,0.0989580735973011
33.57348,11.14840201205949,0.0985270001908227
33.578076,11.128508874972178,0.098090088474345
33.582656,11.101664631731976,0.0976755731569781
33.587248,11.069545966520026,0.0972792866040644
33.591843999999995,11.036117171269366,0.0968715744139126
33.59643199999999,11.004198734037084,0.0964357639373918
33.60103599999999,10.972646850947235,0.0959846612495719
33.605624000000006,10.939418283676238,0.0955350409071034
33.610228000000006,10.908477324157117,0.0950574622933134
33.614824,10.867931096590793,0.0946376447553848
33.619412,10.825586000129167,0.0942227875565654
33.624016,10.777233373410931,0.0938510351344455
33.628615999999994,10.723772650883728,0.0935180213836047
33.633212,10.673787481432967,0.0931712832853833
33.637792000000005,10.622536323392126,0.0928388588638351
33.642392,10.57181804565649,0.0925132457731697
33.64698,10.52853961293033,0.0921460908234204
33.65158,10.48747074469053,0.0917831578137974
33.65616,10.454618971193709,0.0913802182972906
33.66076,10.423077327735598,0.0909853310716368
33.665356,10.389248076525613,0.0906133169316936
33.669951999999995,10.355829520906688,0.0902538034405514
33.674544,10.330139321174158,0.0898734175003166
33.679140000000004,10.309356989270936,0.0894878619860584
33.68374,10.292583090749368,0.0891016770870006
33.68833600000001,10.278918191161813,0.0887190777459079
33.692932,10.267218486632324,0.0883524886329734
33.697528000000005,10.257728346589198,0.0879926125126283
33.702116000000004,10.251225020765933,0.0876415409540739
33.7067,10.26013426526683,0.0872282928935321
33.711288,10.272929758435234,0.0868202765004058
33.71588800000001,10.290100239127735,0.0863998636687281
33.720468,10.315609999277358,0.0859417264875236
33.725064,10.338709966960955,0.0855138179188435
33.729656000000006,10.370926463835175,0.0850505962107852
33.734247999999994,10.408295197966993,0.0845796450451421
33.738844,10.44031146686155,0.0841590014332856
33.743432,10.475148223813198,0.0837268318856104
33.748024,10.51100659992664,0.0832921514044787
33.75261999999999,10.553283201887764,0.0828356388488371
33.757204,10.598013737763536,0.0823777929970212
33.761796000000004,10.64364370808696,0.0819183930248199
33.766392,10.68735262480094,0.0814732656164031
33.770984,10.732083160676714,0.0810240636073635
33.775576,10.77362665435296,0.0806023367352091
33.780168,10.814026344153271,0.0801950067657233
33.784760000000006,10.853648784220075,0.0797880218638492
33.789344,10.893515593715176,0.0793741460987407
33.793944,10.933093892333352,0.0789452943433342
33.798524,10.966498334532142,0.0785355237809228
33.80312000000001,11.001413134749308,0.0781051679058362
33.807711999999995,11.03452906607118,0.0776812282633804
33.812316,11.063925074888312,0.077274706727272
33.816900000000004,11.09675249533326,0.0768382070492648
33.821496,11.126348732130058,0.0764034289079588
33.826083999999994,11.15205872025934,0.075962540997824
33.83068,11.179279066407002,0.0754999437551438
33.835268,11.206865966697102,0.0750288595392399
33.839864000000006,11.232531813377756,0.0745696999414218
33.844452000000004,11.251124369191375,0.0741254506159492
33.84904,11.275313759670544,0.0736379597008618
33.853628,11.300891323453948,0.0731347074398211
33.858208000000005,11.324137138036845,0.072626523180335
33.862804,11.343496703952225,0.0721093753284753
33.867396,11.364733182028422,0.0715595716847825
33.871992000000006,11.384903899494198,0.0709913896616058
33.876580000000004,11.407606594140145,0.0703989307555676
33.88118,11.43055365821438,0.0698003500851847
33.885768,11.447615376746144,0.069227341710913
33.89036,11.46120154220146,0.0686567492285934
33.89495599999999,11.471067785152044,0.0680979596759477
33.899544000000006,11.48052333251156,0.0675249164148287
33.904152,11.486625511508777,0.0669495694767093
33.908736000000005,11.489907202448906,0.0663843355366271
33.913324,11.489468970884296,0.0658290009915806
33.917919999999995,11.48813130487204,0.0652746947189347
33.92250799999999,11.482174281907398,0.0647297010473075
33.927104,11.469676848380931,0.0642010941024862
33.931684000000004,11.45268224261623,0.0636779504281425
33.93628,11.436709256013314,0.0631476409083205
33.94086,11.414850923867933,0.062640870840887
33.94545599999999,11.38710724618008,0.0621548318835679
33.950044000000005,11.359363568492228,0.061666761450253
33.954648000000006,11.332152771109586,0.0611867603603399
33.959232,11.301999300955709,0.0607158961342419
33.96382800000001,11.27160146137354,0.0602512149934617
33.968408,11.235318276248902,0.0598060912547306
33.973004,11.198380026104909,0.0593526403209222
33.977608000000004,11.167082752075093,0.0588841501888674
33.982204,11.140038280855224,0.0584174155443637
33.986791999999994,11.115037047958944,0.0579401015233024
33.991384,11.08889201118672,0.0574689390883846
33.995976,11.065200908329151,0.0570010086068736
34.000564,11.039710936576288,0.0565325853131547
34.005151999999995,11.016674898738074,0.0560683604569219
34.009739999999994,10.993272306757428,0.0556138700161464
34.014336,10.97346745256737,0.0551545039663863
