Time,Force,Position
32.950044,9.79432984374452,0.1528820090029885
32.954632,10.045100053498874,0.1519187312373575
32.959228,10.2813264084815,0.1508532892197999
32.963816,10.49000613083426,0.1498322359587012
32.96842,10.673470969757664,0.148841525772741
32.973000000000006,10.82702352503381,0.1479562511957239
32.977596,10.95311773057735,0.1471490615586408
32.982176,11.052296706325231,0.1465270020373835
32.986776,11.145457912184762,0.1459037623710497
32.991356,11.235910575069603,0.1452251185821532
32.995956,11.308041896675949,0.1446845390698382
33.000548,11.373300155394915,0.1441713037206081
33.005143999999994,11.430086710310876,0.1436627045757647
33.009736,11.478768115566268,0.1431533006811314
33.014332,11.516401698389853,0.1426676228716648
33.01893999999999,11.543886893229285,0.1421963201916613
33.023532,11.560446450351057,0.1417428218188334
33.02813200000001,11.566857619488667,0.1413009587274604
33.032732,11.56025577113641,0.1408723971103136
33.037324000000005,11.53937491670419,0.1404767820852318
33.04192,11.50936729344961,0.1400773206048673
33.046508,11.474485704182612,0.1396461708710236
33.051092000000004,11.430932183132944,0.1392452201324693
33.05568,11.385413467025211,0.1388343159784637
33.060275999999995,11.334331818068817,0.1384420752688934
33.064868,11.287659058453404,0.137958822451939
33.06946,11.24040927708415,0.1374395337537924
33.074052,11.188373812599744,0.1369364651899947
33.078644000000004,11.132818653590256,0.1364274142859137
33.08323600000001,11.074154495646765,0.1359235121234178
33.087824000000005,11.017655760741002,0.1353867262187084
33.09241599999999,10.959358156939944,0.1348600822073801
33.097007999999995,10.901671476709616,0.1343052012208059
33.1016,10.837688755345754,0.1337961248921598
33.106188,10.774483283715393,0.1332804431894282
33.110784,10.713198865694473,0.1327409186489234
33.115372,10.655023446607563,0.1321872149270568
33.11996799999999,10.597547233988635,0.1316580992981571
33.124559999999995,10.541547477571198,0.131151212812585
33.129152,10.49086628457413,0.1306295468503792
33.133744,10.44718033917858,0.1300845444483566
33.138344,10.402028177213278,0.1295949164539662
33.142924,10.359251905897114,0.1291224382278217
33.147528,10.322571447734823,0.1286353126697895
33.152120000000004,10.29546235580285,0.1281114509846466
33.15672,10.265621058711044,0.1276666826838726
33.161312,10.240976140325465,0.1272163883017099
33.1659,10.22242703509375,0.1267542250954149
33.170492,10.20948500415933,0.1263009796289476
33.175087999999995,10.19843012501746,0.1258886135033563
33.17967599999999,10.189506767096434,0.1255080341581298
33.184272,10.18577978788163,0.1251234866938112
33.18886,10.18586101406882,0.1247627507220448
33.193448,10.19293748785753,0.1243864332796963
33.198035999999995,10.205987590085964,0.1240069412645616
33.20262399999999,10.224766951325837,0.1236357381956363
33.207212000000006,10.242857345729462,0.1233224629182048
33.211803999999994,10.272151649095926,0.1229464544588443
33.2164,10.30934063451156,0.1225517523933252
33.220988,10.3529919872235,0.1221398915424744
33.225587999999995,10.397464731117571,0.1217586922344338
33.23017599999999,10.447622592574447,0.1213590049342808
33.234772,10.505142255775285,0.1209350541657042
33.239355999999994,10.56205099540539,0.1205393016312542
33.243936,10.61744937701712,0.1201788225343081
33.248544,10.677344930867086,0.119789851613611
33.253136000000005,10.736873930574616,0.1194191801723494
33.257740000000005,10.797424549443944,0.1190425865960332
33.262331999999994,10.857197918579766,0.1186712932632461
33.266924,10.919381080181614,0.1182672759689042
33.27152,10.98295241508769,0.1178421894238271
33.276112000000005,11.047911923298,0.1173962281307799
33.28070399999999,11.11360453979318,0.1169268159301785
33.285292000000005,11.175166538192563,0.1164750397849083
33.289892,11.235907145409811,0.1160039431689256
33.29448,11.296603611178435,0.1155144205756605
33.29908,11.361342412145603,0.114962899592065
33.303672,11.417575607492877,0.1144539297203989
33.308271999999995,11.46783517440042,0.1139471779398082
33.312856000000004,11.50905625538286,0.1134704858881526
33.317452,11.54712419598266,0.1129745093754844
33.322044,11.582938430647475,0.1124549704999866
33.326632,11.612779036872563,0.1119359742935445
33.331219999999995,11.641920436629665,0.1113906590280348
33.335812,11.667009261556483,0.1108290152358297
33.340399999999995,11.68947782640588,0.1102554331388032
33.344987999999994,11.707527262282548,0.109676914483236
33.34958,11.71707109253932,0.1091285295689976
33.354176,11.721296359375724,0.1085790501049695
33.358764,11.722901366134703,0.1080154602773401
33.363352,11.721886112816255,0.1074374921073894
33.367944,11.71632954581094,0.1068573973114547
33.372536000000004,11.708030534014055,0.1062665280401898
33.377128000000006,11.697233446853888,0.1056534904957786
33.381712,11.678585819093184,0.1050706313155935
33.386292000000005,11.651554770426724,0.1045100887341684
33.39088399999999,11.617572615607376,0.1039747497451188
33.395475999999995,11.582935395768672,0.1034328927918113
33.400072,11.546743676462963,0.1028881841458941
33.404667999999994,11.513616814642631,0.1023150735374466
33.409256000000006,11.476770030317567,0.1017603086836444
33.413852,11.436203323487764,0.1012240357601809
33.418448000000005,11.393837747762664,0.1006928237154144
33.42303999999999,11.347097184513473,0.1001748911440617
33.427632,11.30113387099778,0.0996536158229369
33.432224,11.253005134444354,0.0991503158281136
33.436812,11.208229766253233,0.0986364089819727
33.44142,11.16987262390979,0.0980865126605906
33.446008,11.137444968557444,0.0975191228244985
33.450607999999995,11.10583870438723,0.0969762965323498
33.4552,11.074032212237352,0.0964660349332807
33.459796000000004,11.046889218488484,0.0959565041387044
33.46438,11.018646562312307,0.0954833032656858
33.468972,10.997643523165946,0.0950046359188074
33.473572,10.987966577696566,0.0944895123348481
33.478171999999994,10.982708761199907,0.093984042109646
33.482764,10.985834365608998,0.0934636437551354
33.487351999999994,10.994112207275682,0.092930961286792
33.49194000000001,11.009629665972184,0.092397238934634
33.496528000000005,11.028011754174402,0.0918771693118499
33.501116,11.055798882444162,0.0913376899915698
33.505708000000006,11.090825627743737,0.0907988147768276
33.510304,11.133991424520763,0.0902582895045368
33.514892,11.18427465361346,0.0897228044546465
33.519488,11.238199761945378,0.0892029073073468
33.524076,11.299731041449542,0.0886743136892124
33.52867199999999,11.366292373497156,0.0881453393176973
33.533256,11.439682626983512,0.087612060715187
33.537836000000006,11.517203498565676,0.0870844340338451
33.542427999999994,11.597300488776636,0.0865558323963508
33.547024,11.681117401492331,0.0860148344716132
33.551612,11.767510432836827,0.0854764121036014
33.556208000000005,11.863142178086092,0.084907802494266
33.560796,11.959428988354714,0.0843530362256153
33.565392,12.05162932197616,0.0838327772143089
33.569979999999994,12.145628524492905,0.0833103453823061
33.574576,12.235785619790764,0.0828126358654895
33.579168,12.327497214555628,0.0823250940691057
33.583760000000005,12.419697548177073,0.0818312806317609
33.588344,12.511897881798522,0.0813433587518537
33.592932,12.598945978162376,0.0808691011315547
33.59752,12.686604998096954,0.0803842669564807
33.602112,12.772298822973465,0.0798921259330902
33.606704,12.85733758283062,0.0794003027500729
33.611296,12.940166778201414,0.0789046124877444
33.615896,13.01898754019055,0.0784118258256111
33.620488,13.090857196026796,0.0779336914706468
33.625080000000004,13.153854692100706,0.077478348302823
33.629668,13.209901082021728,0.0770369916542994
33.634256,13.260917419399297,0.0765989981858619
33.638844,13.30960200757636,0.0761596008820465
33.643436,13.351457674314675,0.0757279819422577
33.648028000000004,13.384563366004809,0.0753123426890887
33.652616,13.407364583179747,0.0749059602595586
33.657196000000006,13.427545540277263,0.0744806728102777
33.661792,13.445761302316706,0.0740417131516945
33.66638,13.462911303745727,0.0735869002457659
33.670956,13.47053408039306,0.0731416699022556
33.675552,13.465198220630883,0.0727301480933978
33.680144000000006,13.453932873877614,0.0723202589531463
33.684732000000004,13.4399692237814,0.0719146812534372
33.689328,13.415090175599262,0.0715316410779858
33.693915999999994,13.385469585750595,0.0711631917667107
33.698512,13.348365009443825,0.0707907604605982
33.703092000000005,13.311626987279494,0.0704072951539482
33.707692,13.270391792876923,0.0700298738977033
33.71228,13.226580479845556,0.069651126164164
33.71688,13.180970297918892,0.0692731173343145
33.721464000000005,13.132783997363427,0.0688939233278825
33.726068000000005,13.086518750417412,0.0685064941440992
33.73065999999999,13.03857681929024,0.068116752827249
33.735256,12.990634888163074,0.0677244656555268
33.739848,12.940894088140606,0.0673322877662313
33.744443999999994,12.89732714453753,0.0669315144075203
33.74903200000001,12.851350408468427,0.0665478555292766
33.753628,12.805129302971034,0.0661692166943157
33.758216,12.758541643331204,0.0657990738807738
33.762812000000004,12.716451155929612,0.0654201820336937
33.767404000000006,12.682944317413432,0.0650139124708986
33.772,12.651236347792556,0.064603066376641
33.776588,12.619528378171667,0.0641900971723531
33.78118,12.589497092731945,0.0637746272008953
33.785772,12.55856637284456,0.063358413906252
33.790364000000004,12.534342389681786,0.062945709301312
33.79496,12.506809179605336,0.0625523607194154
33.799547999999994,12.481852088157684,0.0621576102052124
33.804148000000005,12.464090472291211,0.0617539156915314
33.808736,12.448782790339394,0.0613527516235922
33.813332,12.43220911979749,0.0609604957940899
33.817924,12.416657068417376,0.0605634358797696
33.822516,12.404458385399568,0.0601696934854975
33.827124000000005,12.393569832420471,0.0597870668736533
33.831712,12.38411359419423,0.0594116588415383
33.836304000000005,12.375678975129787,0.0590323563242063
33.8409,12.37071990914179,0.0586523783351404
33.845488,12.366538092887296,0.0582751394308367
33.850092,12.360313038309211,0.0579055208734385
33.854684,12.354743048750487,0.0575420936830077
33.859283999999995,12.35060537394462,0.057188460237369
33.86388,12.348022198605756,0.0568402025444974
33.868484,12.351857249114572,0.0564847546765213
33.87306400000001,12.365952632689954,0.0561133560107469
33.877664,12.384423003789427,0.0557431041559938
33.88224399999999,12.400317256260104,0.0553722772736748
33.88684,12.419031996787869,0.0549963700986896
33.891436000000006,12.4363585640114,0.0546345280374099
33.896036,12.450620273749555,0.0542860304884864
33.90062,12.466147972077795,0.0539274245614005
33.905216,12.48833826568201,0.0535557313899267
33.909808000000005,12.510939254877286,0.053198656492692
33.914404,12.524834410473,0.0528613069369543
33.918992,12.53807450104936,0.0525173303996478
33.923588,12.555034514130458,0.0521692572660718
33.928176,12.56700861611673,0.0518363522605791
33.932764,12.576162230045917,0.0515074455069122
33.937356,12.578286694556695,0.0511996115853067
33.941956,12.577468486296231,0.0508976212552951
33.946544,12.569621128617367,0.0506166452908992
33.951124,12.551391253157794,0.050350723575982
33.955712,12.525354978546307,0.0501023169299435
33.96029600000001,12.488691816725815,0.0498760939188994
33.964887999999995,12.43858127963924,0.0496756703057174
33.96947599999999,12.375267736714864,0.0494930526682896
33.97406,12.306068848248016,0.0493230404744477
33.978652000000004,12.228286310895758,0.0491661863333496
