Time,Force,Position
34.659104,8.329527412728403,0.1550652702504044
34.663684,8.53205057500358,0.1544633005779135
34.668288,8.714022352250414,0.1538514912477706
34.672875999999995,8.87303295200288,0.1532777707687364
34.677476,9.012225275011875,0.1526542922614303
34.68206,9.132987494581636,0.1519442266881745
34.686651999999995,9.237895729340956,0.1511107533273002
34.69124,9.31661160295775,0.1503431011105043
34.695836,9.367668898862275,0.1497015218549695
34.700424,9.40370384077023,0.1490645324085141
34.705008,9.423783092417075,0.1485090291101387
34.709588,9.43433511928223,0.1480472502653427
34.71418,9.445175657024304,0.1476048742956463
34.718768,9.451563163976768,0.1472404226645097
34.723355999999995,9.459671496559013,0.146892745298479
34.727948,9.469456513322406,0.1465298854105929
34.732536,9.477975541495717,0.1461964090038792
34.737128,9.492379915211492,0.1457837826036549
34.741716,9.504618865889537,0.1454090106792543
34.746308,9.522665118844534,0.1449947654670799
34.750896,9.547662477952423,0.1445190353584231
34.755484,9.564731253194251,0.1441522706104599
34.760092,9.580656224560146,0.1438076424891239
34.764683999999995,9.60299942177372,0.1433968665534795
34.769271999999994,9.623587891540623,0.1430376223942998
34.773868,9.638457341927833,0.142780056811374
34.778456,9.65055044570658,0.1425858869407953
34.783055999999995,9.667795786742923,0.1423524725020333
34.787651999999994,9.692603157502887,0.1420349824679495
34.792244,9.719087212444004,0.1417084456149436
34.796831999999995,9.74496034381439,0.1414094979560028
34.801432,9.775086277994722,0.1410803107045517
34.806012,9.806233831336847,0.1407384905626164
34.810612,9.845965033564394,0.140302543743586
34.815203999999994,9.887372919973082,0.1398564570839198
34.819799999999994,9.933766717476594,0.1393503298667009
34.824392,9.977217842208873,0.1388805679424878
34.828987999999995,10.019402978351064,0.1384402116573894
34.833575999999994,10.06236536422676,0.1379985708540508
34.838172,10.09956458927413,0.1376248671614355
34.84276,10.133166076530909,0.1372865077324192
34.847356,10.17289727875845,0.1368694361562176
34.851944,10.213117219842571,0.1364338928366149
34.856531999999994,10.246386054773804,0.1360544800563387
34.86112,10.278589129094614,0.1356616606854065
34.865711999999995,10.310625877252653,0.1352442055453969
34.870304,10.342496299247912,0.1348049682040432
34.874896,10.365738930909137,0.1344287329534833
34.879487999999995,10.382152641131611,0.1341005557241863
34.884068,10.391737429915342,0.1338180082392537
34.888659999999994,10.401278077250442,0.1335072021789609
34.893252,10.40693247591803,0.1332096513062765
34.897839999999995,10.41037731009926,0.1329144931257556
34.902448,10.403028930908714,0.1327098992843481
34.907036,10.39228304190724,0.1324965389342006
34.911632,10.37662928507646,0.1323072011420438
34.91622,10.360931386797056,0.1320891681936531
34.920807999999994,10.337749502059548,0.1319118010660822
34.925411999999994,10.313379671997472,0.1317230454570584
34.930004,10.286267397143826,0.131527522174297
34.9346,10.257967176965614,0.1313202170892833
34.939187999999994,10.226557957853393,0.1311203666816075
34.943791999999995,10.189874316769428,0.1309584234183803
34.94838,10.151880545646751,0.1307897190782664
34.95298,10.112210090342922,0.1306288917055555
34.957567999999995,10.07380562362918,0.1304437596483911
34.962171999999995,10.033480103305996,0.1302770081254187
34.966764,10.000716612706432,0.1300350965107659
34.971352,9.971550859897455,0.1297629797623577
34.975944,9.946760094612578,0.1294588208463076
34.98054,9.922502209632912,0.1291619858937727
34.985128,9.89853283553016,0.1288828111634793
34.98972,9.873830353142536,0.1286337879286553
34.994311999999994,9.855301727174304,0.1283382690199882
34.998904,9.840781534587729,0.1280265995805702
35.003491999999994,9.829125971506867,0.1277169951378851
35.00808,9.81992434234066,0.1273959417295727
35.012671999999995,9.81718508047076,0.1270473027074996
35.017267999999994,9.81587813335372,0.126700209185835
35.021856,9.820666999390552,0.1263423687041382
35.026447999999995,9.826277256609512,0.1260114522184943
35.031032,9.83348615474411,0.1257066873050923
35.035612,9.847157420175014,0.1253761014183587
35.040208,9.866147249026286,0.1250378343629825
35.044796,9.886980088221485,0.1247149274639346
35.049384,9.910188818065816,0.1244170974228312
35.053976,9.937405981291803,0.1241061276808664
35.058567999999994,9.961602428481038,0.1238627064174397
35.063168,9.987764070728344,0.1236319332837661
35.067752,10.018178515785596,0.1233802123691322
35.07234,10.051824144491004,0.1231191894183373
35.076936,10.089067510987002,0.1228329419552717
35.081523999999995,10.133750722492476,0.1224864460162808
35.086132,10.179088999017306,0.1221461930719904
35.090716,10.223571982543117,0.1218432682664558
35.095316,10.268710031088284,0.1215465023730121
35.099903999999995,10.31695707856746,0.1212481976662055
35.104512,10.370845102160812,0.1209075876270386
35.109095999999994,10.426165440507022,0.1205724239661539
35.113696,10.48107508326217,0.1202271838888996
35.11828,10.54097063711214,0.1198359760335939
35.122876,10.602909429285695,0.1194272043375742
35.127464,10.663171537278105,0.1190281268150953
35.132051999999995,10.728541741079477,0.1185844340768927
35.13664,10.798242790956314,0.1180951541540817
35.14124,10.867899699384523,0.1175833519380499
35.145827999999995,10.935102673898085,0.1170825407637819
35.150416,11.004837625591811,0.1165457317520856
35.155004,11.07236301279918,0.1160121747302738
35.1596,11.138578269967836,0.1154797178056256
35.164192,11.20732550431666,0.1149189266543624
35.168775999999994,11.27476260862677,0.1143561024309272
35.173372,11.336270225945782,0.1138230784034382
35.177952,11.399166016569026,0.1132725028181909
35.182544,11.463283654333727,0.1126820545713002
35.187132,11.525924835896944,0.112067917964603
35.19172,11.582103650163845,0.1114715349257517
35.19632,11.633496781315593,0.1108915045204946
35.200908,11.683046902123415,0.1102998906844758
35.205492,11.73267506619676,0.1096838512793048
35.210088,11.774819243811994,0.1090929928713203
35.214676,11.80972380439742,0.1085164327205915
35.219268,11.84531733181909,0.1078924929527008
35.223859999999995,11.869951319706214,0.1073078300484117
35.22846,11.886979136421091,0.1067499259917092
35.233039999999995,11.901142323630248,0.1061865511320429
35.23764,11.91472848908557,0.1055908682511477
35.242228,11.923118275834664,0.1049896273081814
35.246835999999995,11.925167880001595,0.1043924905834637
35.251428,11.919855682424574,0.1038091204720549
35.256024,11.901662891703564,0.1032687425895066
35.260608,11.879583852315038,0.1027276281861461
35.2652,11.859259540373184,0.1021525220945032
35.2698,11.835293349192106,0.101569267831793
35.274392,11.80744090934352,0.1009848992702996
35.27898,11.77803397002793,0.100398864969969
35.283576,11.750137388730716,0.0997858056281285
35.288155999999994,11.71643350515655,0.0991813169389921
35.292739999999995,11.678599003486578,0.0985812574467884
35.297328,11.638066198473664,0.097990954881676
35.301924,11.601375500679636,0.0973745079339817
35.306515999999995,11.569670713980427,0.0967197758824768
35.311104,11.534534515653402,0.0960986810790343
35.3157,11.50017556705988,0.0954735633395842
35.320288,11.468514921809296,0.0948345995353263
35.32488,11.435954842111066,0.0941963395062002
35.329468,11.40188440439446,0.0935793409544808
35.334056,11.370023531164216,0.0929652504128278
35.338671999999995,11.348955871305744,0.0923078552105104
35.343259999999994,11.33291826399072,0.0916393943841855
35.347871999999995,11.325264077581451,0.0909537904968059
35.352459999999994,11.320963259534482,0.0902616716832255
35.357048,11.314252649021489,0.0895968471377468
35.361644,11.305787311061826,0.0889624407252177
35.366232,11.300430972036173,0.0883313750899251
35.370828,11.293564274992145,0.0877224805384502
35.375404,11.291727630491565,0.0871088646565485
35.380008,11.294554484391998,0.0864993674285414
35.3846,11.30331082528353,0.0858806286411323
35.389199999999995,11.312477861766126,0.0852752827456718
35.393775999999995,11.321033974677997,0.0846918050378091
35.398376,11.327835360143194,0.0841408064632115
35.40296,11.341177156170223,0.0835636019533078
35.407556,11.359426820026554,0.0829863041563472
35.412136,11.378087179473953,0.0824236688738852
35.416728,11.400511602874715,0.0818728924243064
35.421319999999994,11.432296924894397,0.0812878508065544
35.425915999999994,11.464492942505135,0.0807177289334282
35.430504,11.486839322640384,0.0802034470371189
35.435088,11.512661255852075,0.0796868860096889
35.43968,11.538605373777916,0.0791691439832502
35.444272,11.568147229494343,0.0786459452503818
35.448856,11.600265203839571,0.0781211497646166
35.453447999999995,11.64096682707021,0.0775637827744883
35.458043999999994,11.67925865783483,0.0770324807415623
35.462632,11.720903856961746,0.0765008441712249
35.467228,11.756541525832043,0.0760047925576304
35.471816,11.793445183292429,0.0754976729707804
35.476403999999995,11.82932722159102,0.0750000797302048
35.480996,11.868929182394348,0.074493518465448
35.485588,11.910574381521265,0.0739783856867346
35.490192,11.955162253419417,0.0734524417830711
35.49478,11.993864779775098,0.072956787535682
35.499368,12.030890621949627,0.0724639009794737
35.503964,12.06816083355245,0.071965515810149
35.508556,12.106941403173646,0.0714510315003238
35.513147999999994,12.135994520033496,0.0709802572834311
35.51774,12.168356863807016,0.0704889533710677
35.522336,12.20864779144659,0.0699632220997391
35.526928,12.24521879658143,0.0694516542424378
35.531524,12.280890367268618,0.0689443312919967
35.536108,12.310920961841628,0.0684564551931641
35.540707999999995,12.341073741128788,0.0679675366432492
35.5453,12.362520686816383,0.0675124858800199
35.549896,12.385355805808212,0.067042394920477
35.554492,12.407780229208976,0.0665610988537264
35.559088,12.433880433665848,0.0660484224642527
35.563675999999994,12.461779507018017,0.0655367575587767
35.568264,12.487757526760744,0.0650325878884914
35.572852,12.507195135941643,0.0645451889526015
35.577448,12.523934441779602,0.0640631647082414
35.582035999999995,12.537731074846326,0.0635931112897595
35.58662,12.556391434293722,0.0631084251019411
35.591207999999995,12.57619559761706,0.062617438534977
35.595796,12.59792081454984,0.062123172428059
35.600387999999995,12.613760685940148,0.0616502779783014
35.60497599999999,12.63380921869178,0.0611566708048641
35.609568,12.650015644224524,0.0606760355566702
35.614155999999994,12.663279396986036,0.0602073941480928
35.618748,12.674744280852252,0.0597407483511431
35.623344,12.686209164718466,0.0592751634530955
35.627931999999994,12.696652429422889,0.0588129333649508
35.632524,12.703253586908428,0.0583607981274834
35.637111999999995,12.714063405755288,0.0578888224720102
35.641712,12.726916462925733,0.0574105385621551
35.646308,12.738747900934383,0.0569371608734559
35.650896,12.748047361762866,0.0564865075534616
35.655488,12.754526334534262,0.0560429330366666
35.660076,12.762149111181596,0.0555924999220108
35.664676,12.77336962561952,0.0551392889072375
35.669267999999995,12.78434577062915,0.0546930120095052
35.673863999999995,12.79826458841002,0.0542397969388788
35.678456,12.805276441486622,0.0538069723076592
35.68306,12.810122871525495,0.0533857442222684
35.687652,12.808062336860102,0.0529835759025074
35.692248,12.805879617480564,0.0525833434063036
35.696839999999995,12.800265486473211,0.0522042382152299
35.701432,12.794162616609272,0.0518381413611023
35.706032,12.783073835650516,0.0514857628282676
35.710624,12.772762304425257,0.051135763186913
35.715216,12.761184784609911,0.0507958281403514
35.719808,12.751161764261578,0.050461178184586
35.7244,12.741915993646742,0.0501285355864762
35.728984,12.72527451947106,0.0498262064214632
35.733571999999995,12.698539038391589,0.0495542857013667
35.738172,12.669149395417802,0.0493051111863681
35.74276,12.6337522221874,0.0490719436494696
35.747356,12.591203714824442,0.048861665978322
35.751948,12.543669296366664,0.0486637370994918
35.756539999999994,12.492292770690002,0.0484714479470733
35.761136,12.43593033391852,0.0482914130389428
35.765724,12.367919390776244,0.0481338840248767
35.77032,12.296066340415084,0.0479813143233205
35.774908,12.217184140635514,0.0478480390135726
35.779495999999995,12.13703595226586,0.0477235881669046
35.784091999999994,12.052679102534883,0.0476152677420554
35.788684,11.961537472813797,0.0475198576842587
35.79328,11.863078182797372,0.0474258507427857
35.797875999999995,11.761554035295571,0.0473408345450777
35.802471999999995,11.651201869480069,0.0472755441859796
