Time,Force,Position
35.576404,9.158673965016956,0.1489320058137742
35.580984,9.313954402632948,0.1484460213516841
35.585576,9.447417466630508,0.147954828040076
35.590156,9.559517994049338,0.1475096891799674
35.594756,9.654430744433862,0.1471045537545086
35.599344,9.737474281204449,0.1467198711888864
35.603948,9.820219067466375,0.1462282866031888
35.608532,9.903164081707969,0.1457017610247873
35.613124,9.977725675043812,0.1452495278443086
35.617716,10.048278834997998,0.1448255646617622
35.622312,10.115600811304027,0.1444241528999007
35.6269,10.185943503646811,0.1439545071589592
35.631496,10.249290948388076,0.1435222962082817
35.636088,10.30625406909855,0.1430988259901473
35.64068,10.359653353835322,0.1426499139071854
35.645268,10.402215283751689,0.1422745951766947
35.649856,10.439170139370768,0.1419025357965334
35.654444,10.467330878493032,0.1415755458999655
35.659036,10.493604465822743,0.1412104618007186
35.663624,10.517213651626404,0.1408111358170205
35.6682,10.5319065362191,0.1404616522195883
35.6728,10.546677464077312,0.1400794306995099
35.677388,10.55576327437272,0.1397263554604443
35.68198,10.56427206291429,0.1393392664825885
35.686576,10.57052714552087,0.1389289920122021
35.69116,10.571830218849518,0.1385204689249241
35.695756,10.563850436824769,0.1381730242129537
35.700348,10.551207156399004,0.1378415783331731
35.704952,10.533656008143934,0.1375349991260793
35.709536,10.512707350077935,0.1372205907769771
35.71412,10.492736169725108,0.1368650344809707
35.718724,10.464381568466523,0.1365599651927173
35.72332,10.433162337702226,0.1362536297143838
35.727916,10.39989986861434,0.1359711915652369
35.732504,10.364716345917014,0.1357074015474928
35.737104,10.336439787923952,0.1353630834470541
35.741692,10.303177318836068,0.1350756543942249
35.746292,10.272324642214205,0.134745719796469
35.75088,10.240694715858842,0.1344167156922292
35.75548,10.206122116732242,0.1341191436417572
35.760076,10.174247820948588,0.1337971095844864
35.764672,10.142373525164931,0.1334732725394166
35.769256,10.119982312714336,0.1330522197959568
35.773852,10.095425677226013,0.1326601983383318
35.778452,10.067681999538156,0.1323092964198875
35.783048,10.037406344670137,0.1320022706820858
35.78764,10.011916372917272,0.1316749760466102
35.79224,9.990679203974354,0.1313198081198982
35.79682,9.974838641717328,0.1309186744763797
35.801404,9.963006512841956,0.1305002950975253
35.805988,9.949541841234062,0.1301196320835073
35.810584,9.939963418293676,0.1297262777346988
35.815168,9.935048493754309,0.1293196027770836
35.819756,9.93475292616732,0.1288715047844341
35.824352,9.938832346104428,0.1283927515130486
35.82894,9.9451213305279,0.1279166043446564
35.833524,9.959383040266053,0.1273811976719829
35.83812,9.97663156422407,0.1268447422357996
35.842708,9.997111271830242,0.1262986387524965
35.847308,10.02106653251286,0.1257302226709384
35.8519,10.047353542395982,0.1251587780423468
35.856488,10.072907443994232,0.1246179422858634
35.861084,10.094130499517018,0.1241390460960757
35.86566,10.119850727278044,0.1236290318460701
35.870256,10.153788049782042,0.1230568219626336
35.874836,10.193244163686074,0.1224422684819106
35.879436,10.234987885341983,0.1218006994344075
35.884024,10.270846261455423,0.121218326792744
35.88862,10.30633808342643,0.1206529651656561
35.893208,10.34080828623564,0.1201017329251244
35.897808,10.375400673758998,0.1195457950972768
35.902392,10.415345526519614,0.1189288563294187
35.906984,10.454757498975018,0.1183081343095115
35.911572,10.492370602535129,0.1177042424119004
35.916168,10.528551391342376,0.1171025523779387
35.920756,10.557536704568443,0.1165509121997126
35.925352,10.58545625718409,0.1159871848700087
35.92994,10.61128843002752,0.115419752965708
35.934524,10.634911038384592,0.114854530791622
35.939104,10.66004400476004,0.1142641779883485
35.943688,10.683089591363268,0.1136696219321196
35.94828,10.709810959022608,0.1130234620801995
35.95286,10.735999446376736,0.1123697929146792
35.957452,10.75589189259733,0.1117553440137586
35.962036,10.76997703654097,0.111163712517664
35.966624,10.775967270455782,0.1106194102178145
35.971216,10.777460332132357,0.110102960456706
35.975804,10.785205293493831,0.1095228739663182
35.980408,10.793927732568472,0.1089073810909418
35.985004,10.803383279927996,0.1082658786469207
35.989592,10.81537080446768,0.1075884968101804
35.994188,10.82057354901725,0.1069663466650441
35.99878,10.821279121328578,0.106368238231387
36.00338,10.822229063068198,0.1057620459422854
36.007972,10.823056820093672,0.1051614621313269
36.012568,10.82719380403282,0.1045225060435589
36.017156,10.829409734362525,0.1038989604941262
36.021756,10.831625664692227,0.1032756337045171
36.026344,10.831143291678991,0.1026657626854671
36.030936,10.828617680342164,0.1020759221751933
36.03552,10.827113688167133,0.1014776559519302
36.040116,10.82176758877322,0.1009067388614383
36.044712,10.81768747796939,0.1003183900052757
36.049308,10.816794409365087,0.0996977337782709
36.053896,10.817333655513645,0.0990818576541039
36.058492,10.826578735261757,0.0984054514520127
36.06308,10.835046565276368,0.0977275172842068
36.067664,10.841593341681538,0.0970652742716442
36.072256,10.845608140906538,0.0964380316789303
36.076852,10.84733533237966,0.0958366857031544
36.08144,10.844976047205613,0.0952688336691408
36.086036,10.847724857840532,0.0946600233705924
36.090632,10.85521521014198,0.0940227759058416
36.095216,10.8587412705104,0.0934130734432388
36.099816,10.859324658107584,0.092822944677212
36.104404,10.859952187153398,0.0922600827560016
36.108996,10.860090977342628,0.0917145477849158
36.113588,10.86100701726536,0.0911701964598839
36.118176,10.8642548063886,0.090627541222836
36.122768,10.864559922740604,0.0901038717216207
36.12736,10.86425411552188,0.0896027084813417
36.131948,10.865502807770158,0.089103063242741
36.13654,10.868183814771298,0.0886112689706469
36.14114,10.873074386258798,0.0881279078044024
36.145732,10.87682115387036,0.0876567939459102
36.150312,10.87995699791119,0.0872103604896796
36.154908,10.887878525067183,0.0867666260430182
36.159488,10.895189128652444,0.0863449570996612
36.164088,10.90801852363774,0.0859019490769155
36.168676,10.923301852537689,0.0854587086742196
36.173276,10.94578065701882,0.0849933115663976
36.177868,10.966382549339135,0.0845672373987929
36.182464,10.988416756412311,0.0841509961666824
36.187048,11.016747004619022,0.0837155021783214
36.191644,11.051617663387562,0.083254159921446
36.19624,11.08750994131789,0.0827875974761223
36.20084,11.126222707305311,0.0823107110717286
36.205432,11.1653461688838,0.0818498998456383
36.210024,11.209088987414669,0.0813760479293141
36.214604,11.258228412631423,0.0808884134010863
36.219188,11.307490022562323,0.0803987802242431
36.22378,11.35867268610267,0.0799034768060491
36.228372,11.410632599376516,0.0794147709927095
36.232968,11.462592512650362,0.0789303882740745
36.237548,11.517495098695443,0.0784335670043414
36.242144,11.56969938139758,0.0779478225046383
36.246724,11.621492968508656,0.0774533624984931
36.251316,11.67455254420981,0.0769473554883289
36.255912,11.724547262425592,0.0764643627353764
36.2605,11.77646303425081,0.0759768926990324
36.265112,11.824781068285436,0.0755034728258368
36.2697,11.8708895378337,0.0750222243388825
36.2743,11.91442188875317,0.0745469128460758
36.278896,11.957054805224988,0.0740776959670446
36.283484,11.994701810601986,0.0736366764929297
36.288088,12.031571566245482,0.0731957058515405
36.292676,12.062922530488944,0.0727707464284562
36.297276,12.093618429713052,0.072341662238696
36.301864,12.116874483927688,0.0719370959737822
36.306468,12.13959765783711,0.0715263183823197
36.311044,12.165263504517764,0.0711051981462083
36.315644,12.186187809531893,0.070701017185148
36.320232,12.199672269536542,0.0703181131265371
36.324832,12.21160223007419,0.0699327384216187
36.329424,12.219812268107102,0.0695584118430452
36.33402,12.225324002797068,0.0691886822277664
36.338612,12.2286703144493,0.0688342537672204
36.343204,12.228418888310948,0.0684860149351384
36.347792,12.22313740962914,0.0681352016659586
36.352392,12.21258150897559,0.0677898908991134
36.356984,12.19728406665551,0.0674585331486448
36.361564,12.182763874068936,0.0671285681416639
36.366152,12.163624324529971,0.0668081067428511
36.37074,12.141253591342856,0.0664818670116449
36.375328,12.117572728117027,0.0661424819316326
36.379924,12.093358984585986,0.0657927444269926
36.384516,12.075030586597412,0.0654197159536508
36.389104,12.057968177198928,0.0650345472480308
36.393688,12.045891678895268,0.0646283076263841
36.398268,12.03075032310622,0.0642368404359992
36.40286,12.010867425650648,0.06385854771562
36.407452,11.993927200966308,0.0634686584647727
36.412044,11.9791523993197,0.0630633590011841
36.416632,11.961312740187712,0.0626712998621368
36.421228,11.947437372988754,0.0622640002950679
36.425812,11.937281928294528,0.0618483912912577
36.430408,11.927615222456888,0.0614185042508678
36.434988,11.922445688857492,0.0609836621677831
36.43958,11.92369438110577,0.0605380906930612
36.444168,11.9266197575352,0.0600934997830156
36.448768,11.933265056469368,0.0596408736138054
36.453348,11.940154724831828,0.0591811455764617
36.457948,11.95448423820376,0.0587076432401099
36.462532,11.96922444716676,0.0582477346840377
36.467128,11.984619721149112,0.0577935750018919
36.47172,12.003368363493768,0.0573456267366593
36.476312,12.018807778924751,0.056919164128214
36.480912,12.031837401889709,0.056512889909749
36.485512,12.041802167369289,0.056120552578724
36.4901,12.049845879239422,0.0557324409726865
36.494696,12.058666840843063,0.0553469849835577
36.499288,12.070963355523148,0.054964706790934
36.50388,12.087512673013178,0.0545872795338533
36.50846,12.109825151331531,0.0541971375994063
36.513064,12.125885729964986,0.0538349977519803
36.517648,12.13990307027485,0.0534816608887085
36.52224,12.150488998956895,0.0531507384132902
36.526828,12.15801007015356,0.0528324123079647
36.531404,12.162221914436552,0.0525334870862262
36.536,12.169254246776632,0.0522306999154305
36.540584,12.173221721631336,0.0519390890036033
36.545164,12.178621511238894,0.0516577925118359
36.549772,12.176992151428047,0.051399551094913
36.554364,12.173319553293611,0.051148196397632
36.558952,12.171079269912036,0.0509065574736543
36.563548,12.161154772092692,0.0506805126802763
36.568144,12.14840978621626,0.0504577559847187
36.57274,12.13194487783509,0.0502382697903846
36.577336,12.108328635321364,0.0500433926560833
36.581928,12.085367457826996,0.0498544086498116
36.586508,12.0576647386661,0.0496721093837147
36.5911,12.017780632829194,0.0495049989012325
