Time,Force,Position
34.488928,8.127442606413563,0.153803704192688
34.493516,8.29148325870948,0.1531164737076891
34.498112,8.432807102939321,0.1524648027941413
34.502704,8.55693293050312,0.15175493201492
34.5073,8.660018634181991,0.1510648645943106
34.511888,8.74398526758538,0.1503546684331795
34.516484,8.807122244715243,0.1497171625505853
34.521064,8.852172010363153,0.1491440813700472
34.525656,8.882698400502813,0.1486557275097097
34.530248,8.909050031098044,0.1481757957926296
34.53484,8.935357520244644,0.1476680759717816
34.539428,8.962442259124748,0.1471610956185431
34.54402,8.993124735795444,0.1466144488271945
34.54862,9.016611736884958,0.1461483319258216
34.553204,9.04263071515464,0.1456307098314642
34.557792,9.063497456166724,0.1451617290939538
34.56238,9.085630185768894,0.1446674712131491
34.566968,9.112015718181013,0.1441377464291469
34.571556,9.133781893640748,0.1436639403349073
34.57614,9.153582874042414,0.1431860092265782
34.580732,9.174483516871389,0.1426572866413841
34.58532,9.19774981071776,0.1420544359760295
34.589908,9.21880654007777,0.141454893198293
34.5945,9.239452573846716,0.1408454002452329
34.599084,9.25981009673874,0.1402204083051589
34.603672,9.28172211909777,0.1395939421340593
34.608284,9.304900130046889,0.1389451103376954
34.612868,9.329344129586088,0.1382751473710135
34.617456,9.353788129125288,0.1376075332390766
34.622052,9.375944520912608,0.1369823468852251
34.62664,9.398511608290995,0.1363760329945125
34.63124,9.417358773164649,0.135810299611621
34.635832,9.432608200247705,0.1352777248066994
34.640424,9.450389604510931,0.1346931586639901
34.645004,9.462652217374126,0.1341657967899615
34.649604,9.48002292604629,0.1335715646005733
34.654192,9.49583913525145,0.1329847346114289
34.658792,9.51046739913204,0.1323893719943471
34.663384,9.52713890133622,0.1317667576302952
34.667976,9.544709837988044,0.1311386575473059
34.67256,9.561259155478076,0.1305266863450289
34.677156,9.569757704387907,0.1300163800694851
34.681756,9.581076741354826,0.1294767070419568
34.686348,9.588675855817009,0.1289739449725206
34.690936,9.592188493632015,0.1285240863770117
34.695532,9.588750025294134,0.1281248256353544
34.700112,9.577993896660924,0.1277917718347002
34.704696,9.563517845522972,0.1274946491083423
34.709288,9.547242925489728,0.1272120119525137
34.71388,9.528391886827684,0.1269456326901378
34.718472,9.503122622317962,0.1267374883686536
34.723052,9.477076108074735,0.1265306932869607
34.727644,9.45217339770745,0.1263041719098643
34.732232,9.429968990683106,0.1260534075468726
34.736824,9.41262831003944,0.1257471940868431
34.741412,9.38850284940566,0.1255145491812166
34.746,9.363888649915294,0.1253027005640367
34.750604,9.335187973777751,0.1251415207014451
34.755192,9.305465678478416,0.1249920034431912
34.759784,9.272145645388491,0.1248706777143714
34.76438,9.23588293952733,0.1247815189258273
34.768968,9.20550557920864,0.1246251108940797
34.773572,9.175905468623451,0.1244650530963574
34.778164,9.14888147666706,0.1242874712136083
34.782768,9.123656353605966,0.1240946118198694
34.787348,9.10934662863079,0.1238083801732917
34.791948,9.10439780227453,0.1234331337924384
34.796536,9.09806080261404,0.1230856187316966
34.80114,9.095854421049353,0.1227191337546156
34.805724,9.09969971118991,0.1223136887404054
34.810328,9.110085411892292,0.121846736482812
34.81492,9.12676715372821,0.1213318310961077
34.819512,9.14860113282172,0.120788419934283
34.8241,9.168802569182713,0.1202877639370974
34.828696,9.1843066053258,0.119864360170315
34.833284,9.203696890136404,0.1194324667954948
34.837876,9.225541108861652,0.1189920424919453
34.842464,9.25637967206338,0.1184857009152558
34.847056,9.290571603627413,0.1179659469660255
34.851636,9.330448652754248,0.1174280189356844
34.856236,9.377521177462269,0.1168399906576599
34.860824,9.426803266656648,0.1162606850171367
34.865416,9.476373866727949,0.1157057828128437
34.87,9.526477347104455,0.1151628689863902
34.87458,9.580056380557414,0.1146029564751157
34.879172,9.62300852680137,0.1141491435707744
34.88376,9.663673065293446,0.1137350652380758
34.888348,9.711777448795,0.1132636328044618
34.892944,9.758205148115405,0.112803798007118
34.897528,9.80193454409286,0.1123660170674694
34.902132,9.845297385927882,0.1119481785183201
34.906728,9.88404087081052,0.1115686221318646
34.911316,9.92098548679786,0.1112055120024556
34.91592,9.958418841641782,0.1108243787831527
34.92052,10.00222628088476,0.1103711892548014
34.925116,10.047788447574405,0.1098808646793552
34.929704,10.095638222015925,0.1093655417410816
34.934296,10.136292520876262,0.1088987574950079
34.938884,10.173471266660156,0.108451339269981
34.94348,10.206519394348248,0.1080186923401895
34.948068,10.237113588121684,0.1075977544585503
34.952668,10.263454979085177,0.1071959987638701
34.957252,10.287708990276451,0.1067871425197196
34.961848,10.3152722283814,0.1063427184619406
34.966428,10.338704848390543,0.105911097312523
34.97102,10.364425076151567,0.1054478947550272
34.97562,10.387813554712086,0.1049873021550766
34.980212,10.406949230462656,0.1045459210254422
34.9848,10.422731537850924,0.1041149982001078
34.989388,10.439657649115134,0.1036711985601569
34.993976,10.45502926091234,0.1032293994224287
34.998576,10.469501438261894,0.1027918040705119
35.003164,10.477921943906203,0.1023781623509472
35.007756,10.48491013479766,0.1019609398734042
35.012352,10.485357915127286,0.1015872577513349
35.01694,10.485561326028623,0.1012246259187778
35.021532,10.479468695796426,0.1008947774507232
35.02612,10.471821566097224,0.1005633427240994
35.030708,10.46556260970225,0.1002085817109792
35.0353,10.460691826611503,0.0998306202996068
35.039888,10.451201686568377,0.0994795738594289
35.044492,10.440812112077598,0.0991321922800854
35.049084,10.433243025643913,0.0987671702208992
35.053672,10.420810212829547,0.0984385812247108
35.058256,10.41185295309163,0.0980972257396932
35.062856,10.408414484753743,0.0977263237084442
35.067448,10.405631081435216,0.0973602498538974
35.072036,10.403747112564336,0.0969906107812714
35.07664,10.40815918482699,0.0965927612980244
35.081228,10.412204702947207,0.0962096370595488
35.085824,10.418948524410366,0.0958159454559129
35.090404,10.433254375597146,0.0953792064286139
35.095004,10.454511332936818,0.0949198430628513
35.099584,10.481575592553442,0.0944548189340925
35.10418,10.514036458855957,0.0939679914541924
35.108772,10.54482064097732,0.0934871083258239
35.113356,10.581778679518068,0.0929864179401023
35.117952,10.632228234773535,0.0924361977354923
35.122548,10.686808408124811,0.0918869014103138
35.127136,10.74257652680065,0.091355876007504
35.131724,10.803496882734084,0.090813807356924
35.136308,10.867892791743964,0.0902640070678568
35.140908,10.932699396344912,0.0897337094411326
35.145496,11.000204304288802,0.0891955539962433
35.150076,11.069508081127989,0.0886570523680075
35.154668,11.137423684662942,0.0881452423028729
35.159256,11.209958645150284,0.0876180725481792
35.163852,11.28506972426642,0.0870915129460425
35.168432,11.361857487563707,0.086572072623893
35.17302,11.441587923632232,0.0860402120825285
35.177616,11.51669900274837,0.0855308374604033
35.182204,11.585924736322038,0.085061917430109
35.186792,11.656294273771646,0.0845881271695076
35.191376,11.723310442858953,0.0841245072787465
35.195968,11.786606689441523,0.0836792108862481
35.200564,11.850680185757597,0.0832379478032638
35.20514,11.908335456225988,0.0828223639749351
35.20974,11.951233221389575,0.0824662932576466
35.214324,11.98951162960078,0.0821305110572226
35.21892,12.02737934222092,0.0817840820968585
35.223516,12.063936924802348,0.0814299647610871
35.228116,12.1036815495833,0.0810568688667295
35.232708,12.14518090181092,0.0806589506182236
35.2373,12.18524793928568,0.0802567836697612
35.241892,12.22118435866464,0.0798581284272831
35.246484,12.25257946435673,0.0794485227048089
35.25108,12.278944517505373,0.0790444292742332
35.255672,12.29733684533933,0.0786577877322856
35.26026,12.307101382839246,0.0782839157910393
35.264848,12.311958052509857,0.0779096648433173
35.269436,12.32114556825593,0.0775052037999981
35.274032,12.328245704229792,0.0770882625190097
35.278624,12.330315787660204,0.0766742048071433
35.283216,12.327233633833016,0.0762650447739272
35.287808,12.327705076347794,0.0758248033847798
35.292396,12.326988573538005,0.0753707571999603
35.296988,12.32700517901309,0.0748931754402318
35.301572,12.334539672763166,0.0743649475417259
35.30616,12.339209537007523,0.073821579650973
35.310756,12.343468705660818,0.0732669074771294
35.315344,12.344618875380103,0.0727051272596189
35.319948,12.338451384804062,0.0721627436661466
35.324536,12.323167365037394,0.0716410449296473
35.329116,12.306573215232014,0.0711075727500772
35.333712,12.285481893188392,0.0705798469807053
35.338304,12.26925429752545,0.0700326749580179
35.3429,12.248529529624268,0.0694908236191765
35.347488,12.231891238370256,0.0689258354489227
35.352084,12.216152381563898,0.0683566319909489
35.356664,12.201312959205184,0.067784888767435
35.361268,12.183775233503528,0.0672180994808629
35.365856,12.167381311677817,0.0666407084782057
35.370456,12.152786258747394,0.0660599185783281
35.375048,12.137169586655176,0.0654805686046159
35.379644,12.119754045667667,0.0649048405188318
35.384228,12.102094135251864,0.0643356319969679
35.388824,12.09265131957904,0.0637534581365247
35.393412,12.07605716977366,0.0632037095067352
35.397996,12.06665849554946,0.062645321059663
35.402584,12.055993832735178,0.0620987803073425
35.407172,12.047294364978962,0.0615697594908948
35.411756,12.038717081936896,0.0610352140247488
35.416348,12.035169851438278,0.0605036601976226
35.42094,12.032932750978372,0.0599844768375745
35.42552,12.03764675667136,0.0594642544759498
35.430116,12.038029916288885,0.0589699542261225
35.434704,12.04470911703994,0.0584687376647864
35.439296,12.052942817258,0.0579741998417699
35.443888,12.063874820819006,0.057477324157638
35.448476,12.071741966894631,0.0569925027710134
35.45308,12.077077135790084,0.0565298761724547
35.457668,12.083722434724251,0.0560803724935597
35.462276,12.086281257011244,0.0556470575652376
35.466856,12.091416197927035,0.0552137979333751
35.47144,12.092997542500868,0.054807057577687
