Time,Force,Position
39.353544,8.07976720636337,0.1580145461474916
39.358132,8.238665861033429,0.1574209658345468
39.36272,8.373948273189766,0.1568874735323125
39.367316,8.489945288907844,0.1563054509683401
39.371908,8.586490582024888,0.1556492375454545
39.376492,8.65998641475031,0.1549696662238447
39.38108,8.70880024435159,0.1543139303361184
39.38568,8.737595569229732,0.1536483113511694
39.390268,8.741596945901325,0.1531121280363702
39.394864,8.73703833587265,0.1525278303940248
39.39946,8.724252391469262,0.1519472904427919
39.404048,8.708724002274302,0.1513688472310944
39.408648,8.686044278946786,0.1509040223310626
39.413236,8.667495173715075,0.1504029030979183
39.417832,8.647724221341907,0.1499617776060288
39.42242,8.634782190407485,0.1494532899805044
39.427008,8.621595790044772,0.1489576637332119
39.431604,8.614338876673154,0.1484058201132702
39.436192,8.615954123063872,0.1477557131637098
39.44078,8.614304283989545,0.1472008309995166
39.445376,8.612454216935557,0.1466886164384127
39.449968,8.611792095206132,0.1461873717095757
39.454564,8.614483341839012,0.1456577722197279
39.459144,8.61913978352996,0.1451373411830457
39.463736,8.62310725838466,0.1446887310421533
39.468324,8.628184635298412,0.1442905625000818
39.472928,8.637803325899029,0.1438762159132072
39.477516,8.649797907148782,0.1434854347706358
39.482108,8.667477605961341,0.1430562213288933
39.4867,8.68238095816544,0.1426965359855612
39.491296,8.701581254628115,0.1423372657445855
39.49588,8.720336953682835,0.1420388926534631
39.500476,8.751195996148045,0.1416317553084674
39.505072,8.782509875652947,0.141273499344982
39.509672,8.818487253558862,0.1408958200246601
39.514264,8.855896946217634,0.1405206033705061
39.518852,8.894005845344394,0.1401841887770977
39.52344,8.939065850624042,0.1397951624994937
39.528036,8.981227324581083,0.1394817796334246
39.532624,9.029440470243369,0.1391189737490712
39.53722,9.08358310289675,0.1387106457996931
39.541816,9.143000157521875,0.1382628654807659
39.5464,9.205648395795157,0.1378057822318317
39.550996,9.268052264640144,0.1373661411065915
39.555576,9.334298240704015,0.1368862377378495
39.560164,9.402587455091473,0.1363814655529368
39.564756,9.47177610392658,0.1358759090590376
39.569344,9.540187503028182,0.1353771261072405
39.573952,9.610519955739228,0.1348653779492065
39.57854,9.687759373154536,0.1342753468871048
39.583152,9.7597243685981,0.1337337707446633
39.58774,9.828335995679367,0.133214664867708
39.59234,9.893594254398334,0.1327274068639113
39.596932,9.959952175544611,0.1321956555423641
39.601524,10.023201097756882,0.1316768419040796
39.606124,10.08513988993044,0.1311569129441957
39.610708,10.144214052598276,0.1306378589349857
39.615312,10.19555985937972,0.1301805353490747
39.6199,10.245307025245534,0.12969994587686
39.6245,10.291412311872127,0.1292249629965792
39.629092,10.33759564176424,0.1287221535278697
39.633692,10.377194419645894,0.1282572184179588
39.63828,10.410330830231242,0.1278222689776689
39.642872,10.438559372987283,0.1274098700826108
39.647468,10.46032554844702,0.1270254466949305
39.652064,10.479227094401034,0.1266405759843233
39.65666,10.496407814725274,0.1262398206652395
39.661252,10.511090459686232,0.1258224830956205
39.665856,10.520987421532032,0.1254233447046932
39.670444,10.522134408329643,0.1250822492867289
39.675028,10.52270437337342,0.1247050450751104
39.679624,10.525273435292153,0.1242772250901966
39.684208,10.52317899880987,0.1238598287696532
39.688792,10.521695485898316,0.1234200293468469
39.693384,10.521189450699929,0.1229419043013406
39.697976,10.518596035729324,0.1224587384263992
39.702572,10.51943403238654,0.1219288107250246
39.707168,10.516141410947952,0.1214140908074522
39.711764,10.514236962813598,0.1208740944285163
39.716352,10.511921819088176,0.1203213020412011
39.72094,10.505476057266948,0.1197856165964855
39.725528,10.49363368875984,0.1192834662870682
39.730116,10.482935124128668,0.1187645718214979
39.73472,10.476567405572965,0.1181920232033633
39.739308,10.473919609521994,0.117590267105927
39.743916,10.472171247918672,0.1169827576925952
39.748496,10.466458594382322,0.1164130512645634
39.753084,10.462300440312976,0.1158408635665251
39.757684,10.455321798186542,0.1152892183933043
39.762268,10.456149555212018,0.1146678608586951
39.766872,10.459309061438,0.1140442528054445
39.771464,10.46005877519796,0.1134558890637526
39.77606,10.462240803710776,0.1128694231358655
39.780652,10.46123579002407,0.1123203349228017
39.785244,10.461130210785008,0.111767290492656
39.789832,10.462456946298806,0.1112174079642487
39.794432,10.458675586003634,0.1107185003978392
39.799032,10.461967516575502,0.1101811957944065
39.803628,10.463749089128992,0.1096732237659451
39.808224,10.46414248837825,0.1091889190572512
39.81282,10.463924964056789,0.1087271106754476
39.817416,10.47372340337359,0.1082024689256912
39.822012,10.484299092423896,0.1076782113748484
39.8266,10.492464989008178,0.1071890284815095
39.831196,10.497443843392936,0.1067342759229966
39.835776,10.504099381958842,0.1062758015940122
39.840364,10.514230473601192,0.1058019153164963
39.844948,10.525260999691197,0.1053247451663785
39.849544,10.542587566914728,0.1048138743965431
39.854136,10.557259972243946,0.1043495538183522
39.858728,10.57181019285902,0.103892001662039
39.863324,10.593023008750066,0.1033908165713433
39.867912,10.616034693536408,0.1028818703474428
39.872512,10.637902574446809,0.1023862839606626
39.8771,10.656094674301103,0.1019416840151081
39.881696,10.677107262212484,0.1014818340992296
39.88628,10.70466026068569,0.1009837082596454
39.890868,10.72939277110181,0.1005066743057426
39.89548,10.75808957345096,0.1000016824612341
39.900068,10.792182982485992,0.0994738624434695
39.904656,10.829463433720557,0.0989169806999521
39.909252,10.86608881993576,0.0983626354244441
39.91384,10.899893718093876,0.0978255437868191
39.91844,10.936641289023225,0.0972700144278883
39.92302,10.979640759637478,0.0966637911741191
39.927628,11.020308481051227,0.0960601234993103
39.932216,11.058522268550329,0.0954611596048943
39.936816,11.09481500243998,0.0948766466110304
39.941396,11.124933879910252,0.0943162743491186
39.946,11.151044323998862,0.0937588262256108
39.950592,11.17392358443932,0.0932044779350331
39.955192,11.19050680374624,0.0926794799456535
39.95978,11.204758273852653,0.0921536269650592
39.964372,11.219498482815649,0.0916098986795038
39.968968,11.23689285367296,0.0910291412150907
39.973564,11.247868998682591,0.0904783726900142
39.97816,11.249728614501604,0.0899670873605919
39.98276,11.249911546139458,0.0894583344015855
39.987348,11.24637455527258,0.0889690148992247
39.991944,11.236785892700455,0.0884955730610854
39.996532,11.225520545947184,0.0880247376779602
40.001128,11.210290907260882,0.0875802224174057
40.005716,11.199802810241112,0.0871109558809934
40.010312,11.186860779306686,0.0866432740968881
40.014904,11.165990164506209,0.0862252303038839
40.019496,11.145774614725084,0.0858117260609777
40.024092,11.128501737715196,0.0853802853748603
40.02868,11.111473230133598,0.0849397720101827
40.033272,11.098286829770885,0.0844778447121752
40.037864,11.085999863855818,0.0840113549024106
40.042452,11.077843516036555,0.0835427191501244
40.047036,11.070220048522504,0.0830828216720435
40.051624,11.062885091885368,0.0826399922242055
40.056228,11.060047307486474,0.0821840446284091
40.060816,11.055943534497496,0.0817432971078012
40.065408,11.056459118460902,0.081284345125171
40.070004,11.066213416329076,0.0807905147026219
40.074596,11.077644398378403,0.080295687125888
40.079192,11.087032142104144,0.0798135625630033
40.08378,11.10157212308748,0.0793253019238697
40.088372,11.115745549928375,0.0788498778800133
40.09296,11.129918976769272,0.0783746650996637
40.09756,11.14102754612479,0.0779206318568143
40.102152,11.15242462635723,0.077485170434566
40.106752,11.166642194646752,0.0770373202489647
40.111348,11.18163701266978,0.0765926814288163
40.11594,11.194344222940932,0.0761701836191552
40.120536,11.208605932679088,0.0757523376691858
40.125132,11.223278338008306,0.0753499409100987
40.12972,11.240282492538032,0.0749537505702909
40.134316,11.257408831781902,0.074556088268737
40.138904,11.276700594063506,0.0741433408252146
40.143492,11.302122071315871,0.0736971551321192
40.14808,11.32267982218756,0.0732748853937746
40.152672,11.345158626668692,0.0728459785020021
40.15726,11.366737996702174,0.0724208791431151
40.161856,11.384597444230922,0.0720102739611636
40.166452,11.4053995645309,0.0715886690728619
40.17104,11.429144357602116,0.0711538843859147
40.175636,11.452234085653975,0.0707165116930244
40.180228,11.478144301762924,0.0702718333614803
40.18482,11.506219940909606,0.0698139605825812
40.189408,11.539403675865252,0.0693317379418986
40.193996,11.573076149677483,0.0688358151485004
40.198604,11.609813480975095,0.0683262813722529
40.203192,11.643852508929765,0.0678226722486736
40.207788,11.681978013531603,0.067300710555804
40.21238,11.718304649238153,0.0667834761571656
40.216984,11.75794051185837,0.0662475939898729
40.221576,11.796921309459233,0.0657078837315457
40.226168,11.832182184555355,0.0651793214502118
40.230764,11.866421440489688,0.0646584014881738
40.235352,11.893875916433904,0.0641646995467807
40.239956,11.927337922634733,0.0636477959409805
40.244536,11.96079992883556,0.0631336161243656
40.249128,11.99618298864583,0.0626163425053012
40.253708,12.030544429294308,0.0621051882664442
40.258316,12.061185947438046,0.0616048304258306
40.262908,12.095547388086525,0.061100195099784
40.267504,12.124267852620823,0.060609821787646
40.272088,12.15490937076456,0.0601180326817873
40.276684,12.184407085032364,0.0596366523889369
40.281288,12.209940507367136,0.0591729105328081
40.285876,12.233552876092473,0.0587152271445248
40.290464,12.256798690675366,0.0582710154020684
40.295056,12.284008797191284,0.05781466935334
40.299648,12.30659954675482,0.0573675996735752
40.304232,12.330456284908443,0.0569104271225363
40.308824,12.34356395113892,0.0564851151877557
40.313416,12.353851129312307,0.0560650865183403
40.318008,12.363238873038046,0.0556448005796312
40.3226,12.370705563154344,0.0552292874008233
40.327196,12.381114926041876,0.0548056083383342
40.33178,12.382696270615703,0.0544079849998547
40.336368,12.381701496560732,0.0540085768001487
40.340956,12.37404412722979,0.0536222451694116
40.345548,12.366386757898848,0.0532355185622921
40.350156,12.350023554968349,0.0528669370440663
40.354736,12.32429945341893,0.0525119318258913
40.359336,12.29281219104119,0.0521657916128602
40.36392,12.248899172559153,0.0518435636729468
40.368512,12.19538088602991,0.0515393574908656
40.373116,12.133156765901107,0.0512529417567461
40.377704,12.066068919391627,0.050975469860452
40.3823,11.988720739815587,0.0507091137163587
