Time,Force,Position
35.015544000000006,7.299311709764248,0.1560382455277092
35.020132000000004,7.37049627255264,0.1555347056067242
35.024732,7.428090796097321,0.1550475410405818
35.029332,7.465354641856799,0.154734937810488
35.033928,7.489649611575031,0.1545118933128497
35.038523999999995,7.50784876813939,0.1543319536819177
35.043111999999994,7.527069543865544,0.1541349109316539
35.047700000000006,7.556306283229969,0.1537936814337552
35.052296,7.590939629280279,0.153381740567155
35.056884,7.6306030278740415,0.1529210180015276
35.06148399999999,7.672720360382456,0.1524371818363264
35.066072000000005,7.707930728186606,0.1520790914876487
35.070660000000004,7.747638268228996,0.151663800966102
35.075252000000006,7.790821361347832,0.1512117127297216
35.079848,7.839278876438408,0.1507017638085919
35.084436,7.89542060596675,0.1500785013794245
35.089028,7.950907270475737,0.1494625794607709
35.093624000000005,7.999975709137042,0.1489452303012788
35.098208,8.048877821635573,0.1484050378335764
35.1028,8.095936923790182,0.1478580611546041
35.107380000000006,8.14385131894381,0.1472675161869486
35.111971999999994,8.195441495153547,0.1466028782686441
35.116568,8.24457773744863,0.1459614619933186
35.121148000000005,8.297267576085677,0.1452429644203945
35.125736,8.35314445692225,0.1444749978312527
35.130332,8.408488457453613,0.1437104461921315
35.134928,8.466120065736856,0.1429140574453647
35.139523999999994,8.521175555391299,0.1421519015514254
35.144116,8.570467884217416,0.1414719504204602
35.148712,8.617672833271321,0.1407989777256428
35.153304000000006,8.665977444752537,0.1400764645080749
35.157895999999994,8.71795783728986,0.1392775195278218
35.162476,8.765929796445528,0.1385081233411595
35.16708,8.81103712609548,0.1377470136973634
35.171672,8.851114403201978,0.1370309740217374
35.176272,8.88334113970794,0.1363936227928542
35.18086,8.909516204508655,0.1358080605576319
35.185447999999994,8.938467615917833,0.1351615751434421
35.190036000000006,8.967663396755306,0.134509279026542
35.194627999999994,8.994160874249829,0.1338849515898744
35.19922,9.019636732582562,0.1332780779820986
35.20381999999999,9.03910506065868,0.132757819673292
35.208408000000006,9.062004800362612,0.132180561590974
35.212996000000004,9.08424947504719,0.1316043502207502
35.217588000000006,9.103795846388826,0.1310583499042843
35.222179999999994,9.120643914387516,0.1305403977818974
35.226772,9.131318125966818,0.130077151616333
35.231356000000005,9.141092903098471,0.1296232840755173
35.235952,9.156097960753238,0.1290963568909597
35.240532,9.169714845103774,0.1286016125705107
35.245116,9.183087360026017,0.128121965291193
35.249712,9.191596148567587,0.1276985751913212
35.2543,9.2028032404521,0.1272533229233018
35.25889599999999,9.215687016517766,0.126800512555622
35.263484000000005,9.229225857602785,0.1263514607540277
35.268072000000004,9.245463002030746,0.1258802023755316
35.272668,9.26836274173468,0.1253398193319655
35.27726,9.286931635363148,0.1248656363815488
35.281856000000005,9.304478909829824,0.124407694066699
35.28644,9.3253795526588,0.1239322868017035
35.291036000000005,9.346280195487775,0.1234579877933455
35.295627999999994,9.368569011620982,0.1229549861634462
35.30022,9.386526981678724,0.1225164151504776
35.3048,9.40321896314638,0.1221029778965605
35.309404,9.418356445147031,0.1216941069880136
35.313996,9.433493927147683,0.1212860776534268
35.318591999999995,9.449164289453543,0.1208867125899104
35.323184,9.464834651759409,0.1204882011183779
35.327772,9.478828329884118,0.120101661097209
35.33237200000001,9.49228912770362,0.119706076125511
35.336968,9.502929437466031,0.1193377028649644
35.341556,9.52035452721856,0.1189018562742267
35.346152000000004,9.535203498342296,0.1184827394522846
35.35074,9.54849796999902,0.1180686444751146
35.355328,9.563180614959975,0.1176283710311341
35.359916,9.574265522130345,0.1172143317511095
35.364515999999995,9.581752691510122,0.1168281792533716
35.369108,9.588829165298831,0.1164267397772989
35.3737,9.592185716582804,0.1160560900218488
35.378296000000006,9.596275376151652,0.1156562218337648
35.382884000000004,9.59868835153935,0.1152634609582654
35.387484,9.6009791422129,0.1148764844123789
35.392072,9.60388085645718,0.11446309514632
35.396668000000005,9.608292928719836,0.1140185419252035
35.401264,9.615403304325437,0.1135568818268322
35.405852,9.624024037949413,0.1130649012536112
35.410467999999995,9.633133510429971,0.1125521096046092
35.41506,9.643631156214758,0.112014446202806
35.419668,9.651063944514163,0.1115105124121492
35.424248000000006,9.65939616726122,0.1110010033964815
35.428839999999994,9.66989381304601,0.1104654269473336
35.433428000000006,9.672052179373676,0.1099928716403444
35.438008,9.67498779543484,0.1095198623697137
35.44260799999999,9.673836934848834,0.1090890812474794
35.447188,9.671542270386889,0.1086750554663185
35.45178,9.676809635648564,0.1082021831201566
35.456360000000004,9.683875869805536,0.1077190786543565
35.460956,9.695317091486595,0.1072149051987906
35.465552,9.711377670120044,0.1066786452067005
35.470136,9.722985217963885,0.1062006741767859
35.474728,9.736391634703017,0.1057118490183439
35.479316,9.748121367261,0.1052288615490844
35.483912000000004,9.759484545676544,0.1047610392175461
35.488508,9.771502789111446,0.1043008486072865
35.4931,9.781599978936908,0.1038580447959672
35.49768400000001,9.787244137972758,0.1034707296314169
35.502275999999995,9.7964860347992,0.103064823075049
35.50686399999999,9.804461943035555,0.1026802057526404
35.511448,9.811538416824265,0.10229916826489
35.516043999999994,9.81873707532712,0.1019139380616084
35.52064,9.826712983563477,0.1015308142646047
35.525228,9.842905986542808,0.1010994680928047
35.52982,9.86179729286509,0.1006562152486653
35.534408,9.888250628910988,0.1001612292167577
35.53899199999999,9.91458178024274,0.0996724509840253
35.543580000000006,9.932084913260786,0.0992570139110017
35.548168000000004,9.949465861564686,0.0988485465326522
35.552760000000006,9.965292310401583,0.0984426650139056
35.557348000000005,9.97842045589554,0.0980516687293202
35.561936,9.9978005010744,0.0976025638951871
35.566548,10.019101599862704,0.0971422512356344
35.571136,10.044000436441596,0.096666185187106
35.575744,10.07274138023937,0.0961660112592841
35.580327999999994,10.098661835980058,0.0956855400712771
35.584924,10.1244601070066,0.0952110092957668
35.589516,10.157165342737404,0.0946856924519803
35.594120000000004,10.182841429049798,0.0942181302500791
35.598699999999994,10.208395330648049,0.0937564600075815
35.603303999999994,10.238568589198682,0.0932704212740959
35.6079,10.268497478321024,0.0927952799552936
35.612504,10.29446207551034,0.0923514942344762
35.617096000000004,10.314785696585478,0.0919430450654791
35.621688000000006,10.33151157987002,0.0915521829360438
35.626268,10.343740290916328,0.0911828912690056
35.63086,10.356990621124428,0.0908062877186983
35.635459999999995,10.37216200494197,0.09041548448403
35.640052,10.385290150435925,0.0900421372292422
35.644639999999995,10.39331020012091,0.0897102600208939
35.649227999999994,10.404150737862984,0.0893636125321725
35.653816000000006,10.406041072577208,0.0890827105929397
35.658404000000004,10.409852460900876,0.088792025930393
35.66299600000001,10.41623996785334,0.0884975801745886
35.66757199999999,10.420706421196364,0.0882161824375991
35.672168,10.424029070663446,0.0879467363656858
35.676748,10.426452285682885,0.08768075305998
35.681340000000006,10.425810643216938,0.087439750598385
35.685936,10.434119203778842,0.087138115180588
35.690524,10.444104448521898,0.0868352199977663
35.695128,10.4542118779791,0.0865297704877305
35.699715999999995,10.46636254575989,0.0862103579300315
35.704308,10.47965701741662,0.0858785779638467
35.708904000000004,10.49679359629223,0.0855261432692743
35.713492,10.514829609615488,0.0851711154059991
35.718087999999995,10.5335206879581,0.0848222940736168
35.72268,10.552578320443152,0.0844623948772752
35.727276,10.576866233451318,0.0840629477778828
35.73185599999999,10.604463373373154,0.0836346381781117
35.736456000000004,10.63344868659922,0.0831838224025137
35.741048000000006,10.657814642872903,0.0827532046238819
35.74565200000001,10.687943759974912,0.0822907884079422
35.750236,10.711410281800944,0.081863876426293
35.754828,10.72396140554106,0.0814761301899988
35.759420000000006,10.73303697620473,0.0810956065622312
35.764016,10.745421773782072,0.0806853120714801
35.768604,10.760094179111288,0.0802531163056455
35.773191999999995,10.771779770220649,0.0798107129089689
35.777792000000005,10.776025516320528,0.0794004389825621
35.78238399999999,10.779327686524134,0.0789668750694961
35.786972000000006,10.781075357260736,0.0785314430473849
35.791560000000004,10.780369094082689,0.0780961492805238
35.796144,10.779907200332929,0.0776521050677661
35.800743999999995,10.778790241563811,0.0772037489191957
35.80533199999999,10.779183640813072,0.0767329497423465
35.809928,10.780065778918914,0.0762459107598586
35.81452,10.776206375358226,0.0757783147481516
35.819100000000006,10.772224787083394,0.0753177217497228
35.823691999999994,10.764523276303825,0.0748704901959823
35.828272,10.76642703357146,0.0743832111418031
35.83286,10.774338321095714,0.0738637335367653
35.837468,10.782738347476547,0.0733298235891905
35.842056,10.796368654380498,0.0727620843724503
35.84666,10.817805360436356,0.0721563360336108
35.851240000000004,10.842062554549306,0.0715406407127943
35.855828,10.865420314214605,0.0709296273426432
35.860423999999995,10.888000824146406,0.0703192551310357
35.86501199999999,10.913934702440503,0.0697108350690055
35.86961599999999,10.941789634344044,0.0690944281685207
35.874204000000006,10.963637035990969,0.0685078089233867
35.878804,10.986506056799689,0.0679181603752916
35.883388,11.01141831593199,0.0673195612068179
35.88798799999999,11.040294866997325,0.0667059912751304
35.892576000000005,11.067494733881508,0.0660940717870824
35.897176,11.091385373852022,0.0655082398448786
35.90176,11.114254394660737,0.0649292991748852
35.906356,11.142642206869487,0.0643385237196099
35.91093600000001,11.169231150182942,0.0637548567650055
35.915532,11.19774114710584,0.0631656602052149
35.920128000000005,11.21946636403862,0.0626070618069957
35.924724,11.23824890820016,0.0620634050401365
35.929316,11.257930886809357,0.0615219677104195
35.93391200000001,11.274548007933166,0.0609976620260355
35.938500000000005,11.29218674821877,0.0604717250084692
35.943096,11.30994767321852,0.0599434754003233
35.947680000000005,11.32746422878998,0.0594242495845889
35.952271999999994,11.344614230219005,0.0589179172242436
35.956864,11.35792212442914,0.0584229291449981
35.961456,11.37123001863928,0.0579283099608508
35.966055999999995,11.39438755032492,0.0573999382050205
35.97064399999999,11.412436986201588,0.0568944947272356
35.975235999999995,11.427177195164589,0.0564111945349575
35.979828,11.437953112194556,0.0559441411275053
35.984408,11.449261909529737,0.0554884681834794
35.989000000000004,11.46081507629321,0.0550246721691127
35.99359200000001,11.47326767750433,0.0545609935534417
35.998180000000005,11.48122310647721,0.0541006742695867
36.002776,11.48047270185053,0.053661781303226
36.007368,11.476535255024327,0.0532387468226283
36.011964000000006,11.467734081817447,0.0528278579239429
36.016544,11.45292537835395,0.0524365603061281
36.02114400000001,11.428267037414956,0.0520737861857325
36.025735999999995,11.397601166219346,0.051729701507874
36.030336000000005,11.356841288119943,0.0514212337721111
36.034916,11.312117118087516,0.0511233571808253
36.039512,11.262529221674416,0.0508364293848497
