Time,Force,Position
41.50576,8.273989564061267,0.1517134233043917
41.510356,8.452886244190982,0.1510870761349591
41.514944,8.610254061579187,0.150508632874161
41.519536,8.749768797281995,0.1498640886526225
41.524128000000005,8.866933279061161,0.1492126243151193
41.52871999999999,8.972007839983254,0.1484099938011698
41.533316,9.052077985087392,0.1476703357547135
41.537904,9.104611737193409,0.1470405060942389
41.542508,9.136648485351444,0.1465123637832728
41.547088,9.158903399667755,0.1459957771558627
41.551692,9.178538053906648,0.1454761594540674
41.556288,9.188645483363848,0.1450497849472384
41.56087599999999,9.192456871687517,0.1446936401672353
41.565476,9.191771087772944,0.1443854057249616
41.57006799999999,9.19255152042812,0.1440058836388721
41.574664,9.18278310913981,0.1437299849805225
41.57924799999999,9.165819222270322,0.1435306699283598
41.583844,9.148811193952204,0.1432985971383252
41.588432,9.131148100614729,0.1430629524574391
41.593032,9.110253823629096,0.1428467277221814
41.59761999999999,9.088538155461334,0.1426012786413363
41.60222,9.06420222721615,0.1423457317708449
41.606804,9.037246038893535,0.1420791313800139
41.6114,9.004360363579828,0.1418590475215878
41.61599199999999,8.9719634271227,0.141613192393224
41.620588,8.930083407332514,0.1414827980360417
41.625184,8.894455287227233,0.1412521486464506
41.629784,8.86585631654036,0.1409196799838921
41.634376,8.841466007214809,0.140518547653984
41.63896799999999,8.817608578194466,0.140124289242822
41.64356,8.788520868651013,0.1398097316410797
41.648144,8.757800616375036,0.139539297712886
41.652732,8.729412113299562,0.1392572439092554
41.65732799999999,8.705765151890622,0.1389150807210046
41.66192,8.681629451625097,0.1385956114843448
41.666512,8.665710846102554,0.1381854936391504
41.671104,8.6533899783706,0.1377362538853105
41.675692,8.63865931817262,0.1373349209141132
41.680288,8.628836525803946,0.1369022732173963
41.684876,8.623266536245218,0.1364365244868666
41.689464,8.619006676725204,0.1359761897823272
41.69407199999999,8.618999620015138,0.1354828247389249
41.69866,8.620469019506562,0.1350227018468724
41.703256,8.630321839903731,0.1345042455294686
41.707844,8.642794920378329,0.1340006605006953
41.71243199999999,8.665816844796407,0.1334041184918163
41.717028,8.683530445425857,0.1329286958901385
41.72162,8.70284268697094,0.1324838598719818
41.726224,8.724530819165155,0.1320673935957499
41.730816,8.747162527255648,0.1316772434153992
41.735412,8.775723722337238,0.1312442300700923
41.739992,8.81495594607646,0.130715652719409
41.744592,8.854232311264306,0.130220891933949
41.749172,8.894207882920139,0.1297663007503737
41.753772,8.936148649634038,0.1293247536493396
41.758368,8.9828750994631,0.1288729992671741
41.762964,9.03720772046441,0.1283794865187263
41.767556,9.097347643742667,0.1278566908934729
41.77215199999999,9.156754458736057,0.1273738290833397
41.776752,9.216205415178068,0.1269294889979655
41.781344,9.279542620287591,0.1264796023594155
41.785932,9.341902347683952,0.1260777061906868
41.790528,9.406060943975609,0.1256634158384858
41.79512,9.467809747801242,0.1252980666654582
41.799708,9.530213616646227,0.1249411615248569
41.804296,9.587875943824686,0.1246368960538838
41.808896,9.652078681564973,0.1242728487755109
41.81348,9.717958103486405,0.1239051433211069
41.818072,9.78600294844557,0.1235153928079288
41.82266799999999,9.85674609674768,0.1231098579390861
41.82725599999999,9.93198641728803,0.1226778498218051
41.831856,10.009514345580255,0.1222263898551458
41.83643599999999,10.08945206633851,0.121739522696987
41.841036,10.170122895381636,0.1212281025328133
41.845624,10.25230408244314,0.1206923893634815
41.850212,10.329333032247046,0.1201955940725757
41.85480799999999,10.398511441450411,0.1197523393395852
41.859396,10.468422958938651,0.1192893788919934
41.863984,10.539189769425914,0.1187978562142507
41.86858,10.607091950407458,0.11830485240832
41.873172,10.67123006743564,0.1178176541233855
41.877768,10.738266715786423,0.1172809674823706
41.88234799999999,10.804115418812636,0.1167366795926879
41.886948,10.86734386176143,0.1161802460833407
41.891536,10.927052610185148,0.1156188100102623
41.89614,10.989537705217325,0.1150137708674913
41.900724,11.047848040705071,0.1144030019747392
41.90532399999999,11.098263694143652,0.1138079088439315
41.90992,11.139396492228837,0.1132531590828632
41.914512,11.175210726893653,0.1127033051074135
41.919104,11.201742106205067,0.1121928990346939
41.9237,11.216703022411208,0.1117501833738237
41.928292,11.228677124397484,0.1113077552508336
41.93288799999999,11.232678501069074,0.1109074217214718
41.937476,11.23177200991136,0.1105214528118802
41.942072,11.22235991313375,0.1101677692237021
41.946664,11.213436555212722,0.1097955234446891
41.951252,11.193597799205776,0.1094891036397397
41.95584,11.166930121760084,0.109209231734223
41.960436,11.138175064542173,0.1089208634080351
41.965028,11.105167204514318,0.1086475131136912
41.96961999999999,11.066352042209513,0.1083898725794076
41.974212,11.024427880970697,0.1081325030782495
41.97879999999999,10.98299245858846,0.1078550485382785
41.983396,10.94090197118687,0.1075714122093013
41.987984,10.890472204328155,0.1073389145922443
41.992572,10.83620033025056,0.1071324593606648
41.997168,10.7882244973065,0.106889621859976
42.001756,10.74474583660068,0.1066207248373381
42.006344,10.703066044790155,0.1063401272451789
42.010936,10.664328925750867,0.1060342776358898
42.015536,10.628534479482813,0.1057029617495075
42.020132,10.591596229338816,0.1053837288811344
42.02472399999999,10.563119443366087,0.1050069296798106
42.02932,10.534276103250924,0.1046421392880695
42.0339,10.51634816122168,0.1042150821721826
42.038496,10.498298034478289,0.1037917043160712
42.043088,10.488465002477875,0.103320423632172
42.047688,10.482762588573264,0.1028380540972846
42.05227599999999,10.477226500831424,0.1023769095866984
42.056864,10.477619900080684,0.1018963969523996
42.061448,10.477813071350282,0.1014510756142133
42.06604399999999,10.480870872125593,0.1010147351109744
42.070632,10.482829010473594,0.100619522015209
42.07522399999999,10.483687486394286,0.1002647193093042
42.079816,10.492396502915517,0.0998776290655948
42.084416,10.507157191141992,0.099468587206755
42.089004,10.522206390245383,0.0990810176808748
42.0936,10.537666284939844,0.0987085520749159
42.09818799999999,10.555213559406518,0.0983478729416207
42.10277599999999,10.57497039835955,0.0979939533845504
42.10736,10.602089039056544,0.0976318731138233
42.111952,10.63525935145878,0.0972520056950109
42.116544000000005,10.667940925004432,0.0968943580423898
42.121132,10.70385368219824,0.0965346078579577
42.12572399999999,10.739155515821317,0.0962019405287126
42.130308,10.77409079530196,0.0958829069559749
42.134896,10.811602193411398,0.0955608754495306
42.139504,10.85361076375908,0.0952231833024136
42.144092,10.903059179116232,0.0948495262427742
42.14869999999999,10.95545026724462,0.0944613200215132
42.15329199999999,11.015892123953211,0.0940175981673774
42.157896,11.080420457308978,0.0935480272493291
42.162488,11.14927963674021,0.0930417106840822
42.16708,11.223369096694556,0.0924940971134239
42.171672,11.295004622734249,0.0919533611452611
42.17626799999999,11.366762333488088,0.091415243802158
42.18086,11.436310479755562,0.0908752470568528
42.18544,11.51006728738436,0.0903077862715976
42.190044,11.578916227183852,0.0897464144898879
42.194632,11.64813172112578,0.0891780536227384
42.199236,11.70728710998081,0.0886276560605374
42.203828,11.763333499901831,0.0880798780642287
42.208428,11.816515260317134,0.0875245211115976
42.213016,11.86707676065501,0.0869517216693756
42.217608,11.912974762591874,0.0863765128154737
42.2222,11.959605872813611,0.0857783867586346
42.22679599999999,11.99593250852016,0.08520125757917
42.231392,12.022976288873313,0.0846380476217146
42.235992,12.041758833034852,0.0840826018764218
42.240584,12.05293520602415,0.0835386077237703
42.245172,12.053440550355816,0.0830248228591997
42.24976,12.045318104353443,0.0825268353806291
42.254344,12.03330940968356,0.0820231834159474
42.25892399999999,12.015737782165012,0.081513953798896
42.263524,11.99607877487425,0.0809917270909822
42.26811599999999,11.965993108354152,0.0804854892168236
42.2727,11.930755204576458,0.0799836560997785
42.27729599999999,11.884846272141136,0.0795054300641275
42.281876,11.839303893848246,0.0790122994497378
42.286468,11.78987526688785,0.0785094134409428
42.291056,11.74441093186048,0.077981946275504
42.295644,11.689952252356631,0.0774734692300561
42.300232,11.62985259673861,0.0769820356406071
42.304828,11.56987512583473,0.0764827136859354
42.309416,11.50629991714026,0.0759875037280845
42.314008,11.441947458712288,0.0754868828496837
42.31858799999999,11.382214357236702,0.0749664109081904
42.32318,11.32571243940927,0.0744447947678884
42.32776,11.269743401887048,0.0739284729236039
42.33236,11.21250837577474,0.0734212563412323
42.33694799999999,11.159648337186526,0.0729036515490839
42.341548,11.109364417227107,0.0723796284495908
42.34613999999999,11.05667070480167,0.0718754685011099
42.350736,11.005164937700796,0.0713834466634356
42.35531999999999,10.95623528922872,0.0708864770030309
42.359912,10.91168062828074,0.0703783442561451
42.364504,10.873422008466294,0.0698542486452167
42.3691,10.840559995337737,0.069315312817097
42.373688,10.808108677800242,0.0687881012387606
42.378272,10.775168621406165,0.06827375962543
42.382852,10.740596022279563,0.0677834478420721
42.38744799999999,10.717061005953031,0.0672624356945053
42.39204,10.70137653022704,0.0667330363355149
42.396636,10.685858380663817,0.0662253447472017
42.401228,10.677413521967631,0.0657081230062312
42.405816,10.676041954138489,0.0651856037930278
42.4104,10.67471452775797,0.0646893525074309
42.41498,10.676984839168044,0.0641882548942196
42.419568,10.68735006060695,0.0636774898543812
42.42416399999999,10.70875286484592,0.0631456900516857
42.428752,10.732853972427836,0.0626126000898532
42.433352,10.760064078943756,0.0620924432687232
42.43794799999999,10.795369095488509,0.0615642795890201
42.442536,10.837214522595088,0.061024494700393
42.447132,10.88204676392153,0.0605047216777074
42.451724,10.93857165306739,0.0599771504524118
42.456328,10.995629422518466,0.0594649767916152
42.460904,11.05976048283658,0.0589558720616923
42.465504,11.132475192040106,0.0584297458059214
42.470084,11.210097769072933,0.0579168761132064
42.474692000000005,11.295404560543528,0.0573879849693724
42.47928399999999,11.378423744262244,0.0568823741145865
42.483884,11.461565112695109,0.0563783856311696
42.48847599999999,11.545728100289766,0.0558724322748708
42.493072,11.62862509929434,0.0553832684825272
42.497664,11.702694079985209,0.054926407330275
42.50225999999999,11.782770590932689,0.0544516827197971
42.50684799999999,11.862847101880174,0.053982208503455
42.511448,11.934339963942245,0.0535361703720386
42.516036,11.996471927385397,0.0531106440514173
42.52063199999999,12.056316283076672,0.0527034913444691
42.52522,12.113584520139147,0.0522962963802611
42.529808,12.158671370525616,0.0519091805768733
42.534396,12.195052387312534,0.0515453359355866
42.53899199999999,12.22039582129938,0.0511922545508946
42.543584,12.230737380553132,0.0508632394663401
42.548176,12.235560148406858,0.0505394347453455
42.552772,12.2241150529374,0.0502478804848872
42.557352,12.193337236659383,0.0499987963602328
42.561944,12.1515218375813,0.0497579597391294
42.566536,12.094338009627684,0.0495473495342436
42.571124,12.029469967236308,0.0493506892630364
