Time,Force,Position
36.352724,8.122371857150315,0.1516375049826534
36.35732,8.234818459448102,0.1507433856029858
36.361916,8.328145991470404,0.1498417184627808
36.3665,8.4038648112356,0.1488841779536104
36.371100000000006,8.456832921117828,0.148036602708328
36.375692,8.489881048805922,0.1473484259056247
36.380296,8.505429226397638,0.1468651395335175
36.38488400000001,8.524086402923365,0.146367119360512
36.389472000000005,8.544542448344385,0.1458483101303453
36.394068,8.564509754908823,0.1453551403424139
36.39866,8.580146215397797,0.144943319628494
36.403252,8.593084372543826,0.1445643173364676
36.407848,8.608965202461091,0.1441443558945781
36.412444,8.622924978768912,0.1437527445239734
36.417032,8.632920463143709,0.1434234239467719
36.421624,8.644592631699652,0.1430815272090235
36.426212,8.659085288312687,0.1427053270652847
36.4308,8.672145630172862,0.1423310241016583
36.435392,8.688637383660854,0.1418912841075067
36.43998,8.709337798510164,0.1413853009005616
36.444572,8.725663225835383,0.140921834087459
36.44916799999999,8.739045980389367,0.1405013743604819
36.45376,8.748708812438615,0.1401263606563533
36.458356,8.753263548678893,0.1398303695862578
36.462944,8.758062654347466,0.1395227277127656
36.467528,8.767436975519791,0.1391298294951436
36.472124,8.782574457520445,0.1386653288941949
36.476712,8.795258005606444,0.1382182883933262
36.481308000000006,8.809862607301882,0.137749673654952
36.485896,8.82483376313976,0.1372630511001739
36.490484,8.842336896157805,0.1367226213080479
36.49508,8.859551518298936,0.1361615963602137
36.499672,8.873412772077762,0.1356273694457773
36.504276,8.888129318855611,0.1350531697342228
36.508872,8.903989669509398,0.1344605326941744
36.513468,8.917273901534386,0.1338890926692634
36.518048,8.926060961321136,0.1333616611059262
36.522648,8.937790693879123,0.1327986580966626
36.52724,8.946944307808309,0.1322573943221079
36.531832,8.949924065318106,0.1317710763162478
36.536428,8.960832406693962,0.1311856473705139
36.541016000000006,8.972107302212253,0.1305828229903796
36.545608,8.986447055215924,0.1299389740866549
36.55019599999999,8.999110124038445,0.1293024527330875
36.554788,9.010340878108106,0.1286653202768933
36.559388000000006,9.019239882977262,0.128038318908132
36.56398,9.020943412265233,0.1274769940084395
36.568564,9.021869691819704,0.1269171317035429
36.573156,9.018420983850078,0.1263915309955019
36.577744,9.014972275880456,0.1258654310399449
36.582332,9.010379764034893,0.1253587307356722
36.58692799999999,9.00488781774168,0.1248588269286648
36.591524,8.999273686734323,0.1243640507597984
36.596116,8.992393567136883,0.1238941201568491
36.600712,8.983714578644147,0.1234396590390448
36.605304,8.978877697370292,0.1229436792980785
36.609896,8.97788292331532,0.1224056933140599
36.614484,8.970347738698521,0.1219306472379159
36.61908,8.964733607691167,0.1214352689688276
36.623676,8.960018911131458,0.1209305210156681
36.628268,8.948397249867487,0.1205070257725754
36.632876,8.934732350279928,0.1201079532948618
36.637464,8.917225343473486,0.1197481708900744
36.642052,8.905603682209513,0.1193214886575995
36.64664,8.8946370859649,0.1188977851082797
36.651232,8.881016327825968,0.1185265326055815
36.655840000000005,8.872669991658782,0.1181174963167112
36.660428,8.870253142482692,0.1176774227230344
36.665028,8.868124804183521,0.1172567915930935
36.669608,8.866773715617853,0.1168348173103392
36.674200000000006,8.867099311233336,0.1164050751763959
36.678792,8.873065882962996,0.1159247995502296
36.683392000000005,8.88197512746389,0.1154146697253152
36.68798399999999,8.894359925041233,0.1148857059173346
36.692576,8.907521972352075,0.114356383334569
36.697168,8.915820293282243,0.1138775564843882
36.701752000000006,8.921175941441174,0.1134299327955294
36.706344,8.933971434609578,0.1129194419068098
36.71093199999999,8.946522558349693,0.1124226272909441
36.715520000000005,8.964348104061548,0.1118958866720433
36.720116,8.980130411449817,0.1113900341250427
36.724704,9.003230379133418,0.1108312333576112
36.7293,9.031482584074611,0.1102477064491713
36.733888,9.057324996549776,0.1097079606727601
36.73848399999999,9.083822474044306,0.1091741039452855
36.743076,9.117104731528949,0.1085787668328513
36.747668,9.14793305509894,0.1079941345411092
36.752256,9.171033022782538,0.1074495863841503
36.756836,9.202305943760484,0.1068206950232284
36.761416,9.238564775833252,0.10614935411938
36.766012,9.27506797733431,0.105472149510609
36.7706,9.305808018007044,0.1048487929030626
36.775200000000005,9.33102926727975,0.1042646978284151
36.77978,9.351997713742506,0.1036999829529398
36.78436799999999,9.375253767957137,0.1031075154349523
36.788968,9.404272983000093,0.1024703241025692
36.793552,9.437378674690224,0.1017946444794326
36.798148000000005,9.468807682199202,0.1011307644402118
36.802728,9.50060324385062,0.1004559836213362
36.807332,9.526591503225086,0.0997991860781093
36.81191999999999,9.556910608675018,0.0990914882772033
36.816512,9.580278607972057,0.0984168502932268
36.821108,9.600537608335086,0.0977446109022482
36.825708,9.618342674783465,0.0970757693734857
36.830296,9.63855753369787,0.0963759975091387
36.834892,9.655419024249971,0.0956901066888748
36.839484000000006,9.671381080354427,0.0950086317808407
36.844072,9.69130742839191,0.0942941459173411
36.84866,9.704038300848213,0.0936206796985038
36.853252000000005,9.710350947456831,0.0929858202722127
36.85784,9.714209660150798,0.0923545474806663
36.862428,9.721377599758435,0.0916873714685286
36.867016,9.735330319356194,0.0909736345947687
36.871604,9.750426842829892,0.0902462772018514
36.876188000000006,9.759227325170052,0.0895468117359502
36.880772,9.762631200824329,0.0888722293107897
36.885364,9.764358392297453,0.0882033118108198
36.889952,9.763509465141778,0.0875413656026613
36.89454799999999,9.75714174658607,0.0869045588113846
36.89914,9.750529658602074,0.086274644434993
36.903732,9.741996517008632,0.0856561722016706
36.908328,9.735506613738782,0.0850195399927972
36.912912,9.730160514344869,0.0843701329413919
36.917504,9.730944129921715,0.083673002013019
36.922088,9.72992887660327,0.0829851232269719
36.92668,9.726093135227734,0.0823108822892093
36.931276,9.725200066623431,0.0816181141612152
36.935856,9.724062628590838,0.0809360690678695
36.940456000000005,9.721537017254017,0.0802738701290729
36.945044,9.720932459526631,0.0796009050855697
36.94964,9.719306282637456,0.0789336829437144
36.95422799999999,9.716658486586487,0.0782758746850218
36.958832,9.711312387192576,0.0776292962240998
36.963424,9.709564025589254,0.076974168220185
36.96802,9.71488895485297,0.0763028044183058
36.972616,9.720991133850186,0.0756317602456349
36.977212,9.726726758704968,0.0749762099613194
36.9818,9.73401688302675,0.0743252568908177
36.986396000000006,9.747847417910364,0.0736480967283784
36.990988,9.76936216723174,0.0729377133520245
36.99557599999999,9.796395707953153,0.0722134072699837
37.00016,9.825760997875069,0.0715000047677489
37.004748,9.854759733654546,0.070803459052625
37.009328,9.882370296129794,0.0701341411370217
37.013928,9.908959239443249,0.0694736690575738
37.01852,9.940167539709089,0.0688015176869325
37.023108,9.969332601651342,0.0681450215707913
37.027708,10.00426082442192,0.067472081422909
37.032292000000005,10.04303115441138,0.066784914956446
37.03688399999999,10.081923669114984,0.066097641408494
37.041472000000006,10.127112224952128,0.0654032605272768
37.046056,10.172056411360977,0.0647214312136596
37.050648,10.214468620589654,0.064070568352785
37.055240000000005,10.251117668990013,0.063444734105358
37.05983199999999,10.28686728294272,0.062826482112778
37.064432,10.329279492171398,0.0621913288364238
37.069024000000006,10.372835505276017,0.0615505378050219
37.07362800000001,10.418434756704222,0.0609036584583545
37.078224,10.463134573684782,0.0602639293516117
37.082816,10.500927425961075,0.0596581647920932
37.0874,10.53307930212319,0.0590709645967425
37.091992,10.562655059656509,0.0584855879728272
37.096572,10.59517348996106,0.0578934442182577
37.101172,10.620129890541994,0.0573205647843097
37.10576,10.64304305279934,0.0567574670118307
37.110356,10.66276917285716,0.056215402042451
37.114948000000005,10.684416346524422,0.0556696126591467
37.119544,10.6915945257638,0.055166998625446
37.124132,10.695052782498442,0.0546712332666176
37.12872,10.690993150958093,0.054218108707651
37.133304,10.67859423996062,0.053778227443251
37.137892,10.660432168134824,0.0533515653350986
37.14248,10.639571792966082,0.052923780372802
37.147068,10.614747125864312,0.0525065018710012
37.15166,10.58019500600119,0.0521162263230252
37.156256000000006,10.531173891710186,0.0517630290713056
37.160852,10.471159336067744,0.051448217915257
37.16544,10.398474654892713,0.0511680452838622
37.38130399999999,3.534145655241893,0.0510640834663572
37.385904,3.4113677333220918,0.0510280925186284
37.390488,3.287690376954643,0.0509744822323264
37.395088,3.164912455034842,0.050921662445121
37.399672,3.04213453311504,0.0508583484159114
37.404272,2.92409815286177,0.0507602113305367
