Time,Force,Position
35.939843999999994,4.145790896232226,0.1637216694202442
35.944447999999994,4.48254800639512,0.1623849568321488
35.94903599999999,4.80431666437833,0.161061547641254
35.953627999999995,5.105822448210118,0.1600297794749114
35.95822,5.394593485797213,0.1590641052795728
35.96281199999999,5.671651396301407,0.1580403209132843
35.96741599999999,5.941248982532652,0.1568243233176612
35.972004,6.200687941148,0.1555764361160228
35.9766,6.4437502742794335,0.1544201105698591
35.981188,6.665816624974572,0.1533806318033213
35.98578799999999,6.874326838242888,0.1522983313887518
35.990376,7.067237675760792,0.1512226254483384
35.994975999999994,7.246802843463274,0.1501555845907992
35.99956399999999,7.417186861263027,0.1489591811588244
36.004164,7.568373765521779,0.1477681517764073
36.008748,7.701873914257903,0.1465675798727211
36.013344,7.814989004128459,0.1453878608163949
36.017936,7.910539523190535,0.1441729675707162
36.022532,7.980518844312557,0.1431076424160004
36.027128,8.026736076021557,0.142275656569206
36.031728,8.061094333748361,0.1415752836166509
36.03632,8.092343592541157,0.1408953413148012
36.04091999999999,8.121383286847593,0.1402255581641653
36.045508,8.147436166934165,0.1395647707821805
36.050096,8.166249429990925,0.1389552713950031
36.054684,8.179744129627318,0.1383686760993528
36.05927199999999,8.190452243023511,0.1377483425963921
36.063864,8.19645271657006,0.137119069585178
36.068456,8.192393085029712,0.1365691565712738
36.073052,8.18583537812608,0.1359971327900926
36.07764,8.168728827278969,0.1355300618641795
36.082232,8.145037724421398,0.1351078042223312
36.08682399999999,8.11831566589534,0.1346547659698534
36.091412,8.081289132854089,0.1342903452932968
36.096008,8.045362262240147,0.1338635304473369
36.100596,8.00350590463511,0.133480584125426
36.10520399999999,7.959073428401274,0.1331160563320544
36.109796,7.912431387681076,0.1327484794899453
36.114392,7.864967955778746,0.1323442300963795
36.118992,7.822568478236759,0.1318167837133856
36.123588,7.780002674531995,0.1312537762054713
36.128188,7.734982936912582,0.1307007194389654
36.13278,7.687875819520952,0.1301363061860539
36.137372,7.643467005472264,0.1295372618567466
36.14196,7.602123048908959,0.1288844048629935
36.14656,7.560534722917361,0.1282398941522607
36.15114,7.510895628345562,0.1277123238995717
36.155744,7.458602371879447,0.1272450051296111
36.160332,7.414404025442161,0.1266871593082102
36.16493199999999,7.373314677938884,0.1261132551509556
36.16952799999999,7.3405646098927315,0.1254362366109128
36.17412,7.311945159942378,0.124728747155098
36.178716,7.284758024744885,0.1240201058229475
36.183308,7.260924257909692,0.123282521019638
36.187896,7.239177870846715,0.1225487624109497
36.192496,7.222339351613041,0.1217833619160873
36.197088,7.209875819903464,0.1209773785272733
36.20168,7.196190441052426,0.1202361650943112
36.206268,7.192809536716583,0.1194165466312208
36.21085599999999,7.188861850258638,0.1186732762759848
36.215444,7.188433858325768,0.11794239174759
36.220032,7.194590418403354,0.1171775338753164
36.224624,7.203900118863574,0.116445233987657
36.229216,7.21529719909601,0.1157258128461424
36.2338,7.2258389863294274,0.1150545395960667
36.23838,7.24320969500159,0.1143423657093696
36.242972,7.268308759560147,0.1135736686735391
36.247568,7.297538442214506,0.1127859589894744
36.25215599999999,7.325546277727408,0.1120717809702682
36.256752,7.356418742746029,0.111371692178133
36.261332,7.389911467842074,0.1107049581399799
36.26592,7.42843424548157,0.1100232228445076
36.27052,7.468022783731489,0.1093719311717601
36.275108,7.512519189810709,0.1087086166025566
36.2797,7.563844517328677,0.1080214270214001
36.284288,7.619833343247659,0.107341346404577
36.28888799999999,7.675866310615266,0.1067066764569435
36.293468,7.739339122992349,0.1060091719306593
36.298068,7.797581654846319,0.105395877736259
36.30266,7.856601436433791,0.104786318222248
36.307256,7.91537684859297,0.1041960998328824
36.311848,7.974030076038004,0.1036226537346955
36.316444,8.033827107358977,0.1030361468741051
36.321052,8.09145871564222,0.1024853080731741
36.325644,8.153831865591991,0.101897841592946
36.330236,8.214406146646468,0.1013345794763697
36.334832,8.278944719633971,0.1007422220771318
36.339424,8.344382727069123,0.1001517490284258
36.34401999999999,8.411453277236799,0.0995259987793391
36.348608,8.47966763128041,0.0988931617441238
36.353196,8.543751367228223,0.0982790489077013
36.357784,8.596675335661823,0.097749179798506
36.362376,8.64804480462842,0.0972222346306303
36.366972,8.699125762718095,0.0966822496734526
36.37156,8.741334561045438,0.0961960246889621
36.376152,8.776836622648183,0.0957323329535681
36.38074,8.811395108354649,0.0952434245300015
36.385336,8.842600225698817,0.0947694714640451
36.38992399999999,8.873761201594357,0.0942647254656122
36.394512,8.90422297102191,0.0937244455562572
36.399108,8.934396229572544,0.0931658667849928
36.403696,8.960194500599087,0.0926274443365235
36.408284,8.985459891320415,0.0920816317220386
36.41288,9.010436771164828,0.0915145604031161
36.41746799999999,9.032959717094586,0.0909557610789164
36.422076,9.050452610480894,0.090408895905669
36.42667599999999,9.059728409124226,0.0899087354132816
36.43127199999999,9.0642185246524,0.0894085292371958
36.435852,9.066376890980068,0.0889066922464312
36.440448,9.065548443087872,0.0883978802267829
36.44504,9.06598598378576,0.0878709569971042
36.449636,9.072675424168557,0.0872817718912451
36.45421999999999,9.080875222569729,0.0866649358288757
36.45882,9.080491372085488,0.0861023506773068
36.463412,9.080351891029537,0.085527968198986
36.468008,9.082500017725463,0.0849253218850757
36.47259999999999,9.083748709973744,0.0843270397604223
36.477196,9.082543468307373,0.0837297677502574
36.481788,9.083137095536294,0.0831276890396531
36.486384,9.083486353336928,0.0825370942177528
36.490976,9.082281111670556,0.0819442213295858
36.495568,9.083485662470208,0.0813193518349037
36.500148,9.083912963536358,0.0806944651068586
36.504736,9.084340264602508,0.0800693758763019
36.50932399999999,9.081047643163922,0.0794614398833876
36.51392,9.083395997839512,0.0788261991020223
36.51850399999999,9.084844918067455,0.0781903264501865
36.523092,9.092589879428935,0.0775356699692352
36.527688,9.104709828314506,0.07687556031607
36.532276,9.11568597332414,0.0762296154054515
36.536868,9.125762683886125,0.0755890880974574
36.541456,9.14058093611464,0.0749311640069426
36.546044,9.15527700362901,0.0742819053391905
36.550656,9.18059995835238,0.0735774643202926
36.555244,9.21180825861822,0.0728443179421215
36.55983199999999,9.242650004741622,0.0721289028522231
36.56442,9.276067869493822,0.0714154155781307
36.569008,9.312306222303112,0.0706936574021058
36.573612,9.34584627176946,0.0699830135304719
36.578208,9.380285755683456,0.0692746818936256
36.582804,9.418445162102186,0.0685596188025086
36.587392,9.460202306311508,0.0678449630520072
36.591992,9.503103254396772,0.0671246677272205
36.596576,9.547270191072116,0.0663924720518396
36.60117999999999,9.597566842718228,0.0656273135807722
36.605772,9.644387941287889,0.064871403585806
36.610372,9.70105867733305,0.0640743466637702
36.614968,9.75551984889185,0.0632743328284793
36.619564,9.80380716403126,0.0624857051911698
36.624144,9.852461033313109,0.0616868589826404
36.62873999999999,9.9004598375756,0.0608847105117208
36.633328,9.94293985043806,0.0601026402799429
36.637924,9.979901071900484,0.0593324428863699
36.642512,10.011343501962878,0.0585802573678176
36.6471,10.034979532873358,0.0578611184273331
36.65168799999999,10.056161629869187,0.0571362786873496
36.65628399999999,10.07386817378857,0.0564128921879674
36.660868,10.088387675508429,0.0557106133776821
36.665468,10.098043450847609,0.0550223149211365
36.67005999999999,10.103979303682053,0.0543415912546721
36.674652,10.097367215698052,0.0536968361996036
36.679248,10.078984436629115,0.0530925148042179
36.68383599999999,10.052673073694123,0.0525155725087615
36.688424,10.023174668559603,0.0519554327203013
36.693008,9.98153901819771,0.0514453056556105
36.697596,9.930708795379669,0.0509726169905153
36.702192,9.865409578133743,0.0505369840817081
36.706788,9.786829311784508,0.0501571432854725
36.711376,9.7057170682551,0.0497989491382735
36.715972,9.615410252269552,0.0494772632430513
36.72056,9.513865625504277,0.0492021286790199
36.72516399999999,9.403248610997,0.0489594984415634
36.72976,9.290221804023702,0.0487343880776618
36.982308,3.34828593746016,0.0485590454412317
