Time,Force,Position
37.004384,4.895265882118819,0.1619370594724964
37.008988,5.2499336379691535,0.1592028092148424
37.013576,5.582040672284446,0.1569478245937932
37.01818,5.876619012148492,0.1554252018179231
37.022776,6.138630906470966,0.1545967304359134
37.02738,6.3821346540886825,0.1537041104648482
37.03196,6.591639641411966,0.1532243139690854
37.03656,6.780637385155536,0.1527872853859415
37.041148,6.939512377640443,0.1524452001638512
37.045752,7.0730944434304766,0.1521708894314723
37.050336,7.188290547229902,0.1517974761989044
37.05494,7.274517943278343,0.1516015592576904
37.059524,7.343269051415558,0.1514275085772819
37.06412,7.401162325468896,0.1511083767040033
37.0687,7.4419017243048176,0.1507413620793042
37.073292,7.466220356208199,0.1502842050288355
37.077892,7.468843799207298,0.1498125377882263
37.082484,7.451248509503602,0.149362379735125
37.279884,8.155428601025013,0.1492706715706511
37.284476,8.200407380117474,0.1492566631402664
37.289064,8.249184124980188,0.1491537968850484
37.29366,8.302047346490076,0.1489843386298543
37.298252,8.359241414075429,0.1487333319962658
37.302848,8.413981547746129,0.1485022278386983
37.307436,8.467167181949826,0.1482768385980221
37.312032,8.525216542534197,0.1479783447550789
37.316612,8.584776261136946,0.1476425446294392
37.321212,8.650710064138746,0.1471912979352612
37.325796,8.720441832910803,0.1466542939696091
37.330392,8.784121929977614,0.1461811270843736
37.334976,8.841339659748117,0.1457573089684923
37.33958,8.895937129441192,0.1453273329697583
37.34416,8.939452874885575,0.1450063164478603
37.348752,8.982269413861976,0.1446518422215771
37.353336,9.027984484160982,0.1442232098451599
37.357928,9.0657268291453,0.1438847002158066
37.362516,9.09627369854844,0.1436240667788082
37.3671,9.126043318218072,0.1433677526635373
37.371692,9.159899414534884,0.1430520086129147
37.376284,9.18991340363281,0.1427909337904948
37.380868,9.216085285511854,0.1425821375018744
37.385448,9.241602102371544,0.1423748069884726
37.39004,9.265686604478372,0.1421710063013877
37.394628,9.29001547601349,0.1419558544913776
37.39922,9.32059624723352,0.1416489036150643
37.403816,9.348845269253037,0.1413540769994066
37.408404,9.372474934320174,0.1411110086186207
37.413012,9.392506861596717,0.1409051740807264
37.4176,9.409718300816174,0.1407332801904862
37.422204,9.430116782235157,0.1405130670672947
37.4268,9.450393078939989,0.1402975260546501
37.431388,9.475166547883063,0.1400411258716117
37.43598,9.496508605198322,0.1398412505438256
37.440572,9.516706858637642,0.1396620806606495
37.445164,9.538581796258107,0.1394740283199631
37.449744,9.559679484145075,0.1392888281242865
37.454336,9.589072310040535,0.1389858688075928
37.458924,9.621896547563813,0.1386272977839557
37.463524,9.65328847033423,0.1382751743031149
37.468108,9.680549775008846,0.1379477291530174
37.4727,9.709321437701837,0.137586460368518
37.477292,9.735883535908467,0.1372319150286438
37.481884,9.763711622705186,0.1368567753429585
37.486476,9.794193871396216,0.136431326379085
37.491072,9.820545501991448,0.1360357797529092
37.49566,9.8485296753192,0.1356035808807934
37.500252,9.879412379969557,0.1351097991696923
37.50484,9.91192762735244,0.1345787584166392
37.509436,9.944520918000835,0.1340160606920932
37.514016,9.976825697772314,0.1334392813830661
37.518612,10.012928443314046,0.1327954930710226
37.523204,10.04310170186468,0.1321927617648544
37.527792,10.080915033404452,0.1314789391000994
37.532384,10.11970584265739,0.1307259077234758
37.536972,10.15256716491923,0.1300121413177695
37.541568,10.186283780180087,0.1292627554911848
37.54616,10.21292710457391,0.1285715900703995
37.550748,10.23376312669078,0.1279136143052136
37.555344,10.250468530711847,0.1272785852577791
37.559932,10.270194650769668,0.1265776096042933
37.56452,10.288322129911856,0.1258554262543707
37.569108,10.302563360386532,0.1251426469577729
37.573708,10.310997288584256,0.1244590226153913
37.5783,10.312602295343234,0.123815411074433
37.582888,10.308033445682824,0.1232126291778986
37.587492,10.297535109031314,0.1226412438678963
37.59208,10.281395796265627,0.1221188640854086
37.59668,10.263946353461227,0.1215893107641234
37.601268,10.241877553704445,0.1210957965160269
37.605868,10.21555595113771,0.1206233428450055
37.61046,10.18330486157988,0.1201791250697712
37.615056,10.15076526114513,0.1197135528719418
37.61964,10.11601609622402,0.1192452943629977
37.624236,10.07419364043587,0.1188194072230551
37.628824,10.033226477646744,0.1183546747720216
37.633416,9.993647488161844,0.1178603581512627
37.638008,9.956233921714675,0.117335337857608
37.6426,9.918043105534007,0.1168076363940168
37.647192,9.875477301829244,0.1163018136915198
37.651776,9.832789313410334,0.1157973957076839
37.656356,9.785359783324896,0.1153287488492322
37.660948,9.7380524379536,0.1148503404319639
37.665544,9.691111646724746,0.1143518154745234
37.670132,9.648912397162418,0.1138084914061261
37.674732,9.61182124340906,0.1132049743319825
37.67932,9.57755057771279,0.1125738368310718
37.683912,9.54928744227314,0.111878319618593
37.688504,9.51832600349054,0.1111966780237841
37.693092,9.49337209496456,0.1104513294324666
37.697704,9.469317620886226,0.1096956674232108
37.702296,9.445673842398955,0.1089492672347396
37.706888,9.421907879197544,0.1082040383023376
37.711476,9.39699811212019,0.1074724338204532
37.716064,9.3823486781094,0.1066603824336991
37.72066,9.370153178013265,0.1058407063468345
37.725252,9.354770635717598,0.1050565465791325
37.729848,9.337467039812491,0.104285907246378
37.734428,9.32016344390739,0.1035102377818162
37.739016,9.31029969301176,0.1026781860446443
37.743604,9.301213191849632,0.1018464017911569
37.748204,9.296257308783307,0.1010001040224611
37.752796,9.29530985909864,0.1001479674805223
37.757392,9.297593593062125,0.0992899443989508
37.761984,9.299632957597318,0.098444729314371
37.76658,9.30286026745708,0.0976178090584623
37.771168,9.307642076783845,0.0967922582801196
37.775764,9.311280082234672,0.0959849890813976
37.780352,9.319293075209591,0.0951600044815984
37.784948,9.325917894880282,0.0943634674982768
37.789536,9.33793932123686,0.0935433208136205
37.79412,9.357400592602913,0.0926816629879734
37.798712,9.38250284008314,0.0917891986864247
37.803308,9.408504522011018,0.0908941851814003
37.807896,9.430175357863432,0.0900512630884627
37.812496,9.450458020411611,0.0892346002981674
37.817092,9.474338420750383,0.0884041413083867
37.82168,9.502715993327396,0.0875580114459349
37.826272,9.540332279809178,0.0866721745418059
37.83086,9.57794856629096,0.0857943111058477
37.835452,9.613643799163302,0.0849314645570157
37.84004,9.65330332396867,0.0840473163745874
37.844628,9.694717576220704,0.0831352177650737
37.849224,9.737397817062828,0.0822126796152994
37.853812,9.7809774923526,0.0812937775356679
37.8584,9.82312485288951,0.0803723952558772
37.862996,9.86743763646415,0.0794390538195018
37.867596,9.912772039200588,0.0785053492765257
37.872196,9.956307573041729,0.0775830746984082
37.87678,9.998166422701718,0.0766650675019431
37.881372,10.03757133844706,0.0757546476701982
37.885952,10.07272345138245,0.0748561686335145
37.890548,10.104033457098955,0.0739833197593342
37.89514,10.137264516424908,0.0731060553405506
37.89974,10.173027552931028,0.0722021757985269
37.904324,10.210300947455524,0.0712775838586454
37.90892,10.250106319160189,0.0703320480591997
37.913512,10.28463726889311,0.0693976578070586
37.9181,10.311728373616562,0.0684957410515879
37.922688,10.338164413320657,0.0675926804030224
37.92728,10.366888060776628,0.0666716649630422
37.931872,10.392013970442006,0.065763419772031
37.936468,10.40945566566962,0.0648859150534112
37.941056,10.426775176183089,0.0640178990728127
37.945644,10.436777026401227,0.0631635350648294
37.950232,10.44485782300993,0.0623157221942619
37.954816,10.4481970779521,0.0614844769818401
37.9594,10.442952684008857,0.0606775056891884
37.96398,10.435009986722664,0.0598717238245864
37.968576,10.4222035630558,0.0590786911021809
37.973172,10.40146855552288,0.0583145335542664
37.97776,10.37370439857155,0.0575769319676908
37.982352,10.341076515239545,0.0568518787094988
37.98694,10.301663851917418,0.0561460070025926
37.991528,10.253178800853297,0.0554761268735924
37.996124,10.19586573147547,0.0548315790637975
