Time,Force,Position
36.455572,7.532692442674469,0.1497612028606989
36.460168,7.64518000349921,0.1494042964165728
36.464752,7.736182843031071,0.1491082646483703
36.469352,7.810320318222439,0.1487810506918612
36.473936,7.869347156519976,0.1483668925186605
36.478532,7.912363923476038,0.1478803483307006
36.48314,7.938182673766056,0.1473092253171703
36.487732,7.944882353780589,0.1466922426516774
36.492324,7.934149887332527,0.1461255208326998
36.49692,7.907505872071985,0.1456713547592723
36.501512,7.883071421297801,0.1452104000201663
36.506104,7.867475228469063,0.144722808628515
36.510684,7.85527654545125,0.1442403865852914
36.515268,7.846397328978851,0.1438051354290726
36.519856,7.851420324812233,0.1432248737593484
36.524448,7.866337099569742,0.1425283917020794
36.529044,7.883263210833949,0.1418739049180452
36.53362,7.901010713280287,0.1412516586572551
36.538216,7.921544801966825,0.1406734437309887
36.542804,7.945232031036001,0.1401186722575345
36.547396,7.973049878200976,0.1395356822539806
36.551984,8.000911866814583,0.138990500675672
36.556572,8.029673289875836,0.1384366997930707
36.561164,8.063298439317764,0.1378187294782027
36.565752,8.096557034617257,0.1372271525853117
36.57034,8.13124794466961,0.1366420001551295
36.574936,8.168148419208322,0.1360573704049746
36.579528,8.203416351014512,0.135522822930586
36.58412,8.243425824487232,0.1349321064082953
36.588708,8.287932470198195,0.1342955977129286
36.593308,8.33117312731907,0.1336947929395991
36.597896,8.37375871942059,0.1330957694992336
36.6025,8.410581150693785,0.1325712830908918
36.607088,8.447770136109417,0.1320324052521136
36.611688,8.480339764572664,0.1315529259479722
36.616284,8.508778774940106,0.1311062208145037
36.62088,8.539216882182512,0.1305970462408534
36.625468,8.57206478189094,0.1300429946575691
36.63006,8.603069671255444,0.1294759841687682
36.634648,8.634030419171317,0.128880576726952
36.639244,8.663436667620191,0.1282960686901106
36.643832,8.693209470211498,0.127695007712844
36.648424,8.721017077744737,0.12708438221308
36.653016,8.74289519828688,0.1265184424415321
36.657604,8.761664319895011,0.1259630939922612
36.662192,8.777324442569135,0.125419370088056
36.666788,8.792940423794631,0.1248465930476274
36.671372,8.810188947752648,0.1242315542179279
36.675952,8.82252960388136,0.123643284391076
36.680544,8.826364654390177,0.1231073725541127
36.685132,8.827579444821566,0.1225564123258594
36.68972,8.825685236318948,0.1220124531591085
36.694316,8.83106454666303,0.1213688350557892
36.698904,8.833867738378316,0.1207427115095385
36.703512,8.834216996178947,0.120126565705232
36.708092,8.829824712313048,0.1195573548800523
36.71268,8.823633559551858,0.1190036060317817
36.717284,8.815887907323658,0.1184543982943915
36.721876,8.805566136466663,0.1179200256825113
36.726472,8.793201127286078,0.1174116176763834
36.731052,8.776461130581403,0.1169317953152951
36.735652,8.759310438285661,0.1164351808534851
36.740244,8.74383643017107,0.115928970864619
36.744844,8.731182910113567,0.1153954156306947
36.749436,8.719428824503712,0.1148535113043138
36.754032,8.707796923608003,0.1143049394470859
36.758632,8.695798468569857,0.1137743747231902
36.763232,8.68380001353171,0.113243758520235
36.767824,8.672578808227067,0.1127108256169434
36.77242,8.672517370436635,0.1120818206657437
36.777016,8.675687116294357,0.1114450912841212
36.781612,8.68245459994267,0.11078302189686
36.786208,8.683214553334365,0.1101884824000672
36.790808,8.6876944292308,0.1095646774062949
36.795396,8.69372880459424,0.1089381575861934
36.8,8.706425775233653,0.1082510099704154
36.80458,8.719244930587209,0.107558976491527
36.809164,8.729776478188889,0.1069016341789824
36.813748,8.745826817190599,0.1062048610958642
36.81834,8.76073335231637,0.1055247260000692
36.822924,8.77821600607094,0.1048304193405388
36.827516,8.796109355416576,0.1041542274089797
36.832112,8.812981085600416,0.1034909107546449
36.8367,8.827032327727169,0.1028522016457783
36.841292,8.84198300430157,0.1022091996244464
36.845884,8.856689311447678,0.1015779738180545
36.850472,8.865510273051317,0.1010011235919009
36.855068,8.873964680512517,0.1004423735460757
36.85966,8.882296903259574,0.0998893437041778
36.864264,8.884499411035868,0.0994052524979876
36.868856,8.884780865202723,0.0989389450262617
36.873444,8.882896896331843,0.0985001377779853
36.87804,8.884732849965701,0.098034711588346
36.88262,8.88542499972362,0.097587529764937
36.887216,8.889304191681065,0.0971050637380459
36.891796,8.891017960600777,0.0966504826246938
36.896396,8.896984532330439,0.096184737281221
36.900988,8.905893776831334,0.0956943207809568
36.905584,8.9108387293992,0.0952409172512284
36.910184,8.918726354738302,0.0947634569751796
36.914784,8.929190098706203,0.0942790155683448
36.919368,8.939776027388247,0.0937904637709416
36.923964,8.952038640251441,0.0932993278708339
36.928568,8.96753243676279,0.092807361243113
36.93316,8.984580732741144,0.0923197411776412
36.937752,9.005104581795946,0.0918226977573916
36.942348,9.035233698897953,0.091258919872292
36.946936,9.066384435161751,0.090688685334151
36.951532,9.098190236444909,0.0901258787983988
36.95612,9.131506395746442,0.089534832021068
36.960708,9.164045305314472,0.0889444037640022
36.965296,9.200304137387242,0.0883365416284098
36.969892,9.236685154174156,0.0877281869432144
36.974484,9.270123498189834,0.0871432368868766
36.979072,9.2991088114159,0.0866115216605523
36.983664,9.331158982127349,0.0860577985896301
36.988244,9.357568176724616,0.0855396792411321
36.992836,9.387941663254916,0.0849985773911362
36.99742,9.422035072289953,0.0844416862300012
37.002008,9.454740308020757,0.0839106718597016
37.006596,9.484869425122762,0.0833878584308369
37.011192,9.517696845567713,0.0828589710428474
37.01578,9.553344754069752,0.0823205256551702
37.020388,9.591280270323669,0.0817626543372284
37.02498,9.626639667948789,0.0812124876273422
37.029584,9.658645697211607,0.0806689067771034
37.034164,9.683866946484311,0.0801695641812856
37.038764,9.708310946023513,0.0796710536380074
37.043356,9.736841422209888,0.0791461237342717
37.047944,9.76614914812976,0.0786262177899114
37.052532,9.800320600430314,0.0780828807922585
37.057128,9.834736422159157,0.0775365916214261
37.061712,9.872094916659236,0.0769794525111128
37.066308,9.911618834197048,0.0764044282606608
37.070896,9.959315705029208,0.0757779026776645
37.075492,10.002148849480694,0.0751811989834869
37.080088,10.050090089741143,0.0745534211820648
37.084684,10.091368734725622,0.0739613135121913
37.089272,10.128272392186007,0.0733796134319625
37.093856,10.168729645988355,0.0727645177539868
37.098444,10.210330703666644,0.0721407518871014
37.103036,10.249600012144429,0.0715153833461732
37.107624,10.286537571421704,0.0708893576580423
37.11222,10.317956339298943,0.070283816779132
37.116812,10.351296160785628,0.0696723151188605
37.121392,10.386557035881752,0.0690554773163929
37.125988,10.424227703443902,0.068414577962895
37.130572,10.459855132682463,0.0677870311459545
37.13516,10.490985389682786,0.0671731722384949
37.139756,10.523259450559046,0.0665536573408292
37.144344,10.54989253532113,0.0659563825150543
37.148952,10.572028447844971,0.0653699507100551
37.15354,10.58852338425464,0.064804156568327
37.158128,10.607183743702038,0.0642259606544229
37.162732,10.615583770082871,0.0636779355657846
37.167324,10.62729302337738,0.0631060044051395
37.17192,10.631562431662411,0.0625531026201402
37.176508,10.63427734048044,0.0619924916947452
37.181112,10.639035487622056,0.0614213146924918
37.185692,10.635332170592404,0.060872593784502
37.190292,10.6317510382769,0.0603204887707626
37.194872,10.626248852351951,0.0597743704519918
37.199472,10.61612730947462,0.0592364903554564
37.20406,10.604451267130282,0.0586898475766761
37.208652,10.590321290871293,0.0581374244290634
37.213244,10.56862928488868,0.0576014504609788
37.21784,10.54501622529663,0.0570699417670499
37.222436,10.523935142884747,0.0565109966538402
37.227032,10.499011953253984,0.0559600884379813
37.231624,10.466404549185455,0.0554287115019874
37.236208,10.430976657059835,0.0548995148503394
37.2408,10.39248390744884,0.054380577377776
37.245388,10.349904681190669,0.0538763724877992
37.249968,10.297720186885288,0.0533942762052383
37.25456,10.24823399592285,0.0529060397587277
37.259156,10.193761893865588,0.0524334564301849
37.263744,10.141988095151271,0.0519548781960426
37.268336,10.08984774229452,0.0514839600733582
37.272924,10.029900990285856,0.0510317355296651
37.277528,9.970364933868256,0.0505904312392623
37.282112,9.903677543318103,0.0501765002582146
