Time,Force,Position
37.413924,6.471723517108721,0.1505483018093797
37.41851199999999,6.570454712526976,0.1500619253889824
37.423108,6.652653195930282,0.1496430592111655
37.427688,6.721305781538506,0.1492630168414288
37.43228799999999,6.7804209027333,0.1488812252970094
37.436884,6.8300427009632925,0.1485415860675098
37.441484,6.875489739648856,0.1482055624731182
37.446076,6.920481941294726,0.1478157788639001
37.450676,6.967473239815556,0.1473450454948813
37.45528,7.016585819925492,0.1467937291108428
37.45986,7.064344128548084,0.1461953178126616
37.464456,7.103841200979072,0.1456818177662316
37.469036,7.13303379889487,0.1452922934221997
37.473636,7.151144672561974,0.1450288944296953
37.478224,7.168967035352155,0.1447436425387003
37.482824,7.186500887265422,0.1444382131416869
37.48741999999999,7.199781936368739,0.1441803276257891
37.492012,7.212407920452696,0.1439237776898805
37.49659199999999,7.22875382704139,0.1436130406116342
37.501188,7.241501995839496,0.1433517142656819
37.505784,7.252329111028159,0.1431239037795337
37.510384,7.267242702863997,0.142820025288469
37.51497199999999,7.28227847941398,0.1425098399429574
37.51956799999999,7.301933612916349,0.1421379311881695
37.524156,7.321466561704573,0.1417750618848761
37.528744,7.341776760226299,0.1414095099880092
37.533332,7.362086958748024,0.1410444783652779
37.537928,7.378310680622574,0.1407555985308243
37.54252,7.391713914440036,0.1405098877262445
37.547112,7.402418844914552,0.1403014692229615
37.551708,7.4176209476273085,0.1400417231124419
37.556296,7.4375645920065985,0.1397138127457788
37.560888,7.463637951356645,0.139277720533017
37.565476,7.496618275410957,0.1387258273086943
37.570064,7.527921915284121,0.1381943179572221
37.57466,7.552929514023749,0.1377400934569567
37.57924799999999,7.57920310135346,0.1372533743049799
37.583836,7.60163458146429,0.1368260731863389
37.58842799999999,7.619691074051025,0.1364466380691052
37.59302,7.638769185799556,0.136049557170273
37.597624,7.657314417242874,0.1356440551053891
37.602212,7.676881267847989,0.1352265873002655
37.606816,7.695137988414389,0.134803150398857
37.61140399999999,7.705666353094393,0.1344531768216652
37.616004,7.717827260506921,0.1340546531339176
37.620584,7.728555853166588,0.1336566437201375
37.625184,7.74259367273993,0.1331978794282829
37.629772,7.758386219759938,0.1326820221473854
37.634372,7.771724832865294,0.1321808530262803
37.638968,7.779544654570617,0.1317455400831433
37.643564,7.77926956624711,0.13140010216856
37.64815599999999,7.776540544008949,0.1310711695041635
37.652744,7.773811521770788,0.1307438525261618
37.657348,7.771981933980277,0.1304083283349889
37.661944,7.769619465884552,0.1300628938049089
37.66654,7.770321855274207,0.1296683551985646
37.671136,7.769469745196861,0.1292787510141308
37.675724,7.772948481194978,0.1288133976854538
37.680312,7.782312562735567,0.1282685088417047
37.684904,7.791143763970943,0.1277134039487994
37.6895,7.799730595778029,0.1271724242420916
37.694088,7.803575885918583,0.1266912924654925
37.69868399999999,7.809997294687935,0.1261912445873311
37.70327999999999,7.821693125429031,0.1256438639917941
37.707868,7.82930247952295,0.1251594197006642
37.712464,7.841531190569258,0.1246281016362408
37.71705599999999,7.847752371358946,0.1241822521884764
37.721648,7.852707563558551,0.1237648461068978
37.72623599999999,7.864325351034129,0.1232702093741193
37.730828,7.881584114623885,0.1227114282345936
37.73542,7.905627658203758,0.122068725213714
37.740008,7.931470070678928,0.1214115742452628
37.7446,7.952693126201711,0.1208037580207719
37.749196,7.972894562562703,0.1202151066297029
37.753784,7.990808391171816,0.1196681476190693
37.75838,8.010643273390368,0.1191022874096899
37.76295999999999,8.036119131723101,0.118479981700777
37.767556,8.05583182922751,0.1179266739059011
37.772144,8.070925169779532,0.1174234140142085
37.77674,8.088838998388647,0.1168938162895963
37.781328,8.108263185016135,0.1163284127389396
37.785928,8.129974979395502,0.1157234157811924
37.790524,8.151276078183804,0.1151063856587305
37.795112,8.170123243057454,0.1145019857373862
37.799704,8.189336962073538,0.1138774291673999
37.8043,8.205075128013181,0.1132815508619761
37.808904,8.223223086418844,0.1126389998791267
37.8135,8.244558087024037,0.1119539597921154
37.818088,8.261518100105132,0.111303843550362
37.822684,8.275246929538078,0.1106655684132791
37.827272,8.282679717837485,0.1100762850888575
37.83186,8.288680191384035,0.1094839941092417
37.83644,8.297867707130113,0.1088470059258645
37.841036,8.30586727755162,0.1081951156620396
37.845632,8.315621575419797,0.1074939190159974
37.850224,8.32382137382097,0.106797494017704
37.85482,8.326624565536253,0.1061425410403804
37.859404,8.327751073070388,0.1054893094460149
37.863988,8.330021384480462,0.1048184570806179
37.86858,8.328571773385798,0.1041796304753646
37.873172,8.325078923967547,0.1035658298480988
37.877768,8.3223633242828,0.1029532325936631
37.88234799999999,8.317848855702758,0.1023534720322825
37.886952,8.3146003757128,0.1017305117093163
37.89154,8.315316187655869,0.101068024679498
37.896128,8.311290457932406,0.100443305185553
37.900736,8.308041977942448,0.0998187746858208
37.905328,8.304793497952488,0.0991978082509221
37.909936,8.300156844658298,0.0986041230899894
37.914528,8.298995744440555,0.0979952845912815
37.919132,8.302209631746903,0.0973643067053976
37.92372,8.307999637682052,0.0967254157816369
37.928324,8.316610131674288,0.0960695716802978
37.932912,8.325875690685882,0.0954213711441984
37.937512,8.334652510840893,0.0947961486633491
37.9421,8.344206580729406,0.0941743022597121
37.946688,8.352739031456126,0.0935610662742681
37.951284,8.37063238080176,0.0928844514971595
37.955876,8.386482491823807,0.092229550844618
37.96045599999999,8.403232037293503,0.0915695696764528
37.96504,8.420103767477347,0.0909046598308822
37.96962799999999,8.431456706261155,0.0902718985790681
37.97422399999999,8.440522037293084,0.0896696089386015
37.978812,8.448199195020784,0.08909542915808
37.98340399999999,8.452811495263104,0.0885537372487585
37.987992,8.462287521886099,0.0879713516746219
37.992588,8.47098629877559,0.0873886751612085
37.99717999999999,8.472123045941464,0.0868561434965101
38.001768,8.475547400859215,0.0862923969163889
38.00636,8.47615126771988,0.0857485212412242
38.010944,8.476755134580543,0.0852066508160414
38.015536,8.472617459774675,0.0846962246466744
38.020124,8.45773071304566,0.0842664662568797
38.024712,8.440678543278914,0.083860166573002
38.02930799999999,8.423992927654602,0.0834359113286846
38.033896,8.40268795507791,0.0830347737139549
38.038496,8.386002339453599,0.0826079211571261
38.04308,8.363797932429257,0.0822094910817453
38.047664,8.345191263195506,0.0817957733249143
38.05226,8.327484028409403,0.081377532152494
38.05684,8.307733555299713,0.0809752319909501
38.06144,8.295545111913642,0.0805273432462614
38.066028,8.288220394908247,0.0800454192509399
38.070628,8.28293891622644,0.0795461118103511
38.07521199999999,8.275614199221046,0.0790626388858232
38.0798,8.271642850577951,0.0785792960537464
38.08438399999999,8.269470370830152,0.0780901675421948
38.088976,8.277313854720626,0.077561340867062
38.09358399999999,8.286711838078103,0.0770398525374002
38.09818,8.293167148664347,0.0765363179206294
38.102768,8.297701405641147,0.0760450985123346
38.107364,8.306855019570335,0.0755343060114822
38.111952,8.32831220488967,0.0749581159537749
38.116544,8.351934813246741,0.0743606746162716
38.12113599999999,8.378910789966111,0.07376700280556
38.12573199999999,8.410261754209575,0.0731650049373991
38.13032,8.436748992072364,0.0725944204780469
38.134916,8.463114045221005,0.0720305361661279
38.13950799999999,8.484615371988967,0.0714967378210052
38.144088,8.507915567652232,0.070961254982013
38.14868,8.535957304982022,0.0704043487832647
38.153272,8.559135315931139,0.0698787982650823
38.157864,8.579492838823164,0.0693685330829206
38.162456,8.597684938677457,0.0688802994787795
38.167044,8.622539633807722,0.0683630351091712
38.171652,8.640731733662014,0.0678788115698351
38.176244,8.65585897603093,0.0674175807889787
38.180832,8.663668558104511,0.0669804385686602
38.185424,8.670456521016304,0.0665528124540197
38.19001599999999,8.68378489448992,0.0661016158647938
38.194608,8.700178125448918,0.0656315029343302
38.19918799999999,8.714772487512619,0.0651677226131664
38.20378,8.725769111785729,0.0647157355280808
38.20836,8.737420801078196,0.0642738198401621
38.21296,8.743553698970628,0.0638478286551703
38.217552,8.749808781577208,0.0634186066236041
38.222152,8.761827025012114,0.0629661960883388
38.226744,8.77744300623761,0.0625101399846659
38.231332,8.800088136881511,0.062016577738349
38.23591999999999,8.817092291411239,0.0615416812258846
38.24051599999999,8.834873695674466,0.0610746057420008
38.245104,8.857396641604224,0.060593571752966
38.24969599999999,8.881596271715134,0.0601166187861731
38.254284,8.906040271254335,0.0596305185700145
38.258872,8.925742729127004,0.0591632523062232
38.26346,8.95055328280864,0.05866750552405
38.26804799999999,8.981249182032748,0.0581493657769106
38.272632,9.0146433845998,0.0576283823480045
38.277224,9.044439849376255,0.0571122035965239
38.28182,9.07243744525742,0.056602322927435
38.286408,9.097125814224912,0.0561212572152079
38.291,9.12079256403061,0.055647001376569
38.295592,9.144459313836308,0.0551759658776362
38.30018,9.167226629194358,0.0547076237573128
38.304788,9.193591682343,0.0542369939022184
38.309372,9.217136247434553,0.0537743152926045
38.313976,9.235939270859571,0.0533262710650376
38.318556,9.248079699008622,0.0528967865207264
38.323144,9.249471055234524,0.052505388798915
38.32774,9.253682899517518,0.0521063424869147
38.332332,9.249433279629242,0.0517247224653861
38.33692799999999,9.240319933360292,0.0513597488971018
38.341508,9.227486664586603,0.0510002062053565
38.34609999999999,9.211588538327536,0.0506538241634695
38.35068,9.194668792906675,0.0503111617897378
38.355284,9.172640951676843,0.0499924908918242
38.35987599999999,9.141907276847457,0.049698166256059
38.364472,9.106187690923244,0.0494216727127008
38.369064,9.070101550856595,0.0491569593808428
