Time,Force,Position
2.8141800000000003,0.0003931002114156412,0.0
2.8187560000000005,0.0009083851369769535,0.0
2.8233560000000004,0.0009083851369769534,0.0
2.827936000000001,0.0033447236719796403,0.0
2.832536000000001,0.011544223035306448,0.0
2.837124000000001,0.019988091826924598,0.0
2.841724000000001,0.03137463338977764,0.0
2.846304,0.04353842468613287,0.0
2.850900000000001,0.051860108763605355,0.0
2.8554960000000005,0.06042616226936917,0.0
2.8600840000000005,0.07001383493692653,0.0
2.864676000000001,0.07870207315683603,0.0
2.869276000000001,0.08432545389136495,0.0
2.873864000000001,0.09264713796883743,0.0
2.878448000000001,0.09586072623734229,0.0
2.8830279999999995,0.10213917199122773,0.0
2.88762,0.10637437942152611,0.0
2.8922000000000008,0.1106095868518245,0.0
2.89678,0.1170102173198556,0.0
2.901364000000001,0.12251141334023886,0.0
2.9059480000000004,0.13080655134873273,0.0
2.9105360000000005,0.1409005582525223,0.0
2.915144,0.15061041563422528,0.0
2.919732,0.16148167227151702,0.0
2.92432,0.16274766086160186,0.0
2.9289120000000004,0.1623811067191649,0.0
2.9335000000000004,0.1570286414819059,0.0
2.938092000000001,0.1507767417969991,0.0
2.942672,0.1492663837786229,0.0
2.947268000000001,0.14534623329422264,0.0
2.951856000000001,0.1410595286673854,0.0
2.956456000000001,0.13947112738349163,0.0
2.961036,0.14184701803262634,0.0
2.965636,0.13948136701523042,0.0
2.9702280000000005,0.1478647879209806,0.0
2.974820000000001,0.15179517803711964,0.0
2.979412,0.15907893651555877,0.0
2.9840040000000005,0.17049331308980012,0.0
2.9886040000000005,0.1787647889131434,0.0
2.993196000000001,0.19398737088937812,0.0
2.997784000000001,0.20684430184821692,0.0
3.0023800000000005,0.21782432064624255,0.0
3.006964,0.23621028263685295,0.0
3.011560000000001,0.25334049566911726,0.0
3.0161359999999995,0.2936321141754119,0.007751367577137602
3.020716,0.3529545200599348,0.015561182148667528
3.0253080000000008,0.4324956586472529,0.02344465921394366
3.029896000000001,0.5305788457562166,0.03132273914877229
3.034488,0.6468375272443887,0.039201915197479766
3.039072000000001,0.786379798920737,0.04697519425889743
3.0436560000000004,0.9443419344045847,0.054761544050312166
3.048252,1.1174147067822606,0.06265795079290665
3.05284,1.3109947227396512,0.070520850517982
3.0574440000000003,1.5306007736767897,0.07830386256236509
3.062036000000001,1.7647506793856558,0.08618120280079665
3.066636000000001,2.024115468523878,0.09411780763981248
3.0712399999999995,2.311437585883028,0.10205135477429807
3.075824000000001,2.6256954123013125,0.10995222573692402
3.0804279999999995,2.9731408474636383,0.11779719256729582
3.085008,3.3459674922180938,0.12560073321882964
3.089608,3.7447862701354078,0.1334329563147352
3.094188000000001,4.175238157329758,0.14121780253525876
3.0987880000000008,4.630938829770358,0.14892600624833321
3.103376000000001,5.11306599315003,0.15657713853209343
3.1079760000000007,5.592284385575359,0.15645244740592668
3.112568,6.072313929551078,0.1562192528270945
3.11716,6.550289995571471,0.15587569161367984
3.121748,7.023558421742223,0.15554230905497654
3.126344,7.494651185243503,0.15517067470272738
3.130948,7.957560755818698,0.15491330790886307
3.1355400000000007,8.41829466372442,0.15460827074111794
3.1401280000000007,8.880039951160198,0.15414910487577546
3.144724,9.335068262239636,0.15369679367363304
3.149312,9.777327925257492,0.15332169923707636
3.1539040000000007,10.214414871754274,0.1527942629167894
3.1584920000000007,10.6363470399086,0.15217574148667073
3.163088,11.034530541203317,0.1515183279360447
3.1676800000000007,11.401525530628954,0.15089744883809347
3.1722680000000008,11.74003031152845,0.15030357147386234
3.17686,12.046735656988137,0.14976262659204959
3.181436,12.33124683505522,0.14915815707441352
3.1860280000000003,12.587434130758936,0.14858411151127524
3.190612,12.810600143881384,0.14810420647228661
3.1952,13.009206338593833,0.14763807896342587
3.199796000000001,13.192012929576206,0.1471775973829609
3.2043800000000005,13.358775547400215,0.14673643468055367
3.2089800000000004,13.509660518228634,0.14632449705654693
3.213572000000001,13.652063545622307,0.1458559604899204
3.218160000000001,13.77625717681988,0.14542145561463093
3.2227560000000004,13.888248942077974,0.14495635181029826
3.2273320000000005,13.983175115015907,0.14450945656427058
3.231924000000001,14.060136261186036,0.14408653793324452
3.236512000000001,14.12211919480822,0.14367756185334812
3.241112000000001,14.1728438383872,0.14325115023880622
3.245700000000001,14.208512226152715,0.1428626433936997
3.250300000000001,14.239062278477526,0.14246321338263457
3.25488,14.262905594077736,0.1420986644136129
3.259476000000001,14.287604202676965,0.14170827019743182
3.2640639999999994,14.308416562608686,0.1413304071887321
3.268660000000001,14.33135020412951,0.1409099235644902
3.273252000000001,14.351297031430468,0.14049694972361929
3.277844,14.366702545044564,0.1400937165182349
3.282432,14.384107155533618,0.13965118756278147
3.2870159999999995,14.397014593784432,0.1392392479685423
3.291596,14.410699281768746,0.13882620881911809
3.296192,14.422462916143619,0.13842944385539935
3.30078,14.434348735232637,0.13802932318194747
3.3053600000000003,14.441493012655128,0.1376665905640825
3.309952000000001,14.45301227760171,0.13728026262404094
3.314540000000001,14.467884910910593,0.1368808844128121
3.319128000000001,14.483412609238831,0.13648366888320532
3.323736,14.499228818443989,0.13609944138187124
3.3283120000000004,14.516477342402005,0.1357156582766427
3.332924,14.538511549475183,0.1353193188721286
3.3375120000000003,14.560589897996984,0.13494308838786082
3.3421160000000008,14.578215215729179,0.1346146917955696
3.346708,14.597927913233587,0.13428827376950203
3.351296,14.623570097729095,0.1339381156677406
3.3558920000000008,14.653098530892112,0.1335810321822878
3.360484,14.681649486341962,0.13325359033369408
3.365088,14.713065071297532,0.13292900623749876
3.369676,14.751309577691847,0.13257584927913635
3.374276,14.791763648572523,0.13222341391323209
3.378864,14.834305099225414,0.13187421666371632
3.3834560000000007,14.876235626307576,0.13154357970489128
3.3880479999999995,14.92013134844781,0.13122001841945333
3.3926479999999994,14.967258254236196,0.13088861089816936
3.3972320000000007,15.014429301473212,0.13057699292284283
3.4018239999999995,15.060334360120141,0.1302828127167204
3.4064239999999995,15.10010970379631,0.13003986682116808
3.411016,15.141850242530547,0.12980386632360488
3.4156200000000005,15.187965768788878,0.12954861531946585
3.420212000000001,15.23575797922836,0.12928864900784648
3.424804,15.281995690200837,0.12903467008155337
3.429396000000001,15.331176073944548,0.12876073970793045
3.4339840000000006,15.384320749621288,0.12845867608261466
3.4385759999999994,15.442451336392853,0.12812256373064135
3.4431639999999994,15.492242643707295,0.12783765158542368
3.4477600000000006,15.538680582659437,0.1275663895999402
3.4523519999999994,15.584707826020512,0.12728696273911952
3.4569399999999995,15.625705016838136,0.1270266989385269
3.4615360000000006,15.659628916788725,0.12680122532532145
3.4661240000000006,15.694041555595897,0.1265646726086635
3.4707159999999995,15.72636681463085,0.12632585958658096
3.4753039999999995,15.762367854721916,0.12604917511848793
3.4798919999999995,15.792028712230815,0.1257850017899253
3.4845000000000006,15.819191494376437,0.1255108285356384
3.4890880000000006,15.84602162419651,0.1252068424733752
3.493684,15.873174166710392,0.12487629992750313
3.498272,15.906290098032262,0.12448606555063675
3.50286,15.937030138704996,0.12408201452536696
3.5074559999999995,15.961185627367277,0.12369750508308082
3.5120559999999994,15.986318593742723,0.12328982122190796
3.516648,16.008997626203517,0.12289008381452096
3.5212280000000007,16.027912594710944,0.1224931809384153
3.5258280000000006,16.043840748998512,0.12209827901879923
3.5304160000000007,16.05216273211383,0.12172921976027723
3.535012,16.061217823514024,0.12134058711168998
3.5396,16.070639469056648,0.1209428864651608
3.5442,16.08054985345586,0.12053303282560747
3.5487839999999995,16.089805172835717,0.12012056210817089
3.5533800000000006,16.097505992748566,0.11970876956123835
3.5579719999999995,16.098544217385445,0.11933508732136562
3.5625680000000006,16.09958244202232,0.11896128553351576
3.5671560000000007,16.09228138720208,0.11863021645561667
3.571752,16.092420177391308,0.11826052352278313
3.57634,16.091170794276312,0.11790764094406705
3.580924,16.090332106752378,0.11756355581364208
3.585516,16.087738691781773,0.11724592707429632
3.590104,16.082491114916856,0.11695891838589578
3.594692,16.080474721700092,0.11666630879871218
3.599284000000001,16.08283331600742,0.11635768645144191
3.60388,16.080083814505784,0.11608416840393948
3.608468,16.073247836356973,0.115837857508306
3.613060000000001,16.067599803532733,0.1155993446124103
3.617648000000001,16.0640391504807,0.11536526360478842
3.62224,16.061544258039092,0.11514193050695455
3.626836000000001,16.061258930083845,0.11491978765095565
3.631424000000001,16.061628667147957,0.1147004076598681
3.63602,16.061509665355484,0.11449357760916237
3.640604,16.066010020515396,0.11426556971749785
3.645204,16.078483100989995,0.11400812428705467
3.649800000000001,16.09430954982689,0.11374168601957385
3.654388000000001,16.113367182311944,0.11347063857043752
3.65898,16.140275355397534,0.11317331942231658
3.663568,16.162852682407657,0.1129099030715411
3.668168,16.186862324170644,0.1126489409323802
3.672756,16.212304280686485,0.11239086574341099
3.677356,16.238401302221686,0.11213581175073101
3.681944,16.264498323756886,0.11188156141185232
3.686544,16.282788946140172,0.11167082641585566
3.691128000000001,16.29699309187629,0.11148668877464969
3.695724,16.310708498755822,0.11131440156951168
3.700316000000001,16.33084213148303,0.11111443790706944
3.704908,16.351753013943746,0.11091442862715258
3.7095,16.372663896404458,0.1107153640687553
3.7141,16.39537364776047,0.1105095554179288
3.718688,16.418205583830623,0.11030144115641373
3.723284,16.43899428157719,0.11010662534160463
3.727876,16.461581848219055,0.10990557265556689
3.73246,16.480982372661398,0.1097276973501411
3.737048,16.498584028208438,0.10955801532588669
3.741632000000001,16.521415964278592,0.10935482498627512
3.746228,16.541916151148243,0.1091534754263063
3.750816,16.558818600227298,0.10896612686913335
3.755412,16.578908091505884,0.10875756679969223
3.760004,16.598098148336817,0.10855261100010513
3.764596000000001,16.615855890414895,0.10834590792054752
3.769184000000001,16.6334473063302,0.10812527887191192
3.773776,16.64936203806435,0.10790843563427355
3.778372000000001,16.67218373450277,0.10765425894232422
3.782960000000001,16.701135145911948,0.10736421445231568
3.787552,16.733517968948945,0.10704725260010133
3.79214,16.76254742362364,0.10673814833115872
3.796724000000001,16.79284286688842,0.1064183242386503
3.801320000000001,16.81761951875317,0.1061201113887551
3.805908000000001,16.843662159208,0.10581112436604509
3.810512000000001,16.868927549929328,0.10550313543087629
3.815092,16.89431512536481,0.10519214576450542
3.819688000000001,16.919824885514426,0.104879569723486
3.824276000000001,16.946356264825845,0.10456159806160847
3.828876000000001,16.96839047189902,0.10425952887714393
3.833460000000001,16.982740464534434,0.10399399525214814
3.838052000000001,16.997867706903342,0.10372891361962668
3.842644,17.014260937862343,0.10345282622996962
3.847236000000001,17.030776353535483,0.10317509899840599
3.8518240000000006,17.0495793769605,0.1028808668489834
3.85642,17.067238596509586,0.10259547209673037
3.861004,17.08633013081153,0.10231376133858952
3.8656000000000006,17.105421665113468,0.10203210516333652
3.8701880000000006,17.124635384129558,0.1017489059087874
3.874784,17.140784245660264,0.1014840493138796
3.879372,17.159509225819768,0.10121500061784394
3.8839640000000006,17.1855518662746,0.10092281550041168
3.888556,17.207752399510554,0.10064761154012043
3.893136,17.236737712736616,0.10034251101797177
3.897724,17.264457037372598,0.10004953499764935
3.902304000000001,17.296429164818527,0.09975023837312225
3.906888,17.334408822521077,0.09942289035392808
3.911484,17.373532284099564,0.09908938491748687
3.916072,17.414576799287488,0.09874946123986494
3.920668000000001,17.458319617818358,0.09840225308009516
3.925264,17.509502281358703,0.0980302603260173
3.929856000000001,17.562483813794344,0.09765507136445567
3.934448,17.617142030411134,0.09727980571654987
3.939044000000001,17.672333127333133,0.09691247548707985
3.943636,17.72907872372214,0.09654826157229011
3.948216,17.792364730672972,0.0961638010593144
3.952816,17.85937066012854,0.09577035313845113
3.957404,17.93561530348888,0.0953513708833082
3.962008000000001,18.01635711908746,0.09492512232495001
3.9666,18.097998369133684,0.09449866074471332
3.971196000000001,18.179517434465765,0.09407863390938914
3.975788,18.25245285091243,0.09369211385202603
3.980384000000001,18.33319466651101,0.09327723115468917
3.984972000000001,18.41405866682373,0.09286340485406046
3.989556,18.49782119845906,0.09242509367092899
3.994148000000001,18.581417403931617,0.09197814443036849
3.99874,18.66194875191879,0.09154921765384937
4.003328,18.741702850172466,0.09112312245582278
4.007924000000001,18.821168437549222,0.09068972727838265
4.012512000000001,18.90496487100144,0.09023681118656449
4.017104,18.98630737053901,0.08978874339471539
4.021704,19.069038043380804,0.08933249502042731
4.026304,19.151113651203243,0.0888764076555078
4.030896,19.23110187925347,0.08841619621549039
4.035476000000001,19.309902161979128,0.08795104267776452
4.040068,19.38685943436086,0.08747931722810413
4.044652000000001,19.457109970017996,0.08701557420713961
4.049232,19.51975433450288,0.08656283026074744
4.053844,19.576591396710818,0.08611646311554592
4.058432,19.633628686898415,0.08565283170880197
4.063040000000001,19.687268467275086,0.0851788969496282
4.067628000000001,19.742252279507355,0.08467922089034875
4.072224,19.79604814641506,0.08417589696333663
4.076816000000001,19.847756633550553,0.08366839640555654
4.081416000000001,19.895745198181302,0.08317216805099502
4.086008,19.93678265665916,0.08268571244488154
4.090592000000001,19.975077670345453,0.08219056988970401
4.095196,20.010630239240168,0.08168693706773257
4.099784,20.042951624486733,0.08118394980717053
4.104380000000001,20.067422469132758,0.08069150138148139
4.108968000000001,20.08915086898721,0.08019004007279079
4.113572,20.101352044059976,0.07969790895525228
4.11816,20.107623732141644,0.07920894249640588
4.12276,20.109764802127508,0.07871972700853364
4.127356000000001,20.10597638512227,0.07823338072261567
4.131948,20.093848688659907,0.07776383229340147
4.136544000000001,20.082087546339988,0.07728691703662263
4.14114,20.068649719838916,0.07681028801702174
4.145728,20.051369786118965,0.07634289415494866
4.150324,20.031024994913633,0.07588619839945765
4.154916,20.010191464851715,0.07543831772217588
4.159508000000001,19.9927113031521,0.07499010941245754
4.164096000000001,19.968201992034075,0.0745643125390702
4.168692,19.942548877040107,0.0741440052820123
4.173276,19.915874142884345,0.07372654202720964
4.177872000000001,19.893452211538534,0.07330719744997231
4.182464,19.87618251745032,0.07288591801708806
4.187052,19.863698506477267,0.07246969151545057
4.191644,19.851747375809424,0.07205877851468775
4.196224000000001,19.845603547418527,0.07164937455793129
4.200816,19.84052547963806,0.07125126547809087
4.205400000000001,19.84624062522936,0.07084091775309635
4.209988000000001,19.859273431115994,0.0704205869774214
4.214592,19.883998884822045,0.069988943319478
4.219176000000001,19.91849593273808,0.06955037040137194
4.223764000000001,19.960965705968796,0.06910608186557239
4.228352000000001,20.004745609238228,0.0686697593125793
4.232952000000001,20.04815895836522,0.06824057770866546
4.237544,20.094392795549307,0.06780670018944704
4.242124,20.143202751362185,0.0673736222288271
4.246724,20.19393376078451,0.06693813946808316
4.251312,20.245319835226187,0.06650886811033423
4.255908,20.297849713543805,0.06607465480490933
4.260492000000001,20.354099514366162,0.06563722394740852
4.265092000000001,20.41791134491214,0.06518974572607142
4.269688,20.48004649127697,0.06474342401388639
4.274280000000001,20.536907215670052,0.06430174900117364
4.278868000000001,20.58375197642486,0.06387096901636866
4.283464,20.63096329132211,0.06343491644738873
4.288068000000001,20.675965041733,0.06299447977554637
4.292664,20.721333346286325,0.06254903539742958
4.29724,20.76040560970612,0.06211028531218582
4.301832000000001,20.796779569782966,0.06167543727770702
4.306420000000001,20.81990638257339,0.061246889427722453
4.311016,20.833139416439685,0.060825805775359135
4.315604,20.84338563608611,0.060397668710111506
4.320196000000001,20.851544475960328,0.05996082549391482
4.3247800000000005,20.86019205469113,0.059515539954853494
4.3293680000000005,20.867529503383214,0.059062863208650083
4.333964,20.86779366120826,0.058611305547568424
4.338544000000001,20.861761777899776,0.058162459117311785
4.343135999999999,20.844814496505375,0.05772010935012259
4.347732000000001,20.82631271564396,0.057273459484982206
4.352312,20.79755060171599,0.05683667539673327
4.356916,20.754808232216714,0.056413334636057036
4.361504,20.71116642826979,0.055989459636240635
4.366092,20.663315962961555,0.05557566937080621
4.370688,20.61804161628211,0.05516068301509638
4.37528,20.57035747713664,0.054755697191529784
4.379875999999999,20.515644188572765,0.05436378245980975
4.384456,20.455944988914066,0.05398028330738882
4.389056,20.391914943179902,0.053608578656474705
4.393644,20.32277680163677,0.0532471517969647
4.39824,20.25781341963807,0.05290327533309346
4.402832,20.19277199437385,0.05257407289030539
4.407432,20.12254443003515,0.052271659439772314
4.412024000000001,20.051994453002628,0.051988640874490656
4.41662,19.97686926046636,0.051721466669563974
4.421204000000001,19.900522220788638,0.05147379064621413
4.425787999999999,19.831659167569015,0.05123368185408378
4.430372,19.763617505531524,0.05100852932420757
4.434963999999999,19.70252694964692,0.05078466132392551
4.439552000000001,19.641358350496798,0.05057632613000503
4.444135999999999,19.584853249747688,0.05037863243271277
4.448715999999999,19.533011647399594,0.050191585544724804
4.453296,19.47557321038595,0.050023256040870025
4.457880000000001,19.419811457553458,0.04985555945665783
4.462463999999999,19.364582585026177,0.04969318544436764
4.467056000000001,19.30694392003287,0.0495407956032728
4.471648,19.249593765916483,0.049397973535359734
4.476236000000002,19.18779058101048,0.049269511084508
4.480839999999999,19.123821973066747,0.04914654438021851
4.485424,19.052702030990464,0.0490382888614136
4.490024,18.975163863066495,0.04893181451148896
4.494615999999999,18.889164230971264,0.04883147328424152
4.499204000000001,18.797645807476,0.04873287022755401
4.503796,18.697665919809463,0.04864064739302323
4.508372,18.594376805229256,0.04855908268372672
4.512976,18.485691083963165,0.04847654273813352
4.517556000000001,18.362003487963975,0.04840506164327774
4.522152,18.229976612507663,0.04833768982679177
4.526736000000001,18.088222284290005,0.04828337207478583
4.531332000000001,17.938006491901078,0.04823547417101491
4.535928,17.777774735873873,0.04818925288327079
4.540519999999999,17.60548377788481,0.048149935801210415
4.545108000000001,17.42689677876222,0.04810985824607765
4.549704,17.23563965410703,0.048088995823437994
4.554295999999999,17.032978392509342,0.048079876618285645
4.558892000000002,16.820956232292737,0.04807817683151835
4.563476,16.599939727599654,0.0480759488127099
4.568071999999999,16.377490908153714,0.04806482659820899
4.572660000000001,16.151322166203038,0.04805515974289982
4.577256,15.926419412842444,0.04803694438799849
4.581843999999999,15.694198999186524,0.04801998986286907
4.586432,15.464921258301837,0.04799647418088582
4.5910160000000015,15.232167964340707,0.04796928839781575
