Time,Force,Position
3.1078399999999995,0.1412259088633578,0.0
3.112435999999999,0.12790071831141384,0.0
3.1170279999999995,0.11698532022549389,0.0
3.1216199999999983,0.11068927909195891,0.0
3.126211999999999,0.10222781492069125,0.0
3.1308039999999995,0.09940732686360201,0.0
3.135407999999998,0.1031272493683391,0.0
3.140004,0.10991202935845679,0.0
3.144595999999998,0.12258215489104422,0.0
3.1491879999999988,0.13513009570948603,0.0
3.1537679999999995,0.14305867957554286,0.0
3.1583479999999984,0.14816677538451045,0.0
3.162932,0.15482937066048244,0.0
3.167515999999999,0.16725512676477852,0.0
3.1720999999999986,0.18430023982145954,0.0
3.1766799999999997,0.20020154900220138,0.0
3.181272,0.21520342373529533,0.0
3.1858639999999987,0.22906149459245012,0.0
3.1904519999999987,0.24165357685952005,0.0
3.1950559999999992,0.25551164771667484,0.0
3.1996439999999997,0.2703913377356231,0.0
3.2042279999999987,0.28183961612675384,0.0
3.20882,0.29561964371839106,0.0
3.213408,0.30465812964349775,0.0
3.218012,0.3107539427973695,0.0
3.2225879999999982,0.31570595207530205,0.0
3.227187999999998,0.3150169852390562,0.0
3.231775999999998,0.3140836489745189,0.0
3.236372,0.3057104677005075,0.0
3.240955999999999,0.301179393645379,0.0
3.2455559999999988,0.2971811998954612,0.0
3.2501399999999983,0.29829110195451103,0.0
3.254731999999999,0.29658051595647167,0.0
3.259331999999999,0.2932373872259104,0.0
3.2639239999999994,0.2894055196387665,0.0
3.2685119999999994,0.28647308649927034,0.0
3.273107999999999,0.2848507833984873,0.0
3.2776919999999983,0.2850273491929998,0.0
3.282283999999999,0.2852039149875124,0.0
3.286859999999999,0.285913361087236,0.0
3.291452,0.2881773066539638,0.0
3.296035999999999,0.2924844905442786,0.0
3.300611999999999,0.29450406668271506,0.0
3.305204,0.29693433841221667,0.0
3.3097839999999987,0.30488340154175103,0.0
3.314359999999999,0.31643020246187686,0.0
3.3189559999999982,0.33468374010660285,0.0
3.3235439999999983,0.35322578862824827,0.0
3.3281279999999995,0.38338244170379826,0.0
3.3327279999999995,0.41567061600019156,0.0056289371149364446
3.3373159999999995,0.45560910291746104,0.011428876736106375
3.341911999999999,0.4971123289334737,0.017784552173856973
3.346499999999999,0.5481971608115426,0.024629026636138515
3.3510959999999983,0.604498850659313,0.03281353645736618
3.3556839999999983,0.6823396428803307,0.04133124339474688
3.3602799999999995,0.7904695125227827,0.04968194185561903
3.364863999999999,0.9314645782154672,0.05785044611334373
3.369463999999999,1.1038925252055252,0.0658807506681745
3.3740559999999995,1.3037449201113003,0.07390008992420943
3.3786479999999983,1.5352745657427402,0.08182241598305888
3.3832359999999984,1.7938621051474604,0.08974089687570426
3.387827999999999,2.0817171028118215,0.09765096341588606
3.3924239999999983,2.3988395587358236,0.10557878386174424
3.397015999999999,2.7504597534425788,0.11343019448584946
3.401603999999999,3.127749668618385,0.12129246912445517
3.406196,3.525312697577353,0.12922217263738725
3.410784,3.946580251947301,0.13716619917234424
3.4153759999999984,4.399891611185352,0.1450553048869295
3.4199639999999984,4.875186670204604,0.15291311980940317
3.424555999999999,5.374997406185227,0.1551079336275255
3.429148,5.894538136012066,0.15712555819871118
3.433736,6.435763815111447,0.15855302397484602
3.438319999999999,6.9886482402133625,0.15947025173914084
3.442907999999999,7.5631427542439775,0.15888584536146394
3.4474839999999998,8.122882945891462,0.15790376174310758
3.4520919999999986,8.654255113726952,0.15707872747800153
3.456679999999998,9.152840128777727,0.1564192836287546
3.4612719999999992,9.620236631959422,0.15589103332216508
3.4658559999999987,10.06295113201697,0.15538299461075034
3.4704439999999988,10.477708303853593,0.15494548068596664
3.4750479999999992,10.868760950279235,0.15448696658460573
3.4796359999999997,11.234388245664116,0.15399897969069054
3.48424,11.576344917454907,0.15343332308029795
3.4888199999999987,11.88621364292897,0.15293094873999177
3.493416,12.168369409610396,0.1524165202387695
3.4979959999999988,12.434216354441688,0.15176877297942262
3.5025999999999997,12.677091882146872,0.15107121054292091
3.5071839999999987,12.887102213801825,0.15042083868293668
3.511776,13.064169306141029,0.14982839507843687
3.516367999999998,13.21086927779328,0.14927635068903713
3.5209639999999998,13.339383515434584,0.14865723942445733
3.5255639999999997,13.444648064704598,0.1480464610951126
3.530156,13.53210367373784,0.14741987623225847
3.5347399999999998,13.593587628871703,0.14693751224919824
3.539331999999998,13.649386466442756,0.14648881934354702
3.543919999999998,13.704896793136896,0.14602913266359147
3.548507999999998,13.760162750402742,0.1455785518798192
3.5530959999999983,13.814651457935083,0.14513123024485017
3.557695999999998,13.869051882570167,0.14464424621703048
3.562275999999999,13.92083204712783,0.1441556086854134
3.566863999999999,13.966516398531619,0.1436848023550572
3.571463999999999,14.009869000734902,0.14322551225256994
3.576044,14.043738519605123,0.14284547133631376
3.5806359999999984,14.07834114676022,0.14244475087217945
3.585227999999999,14.112122382733185,0.14202670554901328
3.589815999999999,14.136009839782023,0.14167855312277006
3.5944119999999984,14.154989429001558,0.14135305920307267
3.5989999999999984,14.175357191525324,0.1410074114506691
3.6035879999999993,14.2001779848387,0.14061105131933604
3.608179999999999,14.227286385903955,0.14018805387844877
3.61276,14.246466203103152,0.13983831005344477
3.6173639999999994,14.264868770568846,0.13949255818973033
3.621939999999999,14.280983730282664,0.1391748777411433
3.626539999999999,14.297631570301691,0.1388635817193268
3.631127999999999,14.315711725073577,0.13855403747579814
3.635731999999999,14.337145248207761,0.13823134679411844
3.640315999999999,14.36421974745613,0.1378701319080979
3.6449159999999994,14.395136353923377,0.13748121315706396
3.6495,14.42952851346707,0.13707790512582632
3.654095999999999,14.459345457507006,0.1367250531327994
3.658679999999999,14.495991322985688,0.1363417116605757
3.663276,14.534069503217228,0.1359612021342995
3.667855999999999,14.580609147620038,0.13552283446206703
3.672452,14.623961749823321,0.13511633361233225
3.67704,14.67361039316014,0.1346772617755725
3.681631999999999,14.727756208735192,0.13421305612600978
3.686212,14.788975315177286,0.13371522715311265
3.690795999999999,14.850605117210446,0.13322930749003115
3.6953919999999982,14.916609906767698,0.13272662407301858
3.699976,14.984413565220247,0.13221749850887388
3.704571999999999,15.05156215865344,0.13170632928055248
3.709147999999999,15.117689132924838,0.1312062052864415
3.713735999999999,15.185981530233969,0.1306887965206713
3.71834,15.257827523885062,0.13013767926155756
3.722928,15.326320149173858,0.129602723205465
3.727535999999999,15.390559971652703,0.12908898625932702
3.732123999999999,15.446582699388571,0.12862461485994056
3.736711999999999,15.501950362105088,0.12816263783773146
3.7413079999999983,15.550899798973921,0.1277401270178912
3.7458959999999983,15.606223320241806,0.12726329549194718
3.750487999999999,15.655495169804448,0.12681542920545355
3.755075999999999,15.699859151537785,0.1263835847249344
3.75968,15.739848145747029,0.12597429332246882
3.7642599999999984,15.780858759118066,0.1255573709042987
3.768856,15.812630658584332,0.1251945579756526
3.773439999999999,15.841948624135947,0.12484008863461304
3.778039999999999,15.863049494944585,0.12453087465410886
3.782632,15.883495300733866,0.12422066468167221
3.7872239999999984,15.899566118999054,0.12393119801105798
3.7918119999999984,15.912938633921302,0.12365575086265924
3.796403999999999,15.929376006328926,0.12335827402368633
3.800991999999999,15.946179932878987,0.12305197198403413
3.805584,15.959386121638458,0.12276355186554748
3.810172,15.965685345693666,0.12252161849856918
3.8147639999999994,15.970962950587083,0.12228714423455854
3.819343999999999,15.977384359356433,0.12204255257997666
3.823936,15.988669494506468,0.12176773110193356
3.828531999999999,15.997256326313552,0.12150627274566587
3.833119999999999,16.010951253929605,0.12120946566081132
3.837712,16.022847312650363,0.12092214626986357
3.8423,16.034865556085272,0.12063170402331513
3.846888,16.04868266841547,0.12033327993118399
3.8514719999999993,16.062499780745668,0.12003535182796585
3.856055999999999,16.07962611998954,0.11971099966972533
3.860667999999999,16.10083893588059,0.11935841531441643
3.865255999999999,16.12241830591407,0.11899719861054676
3.8698479999999993,16.14514147982349,0.1186255809797637
3.874439999999998,16.165288535104114,0.11826298975343945
3.8790359999999993,16.181715667880002,0.11791926441164885
3.88364,16.197487735636532,0.11757353507047301
3.888228,16.212726923087853,0.1172237534337278
3.892819999999999,16.229354283843403,0.11685923294637356
3.8973999999999993,16.24802488292254,0.11648152752758917
3.9019999999999992,16.269227459181845,0.11607783111664499
3.9065879999999993,16.293739262354826,0.11564847585014493
3.911187999999999,16.31543057747071,0.11523400142511897
3.9157759999999993,16.334301404529516,0.114834818727714
3.920375999999999,16.351251177978874,0.11444618304592917
3.924959999999999,16.36039455227632,0.11410301444095264
3.9295519999999993,16.36929355714548,0.11376681566752152
3.9341399999999993,16.37999143090993,0.11342377038171525
3.938731999999998,16.39081148938853,0.11307817557685579
3.943319999999998,16.403430416762422,0.11272629894961023
3.9479159999999993,16.412740117222643,0.11240144143146916
3.952504,16.422704882702217,0.11208019750705633
3.957087999999999,16.436023016544098,0.11175234541685375
3.961675999999999,16.452161638443066,0.1114118677337783
3.966263999999999,16.474840670903863,0.11104275958361201
3.9708599999999983,16.500340191421746,0.11066027627684868
3.975451999999999,16.52829364585428,0.11027457899554906
3.980044,16.55216062363964,0.10991475962610547
3.984632,16.572596189797185,0.10958394304887442
3.9892239999999983,16.592010136792933,0.10926031579320264
3.993808,16.611057529646246,0.10894634334416747
3.998391999999999,16.625774076424094,0.10866384417114668
4.002996,16.64690884904962,0.10835667093755466
4.007584,16.67368459778933,0.10802583693694859
4.012175999999998,16.704302453747918,0.10767702850516395
4.016772,16.742604524144273,0.10729178060693509
4.02136,16.78025152952127,0.10690507788902981
4.02596,16.81981958850771,0.10651132591197335
4.030551999999998,16.861064331675298,0.10611589085175029
4.035151999999998,16.901531825109387,0.10572259107362121
4.039743999999999,16.940444819076472,0.10532986136167165
4.044339999999998,16.975760075252964,0.10495029744679282
4.048927999999998,17.00580090945771,0.10458750318390828
4.053527999999998,17.036741178110113,0.10422386778696151
4.058112,17.06089666677239,0.10389391568251624
4.062711999999999,17.087994828205904,0.10355088756466231
4.067295999999999,17.116236793515363,0.10320111182781222
4.071891999999998,17.151141354100787,0.10282371074166777
4.076483999999999,17.187189718562152,0.10243819979673
4.081067999999998,17.225159136632957,0.10204565132085461
4.085659999999999,17.26672629249436,0.10164379665222692
4.090252,17.315444782488314,0.101204650640096
4.09484,17.36068771940582,0.10077699523155337
4.099431999999998,17.401311299370946,0.10036849708681801
4.1040199999999984,17.44295649849786,0.09995712766450153
4.108619999999998,17.484479512910628,0.09955191231329068
4.113207999999998,17.52792358093284,0.09914047652892331
4.117799999999999,17.570712583935695,0.0987288816521657
4.122392,17.611947087471545,0.0983186413331308
4.126983999999998,17.652282156559753,0.09791229911430617
4.13158,17.701200874533363,0.09747522844562158
4.136159999999999,17.75473894945937,0.09702447941055445
4.140751999999999,17.81355144635711,0.0965634591622743
4.145347999999999,17.867744586302468,0.09611897634255281
4.149935999999999,17.927045822056794,0.09565051794333343
4.154547999999998,17.98916754586821,0.09517687268631139
4.159135999999998,18.049612585498476,0.09470816990360055
4.163723999999998,18.106093333195712,0.09425924924559081
4.16832,18.164861688644827,0.09379737999251066
4.172915999999999,18.224773847969878,0.09333114379046357
4.177511999999998,18.282354258094426,0.09286686704216959
4.182103999999999,18.333149888228856,0.09243093162450952
4.186696,18.381125030306197,0.09200520935319617
4.1912759999999984,18.429222357097682,0.09157815365186638
4.195872,18.47384413081272,0.09115909705293859
4.20046,18.514335286431958,0.09074507415687807
4.205063999999998,18.553927007603555,0.09033506413176964
4.209655999999999,18.589798806270405,0.08993713076982002
4.214251999999998,18.62746947383255,0.08953662543047178
4.218843999999999,18.66640612998479,0.08912788632479261
4.223436,18.700723429184634,0.08873511354525049
4.228039999999998,18.73258679446983,0.0883448876649364
4.232631999999999,18.75966447663987,0.08795523129425262
4.237219999999999,18.790950820171226,0.08754634050692697
4.241812,18.819661045073786,0.08714247171098494
4.246391999999998,18.84105360968102,0.08675781834898015
4.250983999999999,18.86281272843069,0.08636706464207512
4.255564,18.888247628236467,0.08595267200868645
4.260143999999999,18.915481396937544,0.08553712180836184
4.264727999999998,18.94103848145746,0.08512456529643628
4.269315999999998,18.964796697082093,0.08471641052612593
4.273899999999999,18.9908425204586,0.08429546837207169
4.278479999999998,19.01983101660634,0.08386519635853434
4.283055999999998,19.051762185525313,0.08342677604105889
4.287655999999998,19.085492223339585,0.08298613956703774
4.292231999999999,19.11807845727792,0.08255239282577347
4.296831999999998,19.150131810911038,0.08211444219508522
4.301428,19.185005652601248,0.08167007666009367
4.306007999999999,19.221023298167395,0.08122168389974525
4.310599999999999,19.25986143179063,0.08076885520596241
4.31518,19.296001262070924,0.08032206234389352
4.319775999999999,19.33316271151301,0.07987286835701259
4.324355999999998,19.372000845136252,0.07942400375511766
4.328951999999999,19.409695174883556,0.07898338109868322
4.333544,19.44726731991671,0.0785463579760711
4.338135999999999,19.485083834378152,0.07810487980196922
4.342715999999999,19.521756544963655,0.07767104523772218
4.347307999999998,19.555120028635493,0.0772550410339801
4.351911999999999,19.585663024250238,0.07684759120066591
4.356508,19.612363912646096,0.07645067468397676
4.361087999999999,19.6402086049179,0.07604862835699656
4.365671999999998,19.672917023570374,0.07563548740216479
4.370259999999998,19.706891430812938,0.07521604064731478
4.374851999999999,19.73636866581726,0.07480415886174327
4.379435999999998,19.768910758306966,0.07438397087856703
4.384027999999999,19.804395523567905,0.07395645728728975
4.38862,19.844621830495374,0.0735211410089024
4.393211999999998,19.886114126012924,0.07307994740327962
4.397791999999999,19.92233199955874,0.07264461980528937
4.402375999999999,19.954829950599812,0.07221804896579827
4.406963999999999,19.987816640497474,0.07178335339940894
4.41156,20.020392634804065,0.07134238510924276
4.416151999999999,20.055011867434242,0.07089660405423545
4.420731999999999,20.087299350863912,0.0704482089160655
4.425331999999999,20.120975007597814,0.0699914458314259
4.429919999999999,20.156816087369453,0.06952703948442754
4.434512,20.194944774892974,0.06905372844024853
4.439091999999999,20.234950374577302,0.06856369709991757
4.443691999999999,20.27184697532762,0.06806948831566953
4.448279999999999,20.31205280299161,0.06756228970077678
4.452879999999999,20.350459761760302,0.06705782003050513
4.457467999999999,20.38130469080538,0.06656861044783016
4.462067999999999,20.408429697345717,0.06608616343488226
4.466651999999998,20.4348996388667,0.06560020937996087
4.471235999999999,20.454174104806498,0.06512174974416261
4.475827999999998,20.469440137364636,0.06463884517589
4.480419999999999,20.476244705751512,0.06417019153345485
4.485011999999999,20.475731613843063,0.06370931116181609
4.489603999999998,20.475585076077046,0.06324136340511244
4.494179999999998,20.473884038844027,0.06277060593022485
4.498775999999999,20.47128356716336,0.062300514221810786
4.503364,20.466273303016663,0.061842541513226344
4.507955999999998,20.45676586663173,0.061387913405651334
4.512547999999999,20.448157864694448,0.060932480387111534
4.517135999999999,20.437750993861865,0.060478621208149466
4.521735999999999,20.42709975360099,0.06002937517246012
4.526311999999999,20.408886483616502,0.05959026841903122
4.530907999999998,20.3880190517377,0.059167174711108925
4.535492,20.3684617498976,0.058750929990808075
4.54008,20.348782263343367,0.05833690464633817
4.544675999999999,20.33372213374151,0.057918824309572965
4.549271999999998,20.318784188853805,0.05749773160744137
4.553859999999999,20.3046234936996,0.05707797154055008
4.558451999999999,20.293816166907696,0.05666068779870267
4.563032,20.285995654335654,0.05625190344855089
4.567623999999999,20.284759693774067,0.05585106296929217
4.572203999999999,20.28712147100307,0.05544854372917371
4.576803999999999,20.293858235756165,0.05504572898986417
4.581383999999998,20.30513631419613,0.05465627725331517
4.585979999999999,20.313227350436566,0.05427551553303351
4.590563999999999,20.31944147451619,0.0539114575611028
4.595155999999999,20.32577778330996,0.05354513735348316
4.599747999999998,20.33048154937121,0.053190975558175466
4.604339999999999,20.330077219623494,0.0528478561462337
4.608939999999999,20.324320424638515,0.0525198536461289
4.613531999999999,20.311656664949275,0.052203041156315855
4.618111999999998,20.3001808505846,0.051895057861862104
4.622696,20.284618559572753,0.05159554578560506
4.627284,20.259573185227843,0.05130473155663023
4.631875999999998,20.22557760785508,0.05102899419858806
4.636467999999999,20.17699085134029,0.05077338180741365
4.641043999999999,20.124073248750033,0.05052952035691822
4.645627999999999,20.064493050883808,0.05029136013147466
4.650215999999999,19.995185400256233,0.050065784289418776
4.654807999999999,19.91394073238094,0.049843954432587045
4.659403999999999,19.81744982034426,0.04963733557335141
4.663988,19.706367729165564,0.04944941231941492
4.668591999999999,19.5881343038543,0.04927534171364678
4.673183999999999,19.4539995693623,0.0491117230347314
4.677771999999999,19.31385730461368,0.048957078841716205
4.682364,19.169095682912676,0.04880308665032811
4.686952,19.015916738489032,0.048669723873209385
4.691543999999999,18.857629698256417,0.048546175641096576
4.696131999999999,18.699631168900726,0.048432008816236445
4.700735999999999,18.53652454373607,0.04832757766220672
4.705323999999999,18.37485023332427,0.048228028132607015
4.709923999999999,18.208556565960084,0.04812887716874278
4.714507999999999,18.033679249710485,0.04803741683260581
4.719111999999999,17.860234248213747,0.047950995226844276
4.723692,17.688221561469867,0.04786987131938586
4.728287999999999,17.51878499335478,0.04778959907461246
4.73288,17.343218710268935,0.04772253268673661
4.737471999999999,17.162710657536895,0.047681419746538875
4.742059999999999,16.97991499705298,0.04764924085211718
4.746659999999999,16.801127769950718,0.04762566785633499
4.751251999999999,16.621318923686662,0.0476040106868902
4.755844,16.448827737717934,0.047579318924660476
