Time,Force,Position
4.677907999999999,18.59266281454478,0.049519827985387614
4.682483999999999,18.458894634195218,0.049340186971112025
4.687083999999999,18.311146198274354,0.049168936338331255
4.691659999999999,18.15043912594398,0.049003380943994965
4.696248000000001,17.974607994166366,0.048850731111902766
4.700831999999998,17.782386814351426,0.048718271416860866
4.705424000000001,17.5759410095369,0.04859834834126957
4.710011999999999,17.349507418894454,0.04849883267761703
4.714604000000001,17.107050334357123,0.04841244219465223
4.719187999999999,16.856909035382017,0.0483348919049712
4.723772,16.592543111407327,0.048271262625596154
4.728359999999999,16.321514592156664,0.048213861701529984
4.732944,16.039859185697,0.04817067553079959
4.73752,15.746433088152397,0.04814663126444424
4.74212,15.448143264227118,0.048128303989104435
4.746708000000002,15.143190845025867,0.048116910452914066
4.751287999999999,14.829288222796766,0.048125658039277514
4.755880000000001,14.5084786358634,0.04814799617676793
4.760456000000001,14.192166221168273,0.04817081823852362
4.765039999999999,13.8783077403878,0.048197623131648056
4.769635999999998,13.568291366826207,0.048218670581989184
4.774211999999999,13.260973296607562,0.048241769136692945
4.7788,12.959951267522449,0.04826531083178752
4.783404000000001,12.660361553190196,0.048298861443350674
4.787991999999999,12.365435337258955,0.04835889314976211
4.792596,12.078403803376881,0.04846081506970625
4.7971840000000014,11.795591170487869,0.04863889568088712
4.801784000000001,11.530000216450048,0.048913068879597364
4.806363999999999,11.277300095187957,0.049310595142534504
4.8109600000000015,11.045585716730425,0.04982578412706599
4.815548,10.836533765258602,0.050460663987670136
4.820143999999999,10.645769253248396,0.05120963277172189
4.824728,10.472392746252154,0.05207753792243591
4.829319999999999,10.316282059555737,0.05306686793981967
4.833915999999999,10.173717270654402,0.05418123146370723
4.838508000000001,10.045231259853363,0.055438346785514805
4.843108000000001,9.940429295199827,0.056800334203467216
4.8477,9.85624651920841,0.05827884461718106
4.852284000000001,9.783566402688495,0.0598905444103879
4.856867999999999,9.723166195373578,0.06163606222670909
4.861456,9.67786638532075,0.0635033941366475
4.866052,9.651753449177184,0.06546301305757449
4.870640000000002,9.638409161095202,0.06752811057068477
4.875219999999999,9.638488586094159,0.06971126347414648
4.879812000000001,9.654357375191454,0.07194873418776118
4.884388000000001,9.679919715233211,0.07421438253321962
4.888967999999998,9.713699150017945,0.07647748740729055
4.893564000000001,9.740194826324238,0.07872020525653316
4.898152,9.763571264064787,0.08087688361948023
4.902756,9.773523988724396,0.08295074960062636
4.907343999999998,9.765555828064825,0.08497158505897777
4.911928,9.743020150448377,0.08694129561212363
4.916528,9.71065849754158,0.08883832101453032
4.921116000000001,9.66895960820102,0.09063964032379046
4.925708,9.616779678550754,0.09236711989943691
4.930284,9.553952382428012,0.09400287198774138
4.934884,9.473282244251608,0.09557144028833553
4.93946,9.373092579840394,0.09709201762387243
4.944064000000001,9.261844853365638,0.09850817690315115
4.948644000000002,9.137373641789603,0.09985295176329749
4.953232,8.999023880092937,0.10111339622070233
4.957820000000002,8.840010788285522,0.10236216513928192
4.9624120000000005,8.66495372331974,0.10357191706631913
4.966999999999999,8.471643120709235,0.10476283460656405
4.971592000000001,8.25922368745498,0.10596727545809248
4.976175999999999,8.02966061861505,0.1072242405450633
4.98076,7.791581704523486,0.10846487603843487
4.985340000000001,7.554269800533683,0.10964003347374202
4.989923999999999,7.311228637532445,0.11086682829869517
4.994508,7.062746726396692,0.11220636846980725
4.9990960000000015,6.819861649926487,0.11351918817067792
5.003679999999999,6.579630735350597,0.11485603276083177
5.008268000000001,6.342831232402526,0.11618408399363168
5.012855999999999,6.107053348616248,0.11757063186275829
5.017468000000001,5.876794256230003,0.1189579154520888
5.022055999999999,5.6527090202631465,0.12036545026079179
5.026648000000002,5.437129389916188,0.1217719742333956
5.031236,5.2344303527132165,0.12312670413501181
5.035824000000002,5.043223735350005,0.12442356487585109
5.040427999999999,4.862732288093049,0.1257040339047464
5.045007999999999,4.6932445218192695,0.12697911876154938
5.049600000000002,4.540645782071136,0.12812576861559533
5.054188,4.4028928305250625,0.12917715112629466
5.058783999999999,4.284238469990995,0.13008995328836026
5.063372000000001,4.1817400276977,0.13092271700700195
5.067959999999999,4.101038479759355,0.13153090267420217
5.07254,4.028275755318806,0.13219147126326802
5.077131999999999,3.9656614188624144,0.13287302206507282
5.081724000000001,3.9226785537232396,0.13335554649067585
5.086316,3.9004709637772232,0.13360315442039977
5.090907999999999,3.890044304547886,0.13376823452171152
5.095504000000002,3.894096879378171,0.1337981657536494
5.100079999999998,3.9090309504774856,0.1337579039977633
5.104676000000001,3.9361125064359164,0.13359039161167557
5.1092520000000015,3.971743809462871,0.13336276138772413
5.113844,4.019766966777232,0.1329857685486898
5.118435999999999,4.074541002264822,0.1325769336072743
5.123016,4.1354108509062835,0.1321375064501488
5.127604000000002,4.1998003940728195,0.13171737302820644
5.132180000000002,4.270774489249809,0.13122141271177942
5.136768,4.346900821684394,0.13065496640695304
5.1413720000000005,4.423970730015255,0.13014726658634057
5.145959999999999,4.5032502028324775,0.12965049807516793
5.150563999999999,4.583839805688412,0.12918092088933414
5.155144,4.667127711887292,0.12867118481806583
5.159735999999999,4.747717314743228,0.1282386956989252
5.164328000000001,4.839466685113374,0.1275972031379653
5.16892,4.932726413501897,0.12689312589126275
5.173511999999999,5.020833904632823,0.12629119799120947
5.178100000000001,5.1039113432203,0.12576836736274413
5.182704000000001,5.187233151236069,0.12524653299876193
5.187284000000002,5.269611383355562,0.12471015083592168
5.191884000000002,5.3487584318269,0.12420694146872682
5.196467999999999,5.423652677488289,0.12375758599216011
5.201067999999999,5.494416305053878,0.12334449837218589
5.205652000000001,5.559250445628368,0.12300682472138155
5.210243999999999,5.628004736687258,0.12255563489144049
5.214843999999999,5.6968370710116645,0.12205774199651506
5.219439999999999,5.7628047758303556,0.12155919523632232
5.224036000000002,5.825008416695681,0.12107588119472107
5.228619999999999,5.881404755284054,0.12064399266666447
5.233196,5.938123506566235,0.12014379008604892
5.237787999999998,5.988257705837963,0.1196897907213523
5.242367999999999,6.035893829746408,0.11920966024456767
5.246952,6.078866455253842,0.11874914386569974
5.251543999999999,6.115787409056033,0.11834761654697842
5.256124,6.143058953362388,0.1180579446599313
5.260715999999999,6.169020367630029,0.11776130424555442
5.265304,6.193916021287251,0.11743908772075445
5.269880000000001,6.219544783229344,0.11707165523574371
5.274491999999999,6.241042927075637,0.11673474443366384
5.27908,6.256000660360102,0.11648690684742251
5.283676,6.270669882767648,0.11621003339716332
5.288264000000002,6.28684946319357,0.1158845738222814
5.292852,6.3055610207996615,0.1154926097282576
5.297447999999999,6.324516947834045,0.11508631467541962
5.302047999999999,6.3330903570877215,0.1148214120581231
5.306643999999999,6.336922224674865,0.1146218468765618
5.311219999999999,6.340221211956798,0.11440865367264864
5.315819999999999,6.3427429495052285,0.11419757878122705
5.320395999999999,6.3455090564819505,0.11397018504735636
5.324999999999999,6.34557686011573,0.11377213614545403
5.329588000000001,6.353573247615566,0.11345500052081665
5.334188000000001,6.362346884848903,0.11313905792045295
5.338771999999999,6.375862063748771,0.11276608810429198
5.343364000000001,6.396528576781195,0.11227972147520554
5.347951999999999,6.417806013384347,0.11175471010245994
5.352544000000002,6.436507331358699,0.11125095351446439
5.357123999999999,6.448423869342935,0.1108354143072688
5.361708,6.456498300108288,0.11047137685806355
5.366288000000001,6.463384785549073,0.11008614080266385
5.370884,6.470882194560588,0.10966019182090352
5.375471999999999,6.476047854371595,0.10923754583604207
5.380068000000001,6.477205080800947,0.10882740565686747
5.384664000000001,6.47410950442035,0.10844445998750249
5.389240000000001,6.470969786591125,0.10801708965772533
5.393832,6.472283099551511,0.10750031864999537
5.3984200000000016,6.4744517055109165,0.10692898472500811
5.403003999999999,6.473144758393876,0.1063809472886301
5.407603999999999,6.468728812342828,0.10583294029159182
5.412192000000001,6.463124920967212,0.10526026700340232
5.416779999999999,6.454167661229296,0.10470255756930703
5.421372000000002,6.4331511995295205,0.10427345425697884
5.42596,6.406571804981084,0.10385187471613781
5.430568000000001,6.372264054546255,0.10347644095848982
5.435168000000001,6.327940340473153,0.10319264933349125
5.439772000000001,6.282961561380694,0.10289554724032941
5.444351999999999,6.236672652249522,0.10257823146356991
5.448944000000001,6.196224947212193,0.10213036222171193
5.453531999999999,6.156388165745591,0.10163835182868741
5.458131999999999,6.113608711507756,0.10118032252216692
5.462712,6.070418561678855,0.10069169702343145
5.467312,6.023875043487654,0.10021123880998267
5.471896000000001,5.975288286972866,0.09975674504917129
5.476488,5.926046465438721,0.09928637697101146
5.481083999999999,5.871818732809753,0.09888114884038392
5.4856760000000016,5.813993262390194,0.09849939326825811
5.4902760000000015,5.754124553647048,0.09814158175478466
5.494868,5.69822013683693,0.09772022255337481
5.499448000000001,5.64579127310326,0.09726918951149446
5.50404,5.592873670513007,0.09684502628167976
5.508628000000002,5.540733317656255,0.09641569796563115
5.513224000000001,5.497953863418418,0.09587824525316245
5.517804000000002,5.459960092295741,0.09533115375350655
5.5223960000000005,5.425075320107073,0.09478135548273633
5.526987999999999,5.40008432684253,0.09414390530762615
5.531568,5.377180713350203,0.09352427701881823
5.536159999999999,5.3581633485253874,0.09290843250332916
5.540744,5.341888428492142,0.09232323021698394
5.545331999999998,5.325779834621672,0.09177875296563037
5.549928000000001,5.314823478008796,0.09120592513087811
5.554516,5.308530619796934,0.09064250314588292
5.559107999999998,5.311398432224324,0.09005485977249125
5.563692,5.320317916356958,0.08943491236777174
5.568292,5.3336565294623135,0.08884200049531224
5.572883999999998,5.355867302330002,0.08819332268690279
5.577463999999999,5.386583680817586,0.08751948605474098
5.582059999999999,5.422085742420331,0.0868519139306529
5.586648,5.459430814366998,0.08623314325708409
5.591248,5.496164962742935,0.08565963237247573
5.595835999999999,5.539850217271766,0.08505864577366595
5.600432000000001,5.590364393239341,0.08444040473353001
5.605024,5.639001657046103,0.08390213175774443
5.60962,5.685229128386842,0.08341773882641054
5.614208000000001,5.736486652271031,0.08293007439774948
5.6188,5.786233818136844,0.08250128308728401
5.623387999999999,5.83700260316445,0.08206627983741523
5.627980000000001,5.887771388192056,0.08163895450317571
5.632567999999999,5.935353131020136,0.08126391075585158
5.637163999999999,5.990374718857691,0.08084072074173487
5.641752,6.0479724253240414,0.08041796538049807
5.6463280000000005,6.104548512628599,0.08001580880266934
5.650924,6.159325731037861,0.07963316003001482
5.655508000000001,6.217578502523571,0.07924931847231814
5.6601,6.280939369818245,0.07881721250465404
5.664691999999999,6.339314326018101,0.07844334145790935
5.669284000000001,6.393069925265571,0.07810674537367708
5.673871999999999,6.444249405884242,0.0777788413685348
5.678448,6.496817059807145,0.07742660917598967
5.683047999999999,6.554492809539014,0.0770265844866786
5.687636000000001,6.610614059803879,0.0766303689242588
5.692232000000001,6.664281376154092,0.07624041649747221
5.696815999999998,6.721380104132122,0.07580409005813543
5.701416000000002,6.782809678185616,0.07531561514558315
5.706008000000001,6.839209199695662,0.07483480874621724
5.710588000000001,6.889557049500463,0.07436617301422285
5.715192000000002,6.939005464857618,0.07390713393150747
5.719767999999998,6.984856142424181,0.07346418157928944
5.724364000000001,7.033360981885059,0.07297247487311953
5.728947999999999,7.073770911317107,0.07251805913243049
5.733547999999999,7.111316211243438,0.0720442619984372
5.738140000000001,7.147307011702764,0.0715670958202921
5.742736000000001,7.183009301285171,0.07106775408496822
5.747316000000001,7.213148658018917,0.07055799914618774
5.751908,7.236214723885624,0.0700719027405614
5.756512000000001,7.259114463589558,0.0695515533723425
5.761104,7.2796824540929865,0.0690213080948818
5.765692000000001,7.302782421776584,0.06845223751955676
5.77028,7.321385217221942,0.06790059638390468
5.7748680000000014,7.333447602105474,0.06738253469284189
5.779468000000001,7.341134999464913,0.06687223178825163
5.784056,7.34828951651914,0.06634937125216678
5.788647999999999,7.351069046049274,0.06583473722266195
5.793232,7.3512724569506105,0.06532330412209288
5.797823999999999,7.353519106175535,0.06479660171317138
5.8024200000000015,7.359730047333486,0.06424212425630078
5.807008,7.365163738757935,0.06368534228464197
5.811592000000001,7.377504394886647,0.06308919742175005
5.816188,7.387801812691773,0.0625118468185117
5.820775999999999,7.401941337715781,0.06191722909741981
5.825384,7.41636937361671,0.06135271858571006
5.8299720000000015,7.433862267003018,0.06076997997400457
5.83456,7.448412487618093,0.06020637323740435
5.839155999999999,7.464272838271878,0.059664885879520305
5.843744000000001,7.477967765887933,0.05914227101122971
5.848344000000001,7.497059300189875,0.058616135739218055
5.85294,7.52166962589185,0.05808003997629912
5.857536,7.542071290232503,0.05757959148126231
5.862116,7.5630058348783695,0.05709552211540182
5.866716,7.587538117314826,0.05660831297685966
5.871296000000001,7.618732995027253,0.05610146994829142
5.875892,7.648417514721305,0.05562648201162657
5.880483999999999,7.681455402777657,0.05516234440093259
5.8850760000000015,7.717968843910454,0.05470528777646596
5.889668,7.753216296453168,0.05426853979212849
5.894259999999999,7.792716551805829,0.05384405510703906
5.8988520000000015,7.834792925787287,0.05342676875439077
5.903444,7.871761203959778,0.053045565879282025
5.908031999999999,7.9102839815992745,0.052676651834395495
5.912624000000001,7.9475407706486845,0.05232789663555541
5.917211999999999,7.983775940536301,0.05198635489288412
5.921807999999999,8.015924633776745,0.05167118424909161
5.926396,8.048728392036544,0.051367350233434014
5.930987999999999,8.078345108096817,0.051086229801000346
5.9355720000000005,8.110415758071744,0.05081392167806519
5.940152000000001,8.134680008894758,0.05057319453016984
5.944744,8.153058914175302,0.0503574108965533
5.949331999999998,8.174258307512938,0.0501359087468663
5.95392,8.19210433248827,0.049904711993711576
5.958528000000001,8.205986065530576,0.04969093736930549
5.963104000000001,8.208752172507298,0.04953295437129168
5.967692,8.206121672798133,0.04937541636715707
5.972287999999999,8.194907524203556,0.04924068293390494
5.976883999999998,8.173310857828268,0.04912882669227301
5.981487999999999,8.14901588811004,0.04901661254212411
5.986087999999999,8.11343896616345,0.04892725808388473
5.990680000000001,8.06555847282671,0.04886612640153774
5.9952760000000005,8.01191481866165,0.04882160562430548
5.999867999999999,7.947888646715876,0.048800614964140065
6.004448,7.872458337827604,0.04881007491126075
6.009043999999999,7.79367466057703,0.04880677422011108
6.013624,7.711048876107573,0.04881426312794277
6.018224,7.619717258038557,0.04885277824744814
6.022808000000001,7.52617607548318,0.048867562821059043
6.0274,7.427238286241917,0.04888346764277847
6.031987999999998,7.327523247267151,0.04889307912434273
6.036580000000001,7.223066666625854,0.04891570041607498
6.041172,7.111048056260938,0.048955166818437576
6.045763999999998,6.997519087877647,0.04902509648344487
6.050352,6.87961513197026,0.04908953609867249
6.054936000000001,6.76322153408125,0.04912456084231563
6.059524,6.649404054821037,0.049165094435610165
6.064115999999999,6.536730379436763,0.04919339617122253
6.068708000000001,6.427654441843083,0.04922176205231535
6.0733,6.318334134821111,0.049261505047751376
6.077891999999999,6.2119565005703725,0.04928828809329479
6.082471999999999,6.114939764938551,0.0492950881149354
6.0870560000000005,6.0169014101449365,0.0493126106849168
6.091643999999999,5.9254034659131465,0.04931756586938811
6.0962320000000005,5.844288039462065,0.049294263273797365
6.100840000000002,5.761662254992609,0.04930619142695971
6.105428,5.681734773866095,0.049317806620252175
6.110032,5.6124341799485835,0.049283312897899556
6.114628,5.544321531355638,0.049284412169124936
6.1192160000000015,5.480950424429223,0.049267976550632725
6.123808,5.415536079179222,0.049267104007551465
6.128399999999999,5.355762710043398,0.049249797032049875
6.1329920000000016,5.299098339841583,0.04926619013077921
6.13758,5.245254457696857,0.049276630801977465
6.14218,5.1966849975238745,0.04929285204397643
6.146768000000002,5.149547852103749,0.04933256313021107
6.1513680000000015,5.100489653074182,0.04938274573605737
6.155956,5.0541297573875585,0.04943120434086298
6.160556,5.005970992805639,0.049481235489134995
6.165140000000001,4.954869555452485,0.04955246275942448
6.169736,4.905444802280482,0.04963177890044864
6.174323999999999,4.852300126603741,0.04972115758125323
6.178912,4.804141362021823,0.04977479941571174
6.183499999999999,4.75136324048752,0.049841737628422256
6.1880880000000005,4.695886815610272,0.049908185573368076
6.192668000000001,4.6397553257136686,0.0499605359944795
6.197255999999999,4.575406741074088,0.05003009797374407
6.201844000000001,4.50259669226324,0.05012978236292292
6.206436,4.427577078966031,0.05019314701415577
6.211020000000001,4.347815924002292,0.05027699130672725
6.215599999999999,4.270997441809788,0.05034095437209722
6.220192000000001,4.186739114607811,0.050432457067367875
6.224779999999999,4.099493973185968,0.05048103786187191
6.229368000000001,4.009017648115972,0.05049705315428624
6.233968000000001,3.9140441508077375,0.050516876712673735
6.238551999999999,3.816616719584849,0.05051614515927562
6.24314,3.720333092237901,0.05049164375889969
6.247736,3.619307923224422,0.050496057319115016
6.252336,3.519426558086882,0.0504682363708738
6.256927999999999,3.421832800701221,0.05038690880007892
6.261520000000001,3.319864055791466,0.050289340578927574
6.266112,3.215074822824622,0.05021058443631688
6.270692,3.10632129792475,0.05017336298504588
6.275292,3.0005104457961123,0.0501045654453367
6.279879999999999,2.8902024214292354,0.050026898570799935
6.284479999999999,2.7815710812435084,0.04997080832126976
6.289076000000001,2.6811568358007576,0.04989840381251582
6.293668,2.5835630784150965,0.04979949275307863
6.298248000000001,2.485602766886998,0.04974940270368668
6.302844,2.3885418898065476,0.04970000591382625
6.30744,2.287516720793069,0.04972959171488978
6.312031999999999,2.1921325278937687,0.049714389458537164
6.316611999999999,2.098547203889764,0.04968223856243392
6.3211960000000005,2.004595325743322,0.049720373791033404
6.325780000000002,1.910521262882735,0.04981163219522582
6.330376000000001,1.816202830593856,0.04998467252421171
6.334959999999999,1.7217622135908317,0.05019431091149669
6.339556000000002,1.6310415190925445,0.04768158704380276
6.344148000000001,1.5389326512900268,0.045198927665626894
6.348724000000001,1.4408162532308935,0.04274796945364882
6.353316,1.346175408248206,0.04031215745393769
6.357904000000001,1.253577801589105,0.037855289658316194
6.362483999999999,1.1641672371295306,0.03537546915634238
