Time,Force,Position
4.2051,19.258688118674442,0.049378771308613456
4.2097,19.063381602110645,0.049174218185944564
4.2142800000000005,18.86685323840539,0.04898809188261676
4.218876,18.67024683143462,0.04881587080238769
4.223467999999999,18.472662946750688,0.04865815836897122
4.228067999999999,18.27242490017244,0.04851324842574986
4.232660000000001,18.07517366781405,0.04837661883231553
4.237256,17.873102850523612,0.04826068614356702
4.241843999999999,17.6713205441101,0.048153831291210716
4.246436000000001,17.474568290240025,0.04805085937167301
4.251036000000001,17.280558481161535,0.04796177316026776
4.255632,17.083527956046282,0.04789505497601669
4.260219999999999,16.887929745683895,0.047833520622204494
4.264815999999998,16.69580708839795,0.047772220431139725
4.269404,16.500130834770044,0.04772714506815008
4.273995999999999,16.29574874754258,0.047693496223989815
4.278571999999999,16.086380749220293,0.047669195686881015
4.283164000000001,15.873947893412625,0.047652226190074184
4.287747999999999,15.657672930386074,0.047639683592868104
4.292336000000001,15.430482569273604,0.04762836783559787
4.2969360000000005,15.19687398231345,0.04761822208644639
4.301519999999998,14.950551128372082,0.04760997271204926
4.306108,14.698054418011326,0.04759783826358245
4.310703999999999,14.433376320974565,0.047597188066134694
4.315292000000001,14.158437890871241,0.047606086328247935
4.319899999999999,13.876181800472589,0.047618742581911525
4.3244880000000006,13.58480918088331,0.04763391486546655
4.329092000000001,13.288406508750583,0.04763984304253207
4.333688,12.988406098827266,0.04764566065872271
4.338284,12.684807951113356,0.047647985300873906
4.342892000000001,12.372093274208822,0.04765427049067237
4.347479999999999,12.058967901713224,0.047647502683732273
4.352079999999999,11.744043660322331,0.04763828778068625
4.35666,11.42143520449367,0.04764380267748479
4.361264,11.096372814750358,0.04764324081154979
4.365844000000001,10.7737643589217,0.04765563906248236
4.370444000000001,10.457373900961061,0.047715135974532
4.375020000000001,10.146468332583561,0.04785805993842408
4.379620000000001,9.843545729152488,0.048136345731680956
4.384212,9.554491436210307,0.04852529280934371
4.388807999999999,9.278406019309374,0.04902692698340875
4.393403999999999,9.017210532059124,0.049641564498954946
4.397996000000001,8.767840116974183,0.05038585505004675
4.402592,8.535691380740435,0.05126638420666312
4.407183999999999,8.320642138643734,0.052288062844621536
4.411772000000001,8.128211182084113,0.05342756260366954
4.416359999999999,7.953001904375688,0.05469257251857606
4.420948000000001,7.796813174413751,0.05607363212887348
4.42554,7.656457949998778,0.057601490848500664
4.430127999999998,7.526583765893509,0.05932564807620835
4.43472,7.420515812649889,0.0611775815622801
4.439311999999999,7.333390363887241,0.06317343369796068
4.443900000000001,7.261487497100826,0.06532678006439738
4.448496,7.213513045890206,0.06758612025191371
4.453076000000001,7.189222640827088,0.06995145850936017
4.457679999999998,7.187428336586905,0.07238437778499969
4.462263999999999,7.203955373625226,0.07482837836287233
4.466848000000001,7.236550046007062,0.0772259632589497
4.4714480000000005,7.27948309472098,0.0795258840712031
4.476028000000001,7.324459381758485,0.0818082011755086
4.480616,7.374954460196023,0.08405321107638153
4.485211999999999,7.431090514747741,0.08625684062011041
4.489811999999999,7.491190861232485,0.08841755705773578
4.494407999999998,7.555577912344067,0.09046984386053024
4.498983999999998,7.626294906406076,0.09238295577389283
4.503583999999998,7.69680143285668,0.09419596588916643
4.508172,7.770983740363394,0.09592144357404005
4.512768,7.848064579192716,0.09755449590106975
4.517352000000001,7.926323123714867,0.09906801825097791
4.521956000000001,8.006859036357156,0.1004108201109286
4.526548,8.082232472110112,0.1016329534979324
4.531132000000001,8.156529907620907,0.10269113842667438
4.535739999999999,8.22590923567066,0.10362696297981844
4.540332000000001,8.288693772078219,0.10444796769660428
4.544924,8.344350636538373,0.10514669001069947
4.549519999999999,8.389037721832242,0.1057642831995419
4.554096,8.418013486293294,0.10635020417928788
4.558684000000001,8.434631298283826,0.10689541715028793
4.563267999999999,8.442488895594435,0.10737834577003043
4.567867999999999,8.44710506962515,0.10775774451411144
4.572456000000001,8.442550333384872,0.10805917553536253
4.577052,8.432300239950047,0.1082625948410368
4.581643999999999,8.414267409548465,0.10835797131638558
4.586224,8.387229995038666,0.1084050995060421
4.590815999999999,8.348734062505994,0.10840940441507321
4.595404,8.299434676969812,0.10837761758403684
4.59998,8.23442397060081,0.10832890897614912
4.604571999999999,8.153335389256556,0.10828260619822215
4.6091560000000005,8.061443354908786,0.10820215879942587
4.613743999999999,7.959691443453781,0.10811986680422948
4.618336000000001,7.846158601282098,0.10805920100662991
4.622915999999998,7.719823209231939,0.10802498965185842
4.627519999999999,7.588002927598638,0.10796079236485556
4.632108000000001,7.447388529468521,0.10792230234073828
4.636704,7.294426418499623,0.10799273226979789
4.641284000000001,7.135534820539627,0.10810966461676441
4.645888000000001,6.980485329798515,0.10818581104611186
4.650471999999999,6.8271125232385526,0.1082508972593964
4.655071999999999,6.67264005425128,0.1083884764130406
4.659656,6.5174344769791315,0.10857848946643327
4.664247999999999,6.365504224803766,0.10881121655249967
4.668847999999999,6.214028809668095,0.10911849085197484
4.673443999999998,6.070492218030219,0.10944914636825702
4.678043999999998,5.929497843204253,0.10988372147617184
4.682640000000001,5.790801315761902,0.11043471816697263
4.687232,5.6571009390461136,0.1110801254134973
4.691823999999999,5.536491623085716,0.11173090305254438
4.6964120000000005,5.427296683699561,0.1123995676038867
4.700995999999998,5.330948435640504,0.11307100887060752
4.705575999999999,5.247935617765131,0.11371311900492057
4.710171999999998,5.183654836759327,0.114257698535018
4.714764000000001,5.1299331393287435,0.114872575241656
4.719340000000001,5.089546872081845,0.11544915567068972
4.723932,5.064172719199781,0.1159795239332197
4.728519999999998,5.059163145919809,0.11634788612624444
4.733108,5.066956122518307,0.11666369022693819
4.737716000000001,5.082932292042893,0.11698714482616751
4.742292000000001,5.1022279281128915,0.11740021894595223
4.746888,5.130195495965558,0.11778277020467437
4.751479999999999,5.167856614762688,0.1181128948817388
4.756068000000001,5.211980100856127,0.1184060895461134
4.760664,5.262033073940663,0.11864496303938186
4.765251999999999,5.31261892733041,0.11889826345443795
4.769855999999999,5.37178842960557,0.11900875005251892
4.774444000000001,5.440074461071356,0.11899166923655122
4.779044000000001,5.513468588346108,0.11886498360924276
4.783631999999999,5.58747363919159,0.11869234509249384
4.788227999999998,5.664910101664886,0.11843337352543615
4.792820000000001,5.7405035537942615,0.11815195631751153
4.797420000000001,5.812988006989628,0.11788359976148553
4.802016,5.8770890392792445,0.11768980177737183
4.806616,5.939180735062163,0.11741823706500344
4.811200000000001,5.9955873132822735,0.11718528980876267
4.815792,6.044465763595653,0.11696019391604799
4.820379999999998,6.084305727983928,0.11679889886699917
4.824976000000001,6.120093117541918,0.1166100951650226
4.829568,6.1478636403365945,0.11645523544530435
4.834168,6.177466933843456,0.11617340724962961
4.838755999999998,6.20391708696768,0.11585202036385626
4.843344,6.225659600242263,0.11549833287555133
4.847931999999998,6.243227353972417,0.11512381369970379
4.852528000000001,6.259973716520439,0.11470736868976723
4.85712,6.273444753971679,0.11425787522077081
4.861707999999998,6.280331239412465,0.11384845756643049
4.866300000000001,6.282021346147028,0.11343724963300361
4.870879999999998,6.280969008090018,0.11300921488522063
4.875472,6.276807671099001,0.11258655210447258
4.880059999999999,6.265817412669236,0.1122137107014778
4.884652000000001,6.251962524733754,0.1118288901732126
4.889248,6.2354873767208465,0.11141517612880092
4.893835999999999,6.219989706421104,0.11093586818417334
4.898444,6.20395915581615,0.11043940223162212
4.903031999999998,6.186085594867273,0.10991148932350958
4.90762,6.171931956423133,0.10933907173574252
4.912211999999999,6.157245437673782,0.10874908321765821
4.916804000000001,6.139860615581488,0.10818292386165021
4.921396,6.1287276931741,0.10750610688354609
4.925983999999998,6.114652097995478,0.1068703107306807
4.930583999999998,6.102375371712151,0.10621698830942165
4.935172,6.09243039462933,0.1055628101461866
4.939772,6.080197809794631,0.10495252936502455
4.944363999999998,6.065144736902843,0.10437417370060348
4.948963999999998,6.053200662945066,0.10379265808953084
4.953556000000001,6.04563157651138,0.10317708429959993
4.958152,6.031688405678642,0.10266941112700072
4.962739999999998,6.018033745722823,0.10219240027461128
4.967332000000001,6.005278520214652,0.10170495557363976
4.971936000000001,5.997919901392368,0.10116712414937375
4.976528,5.988684370409271,0.10069877900801558
4.981119999999999,5.983335088093684,0.10022969347291448
4.985712000000001,5.974965089741345,0.09985557145195945
4.990291999999998,5.969171210017804,0.09946482370846813
4.994884000000001,5.969184632571217,0.09905204692410491
4.999471999999999,5.966011012925103,0.09869566421277255
5.004063999999998,5.966845826660645,0.09833381811164549
5.008656,5.9745095618349335,0.09793719223458226
5.013232,5.979030396258325,0.0976446460819032
5.017832,5.985882979882221,0.09735352771646921
5.022408,5.9914695749160325,0.09709461289821598
5.026995999999999,5.990804270264937,0.09693421504467702
5.031599999999999,6.001298733128053,0.09666518589037164
5.036188000000001,6.015679444658679,0.0964006737359527
5.040784,6.030837405922807,0.09613926359817074
5.045371999999999,6.045262258902063,0.09592683481554637
5.04996,6.0735451827384725,0.0955883271750154
5.054564000000001,6.102360986880093,0.09526724411181803
5.059151999999999,6.135063039689224,0.0949540040752771
5.063743999999998,6.164211496156392,0.09471582134259869
5.068323999999999,6.204641904851918,0.09437237565874988
5.072919999999998,6.2450723135474435,0.09403475187805452
5.077508,6.292287502233086,0.09362220330137845
5.082108,6.341956624833381,0.09321442042486883
5.086695999999998,6.385740401891207,0.09287766752014616
5.091295999999998,6.431445232558473,0.09252266197885736
5.095879999999999,6.472652890987501,0.0922009502902575
5.100471999999998,6.507808877711283,0.09191204454376135
5.105071999999998,6.543820157434088,0.09157237114363323
5.109664,6.583507218213,0.09116464950686687
5.114255999999999,6.6235608331343485,0.09073780720754142
5.118847999999998,6.6699885324547505,0.09021646318003645
5.123436,6.705500833689232,0.08978047535260772
5.128020000000001,6.738148505417998,0.08932800908680655
5.132612,6.768586612660401,0.08886737727553348
5.137199999999998,6.799224947882468,0.08835329383910652
5.141792000000001,6.823156546379935,0.08786447581382423
5.146383999999999,6.848065622590568,0.08732394984061122
5.150975999999998,6.869577188990272,0.08675214083719156
5.155555999999999,6.894231656140874,0.08609635394868492
5.160151999999998,6.902696303233815,0.08553207053794656
5.164731999999999,6.90960645085975,0.08496660975767287
5.169320000000001,6.91250816510403,0.0844015051180082
5.173924000000001,6.9091138382147745,0.08387033695403921
5.178512,6.906452619610393,0.08329615307012467
5.183107999999999,6.9017040212337974,0.082701960444044
5.187703999999998,6.902307888094461,0.08203954612538338
5.192292,6.902134505221621,0.0813713618567998
5.196896000000001,6.9029827415105744,0.08069400072836172
5.201483999999999,6.897823447542914,0.08007876917508452
5.206087999999999,6.890865284679956,0.07947086320745674
5.210683999999999,6.881208818474056,0.07887638575658892
5.215276000000001,6.876293893934685,0.07824630750341667
5.219855999999998,6.868314111909934,0.0776448227497569
5.224455999999998,6.860867210190394,0.07705883150641611
5.229035999999999,6.850233266271328,0.0765107341487062
5.233635999999999,6.8374338993145285,0.0759888703777868
5.23822,6.820303686282263,0.07552050276537545
5.242811999999999,6.801418745803332,0.07510014832617615
5.247400000000001,6.780001828144231,0.07472576705131954
5.251996,6.769622493285194,0.07429138497782978
5.256592,6.760020408159661,0.07386047496205606
5.261187999999999,6.751850637786986,0.07344240078452656
5.265768,6.748544593794987,0.07298694160776881
5.270363999999999,6.75051297177473,0.07251985538336488
5.274948,6.751626056755452,0.07209718961391484
5.279548,6.747386676498916,0.0717377558762868
5.284135999999998,6.75124220627121,0.07135211094677968
5.288732000000001,6.754731181901067,0.07098771446486046
5.293324,6.763738948930957,0.07060090479952885
5.297911999999998,6.779042757094384,0.07019695793273799
5.302496,6.7996209872295506,0.06978706452853439
5.307076,6.822530966565225,0.06939290258266008
5.311663999999999,6.855701278967461,0.0689549926196133
5.316259999999998,6.890914829693285,0.06850303865486643
5.320848,6.929726118209699,0.06804337741068489
5.325456000000001,6.973034578964354,0.06757463844764132
5.330043999999999,7.022883450280835,0.06707899089511139
5.334635999999998,7.080416536035081,0.06654579353358138
5.339228,7.145267282084656,0.06599580890023893
5.343819999999999,7.212571962048881,0.06546417182287095
5.348415999999999,7.279876642013108,0.06493807687386989
5.352995999999999,7.347181321977336,0.06441746017990321
5.357591999999999,7.41706212057036,0.06390804215740101
5.362171999999999,7.485021865553944,0.06341751247809507
5.366771999999999,7.56438574748003,0.06288452476008663
5.371363999999998,7.649512790234439,0.06232812968851351
5.375960000000001,7.729898291322319,0.06180241851191018
5.380552,7.813348649895579,0.061263197987464615
5.385147999999999,7.895655204592902,0.06074660138009699
5.389736000000001,7.974364021499631,0.060246059983279594
5.394328,8.051396154225207,0.05975424874488192
5.398928,8.125197103302634,0.05925860592874366
5.403519999999999,8.194500880141819,0.058781178036895615
5.408108,8.263804656981005,0.058310501891022624
5.412691999999998,8.332208999372543,0.05784599429042593
5.417284,8.399058842297077,0.05737967380280437
5.42188,8.461533697697517,0.056918716181523124
5.426467999999998,8.515424904212543,0.056492234747385656
5.431047999999999,8.559422331803443,0.056080286850992374
5.435640000000001,8.594303230203717,0.05568528229174751
5.440216000000001,8.629428498032285,0.05528313301310294
5.444795999999998,8.66185546251791,0.05488463916022338
5.44938,8.686842581994059,0.05450504492706301
5.453967999999998,8.711052451736707,0.05412384269092292
5.45856,8.719483197012758,0.05377697302532918
5.463151999999999,8.724316204498217,0.053434916934307505
5.467736,8.727594712516673,0.05308454968598472
5.472340000000001,8.722289571649718,0.05275922248657226
5.476932,8.708645151325637,0.05244783965753666
5.481523999999999,8.692835307963824,0.052152281891816754
5.486112,8.671917368793045,0.05188410485124936
5.490712,8.650632875479829,0.051630243373115656
5.495295999999998,8.624484655785936,0.05139247623677112
5.499903999999999,8.596293197768453,0.05116513063178277
5.504492000000001,8.567202305303326,0.050937580208480805
5.509092000000001,8.532881132315085,0.050740104967073964
5.513675999999999,8.49717178602261,0.05056148830637456
5.518268000000001,8.462484058891931,0.050376166192421204
5.522855999999999,8.428451396780611,0.05019856541267216
5.527451999999999,8.399815341355175,0.050018325326067245
5.53204,8.368769493463716,0.049862860368502245
5.536631999999999,8.338134341163325,0.04972644009144522
5.541220000000001,8.311096926653523,0.04958825050094628
5.545807999999999,8.282016273820132,0.04945959505488045
5.550392,8.261152715729718,0.04932329240678473
5.554983999999999,8.236080496277985,0.049211960663519065
5.5595680000000005,8.211418972417318,0.04912004853713084
5.564148000000001,8.191376805509035,0.0490215899310974
5.568744000000001,8.174277311371986,0.04891140063335679
5.573331999999999,8.155256763625495,0.04880599077987253
5.577920000000001,8.13533678143136,0.04870011277133672
5.582503999999998,8.113251376199491,0.04860963336977521
5.587088,8.09055504739689,0.048544784380690806
5.591700000000001,8.066959284146646,0.048479399863539
5.596292,8.040176478696873,0.04843466698981594
5.6008960000000005,8.019156834075424,0.04837353463097237
5.605487999999999,8.000180427777563,0.048301398112071965
5.610079999999998,7.983902324822647,0.048228629253882244
5.6146720000000006,7.971221959658319,0.04815541973410659
5.619252000000001,7.953800052827462,0.04809255044499548
5.623848000000001,7.936500330710752,0.04802416255537636
5.628424000000001,7.922265466079421,0.047939968203507585
5.633024000000001,7.9039441248009155,0.04787667093719396
5.637611999999999,7.884356794932327,0.047828912479135684
5.642211999999999,7.860027923397208,0.047791342643254506
5.646796,7.842239462423914,0.04774326695674271
5.651387999999999,7.8188100253364405,0.04770571892277824
5.655983999999998,7.795014034106532,0.04768403965049772
5.660580000000001,7.77547084568657,0.04767282824771568
5.665176000000001,7.757726526161905,0.047661612208877616
5.669776000000001,7.741003825799032,0.04764484236549818
5.674367999999999,7.72260444125501,0.04762257932407781
5.678959999999998,7.70469379556757,0.047578502991558164
5.683544,7.683718292394749,0.047550502970387945
5.688132000000001,7.660943920326634,0.047522515716978825
5.69272,7.629708084087251,0.047510862391430965
5.697311999999998,7.596551194238427,0.047504023951175985
5.701904000000001,7.559552197170719,0.04750772554513977
5.706491999999999,7.517156593417124,0.047510506923975314
5.711087999999998,7.473861555215881,0.047513225655894796
5.715676,7.425947160062253,0.047521004332334416
5.720267999999999,7.367117366822705,0.04753237402628839
5.724856000000001,7.3060780090967965,0.04751996765039256
5.729443999999999,7.238742610237354,0.0475077192868416
5.734039999999999,7.168831092749113,0.04748831975179336
5.738628,7.086205308279657,0.04747263050027608
5.743232000000001,7.004190447380928,0.04742455650735948
5.747815999999999,6.9135477961481575,0.047354418581494924
5.752411999999998,6.81391080043891,0.04728200290421321
5.757019999999999,6.708099948310272,0.04719974651433995
5.761612000000001,6.598691358391044,0.04711340323439733
5.766208000000001,6.488505518738313,0.047017608598263594
5.770795999999999,6.374599756580844,0.04692471349066325
5.775391999999998,6.25721844134693,0.04682299082683573
5.779984000000001,6.139182061093661,0.04670468654660324
5.784584000000001,6.023066734449831,0.046578337881763736
5.789171999999999,5.9042531044630575,0.04644658250964763
5.793771999999999,5.779920683076253,0.046318736902253174
5.798367999999998,5.653667208080007,0.04619300078169028
5.802967999999998,5.524837614454961,0.04605363541579183
5.8075600000000005,5.397929074439357,0.04590220729642774
5.812151999999999,5.276294956395496,0.04575472775928628
5.816743999999998,5.156337522532784,0.04560742608603117
5.8213360000000005,5.041121630336605,0.04544112672254697
5.825923999999999,4.924639749550338,0.04529661511217515
5.830519999999998,4.812532856288165,0.045159052195478964
5.835108,4.703779331388292,0.0450306637052168
5.839692000000001,4.599278609298366,0.04491402450283708
5.84428,4.493756268046649,0.044801988299997486
5.848871999999998,4.387867372652494,0.04471573051130206
5.853456,4.280057423648898,0.04463095300094057
5.858043999999998,4.166362129102831,0.04458413264602879
5.862640000000001,4.055365137899709,0.04453617962082908
5.867227999999999,3.9461670155918815,0.04448530432237454
5.871819999999998,3.8377461430175566,0.0444398747423914
5.876412,3.7277707709762273,0.044357080560984315
5.880995999999998,3.614974910877809,0.044272938142995655
5.885599999999998,3.5061433427124187,0.04414220912583341
5.890188,3.398211208994677,0.04400268248388578
5.894775999999999,3.290279075276935,0.043841588710052455
5.899371999999998,3.174784911835573,0.043699097114492304
5.90396,3.056348075622976,0.04358254043081013
5.908564,2.9312486441344068,0.04349371330911436
