Time,Force,Position
4.8844840000000005,1.7153585667624973,0.033210156512956356
4.889071999999999,1.5569800607109574,0.03093261625464709
4.893671999999999,1.410416387192986,0.02865309721633702
4.898256,1.2696600159519664,0.02640762030100493
4.902856,1.141740096406309,0.02414763389367726
4.907447999999999,1.0235917710706315,0.02189899125390506
4.9120360000000005,0.9153372246590802,0.01966370743396757
4.916632,0.8161992074381532,0.0174256627527875
4.921212000000001,0.7240122963701178,0.015220517737695761
4.9258120000000005,0.6417191642262088,0.013013744568312256
4.930399999999999,0.5696863651488633,0.010804948394193457
4.934999999999999,0.5083245947291464,0.008644522335981569
4.9395880000000005,0.45800040710949486,0.006485355318400382
4.9441880000000005,0.4184694328616174,0.004327854399621047
4.948779999999999,0.38421288058548153,0.0021681095523932033
4.953375999999999,0.3613265634349589,0.0
4.957968000000001,0.3513649808770538,0.0
4.96256,0.35506124119664023,0.0
4.96716,0.36546423824082686,0.0
4.971751999999999,0.3729245625137786,0.0
4.976351999999999,0.38738013438824986,0.0
4.980951999999999,0.4079756608652212,0.005521844013720598
4.985544000000001,0.4417844328117294,0.011094750336921538
4.990136,0.48982806938956835,0.01674075430471518
4.994727999999999,0.5494082672557944,0.022372698485627698
4.999320000000001,0.6219131997146378,0.027874572640041492
5.003907999999999,0.7036229442613617,0.03339158841016414
5.0085000000000015,0.795070381201177,0.038993470814859967
5.013096000000001,0.8969105755534402,0.044682199775342414
5.017683999999999,1.010942396213447,0.050371421465431596
5.0222760000000015,1.1339788009816707,0.05614618025916107
5.026864,1.2644211489424797,0.061872919955512
5.031455999999999,1.3974057137151972,0.06771129816083302
5.036044,1.53497573362341,0.07361349992829032
5.040631999999999,1.6899676603624798,0.07938888066062609
5.045227999999998,1.8465921298340713,0.08511426023269118
5.049816,1.9991640244753779,0.09080048022128036
5.054403999999998,2.1485047354685305,0.09645787937828042
5.059000000000001,2.297478892319246,0.10217302578833179
5.063583999999999,2.4577010995814286,0.10788645054038358
5.068183999999999,2.6204994254724094,0.11357819139644101
5.072763999999999,2.7790008071048145,0.1137805739690666
5.077352000000001,2.927764496344128,0.1139294668318859
5.081928000000001,3.0667463517417217,0.11394374617563825
5.086516,3.1985224919263944,0.113857106034933
5.091096,3.3167188324990926,0.1139160695593142
5.095687999999999,3.4293080987745017,0.11391878897819484
5.1002800000000015,3.5375562793427067,0.11378347245740744
5.104863999999999,3.6397425485739294,0.11346518609230778
5.109448,3.731614103658221,0.11305453808428745
5.114028000000001,3.8120271407196444,0.11254896465093203
5.118615999999999,3.8804148776360976,0.11212727426533015
5.123200000000001,3.9461382130264964,0.11156950581437916
5.127787999999999,4.008419897157339,0.11090075371943281
5.132380000000001,4.053768413313908,0.11037174864860724
5.136959999999998,4.091100062707163,0.109894445433963
5.141539999999999,4.120947725642316,0.10948271868018869
5.146115999999999,4.143922325690095,0.10907811955971425
5.1507000000000005,4.166808642840618,0.108532448812281
5.155287999999999,4.176237345093312,0.10803820172646024
5.159872,4.175806170238769,0.10754325521858936
5.164456000000001,4.168624117210998,0.10703127475086388
5.169044,4.156367870191149,0.10648625005262308
5.173635999999998,4.138715016485412,0.10601799310687043
5.178211999999999,4.112845068036699,0.10568077529223645
5.182804000000001,4.084765555101626,0.10533058008381341
5.187387999999999,4.050223674870244,0.10501007490161764
5.191987999999999,4.0067654934279,0.10473170426543231
5.196572,3.9537800872038673,0.10455316853487935
5.201163999999999,3.8916781517892103,0.10451842580726844
5.205743999999999,3.8319860088405773,0.1043673238284053
5.210335999999998,3.769673605814518,0.1041649851407123
5.214915999999999,3.7047409427110334,0.10388959353726772
5.219504000000001,3.633468097025385,0.10360931003501707
5.224087999999998,3.5617845557486723,0.10327934154714857
5.228676,3.4893237647384567,0.10294376255185317
5.233260000000001,3.4217267001089176,0.10247905628224627
5.237839999999999,3.3517198430133543,0.10211593312889852
5.242432000000001,3.279669747594204,0.1017832816810888
5.247008000000001,3.2141600627368803,0.10131540665202604
5.2516,3.148938888756476,0.10089932346422148
5.256184000000001,3.0914460706624656,0.10038434330137855
5.260771999999999,3.036451327931735,0.09993540164304396
5.265360000000001,2.990983809982694,0.0993624313098004
5.269947999999999,2.9482587368252253,0.09883662654963646
5.274528,2.9112187812305623,0.09827887521629776
5.279132000000001,2.87782070487512,0.09774949831180747
5.283719999999999,2.8514178761211957,0.09721902275163241
5.288323999999999,2.8318881102546465,0.09670389978058912
5.292912000000001,2.822418449474997,0.09609436550464188
5.297515999999998,2.812626376001538,0.09562694907679399
5.302095999999999,2.808030681234304,0.095193577158804
5.306691999999998,2.8041341929350545,0.09487403736902877
5.31128,2.8072329522373245,0.09456713740049406
5.31588,2.8157724596741094,0.09427253769904914
5.320464000000001,2.8331841268732276,0.09386017020721726
5.325056,2.8503955660926823,0.09358328779139895
5.329640000000001,2.877867338378701,0.09311267258169727
5.334232,2.903706567932197,0.09274948395961603
5.338823999999999,2.9298343083626124,0.09246334755785995
5.343416000000001,2.9625024593548543,0.09206144444057097
5.348004,2.993782437042866,0.09174627872403526
5.352588000000001,3.031236271150267,0.09136242969226145
5.357171999999999,3.0610058908199025,0.09114572856264186
5.361764000000001,3.096538671317862,0.09081078133903199
5.36636,3.13015039820638,0.09051867043398348
5.370936,3.1658053634184853,0.09017615673042086
5.375536,3.1999058291635865,0.08983250100989756
5.380119999999998,3.238214956270007,0.089383281794648
5.384719999999998,3.2720269111381883,0.08899498035323648
5.389303999999999,3.3049394315587217,0.08861273694955726
5.393892000000001,3.3420606133405752,0.08812750955950907
5.398475999999999,3.3791817951224283,0.08763862750321204
5.403071999999998,3.411150739646686,0.08719426152436643
5.407655999999999,3.439888500522789,0.08675764702427698
5.41226,3.46196366612292,0.08645168727785084
5.416851999999999,3.483750320846132,0.0860871463036997
5.421444000000001,3.4979749458457237,0.085854389183738
5.426023999999998,3.5128104944160436,0.08554999920987857
5.430620000000001,3.5244148593382096,0.08524589266294365
5.435207999999999,3.5309111284514074,0.08506377388010701
5.439812,3.535852898097601,0.08487434766236351
5.444399999999998,3.536908419076284,0.08466981289512157
5.448996000000001,3.5442158397398744,0.08431528141036544
5.453579999999999,3.5452272192699286,0.08402811775571924
5.458175999999998,3.5476267721042136,0.08367981908411343
5.462764,3.5483496407573494,0.08333893815773744
5.467355999999999,3.5500941285722782,0.08297745370832507
5.471936,3.5424777177682913,0.08274293472806368
5.476516,3.537681795021394,0.0824685574240719
5.481096000000001,3.5359507297598767,0.08212964377212498
5.485688,3.525758200327092,0.08190703330686327
5.490279999999999,3.5186305283796875,0.08162156266865087
5.494868,3.513057355899288,0.08134400827369168
5.499451999999998,3.5110819212094793,0.08103439618391128
5.504027999999998,3.513970212900347,0.08064908945146378
5.508611999999999,3.5178801237530086,0.08024555235435184
5.513207999999999,3.5253877723962614,0.07981078749525752
5.517792,3.5364931588301056,0.07934961221024438
5.5223960000000005,3.5520957175021897,0.07885449437078672
5.526976000000001,3.5710075030879453,0.07827699030793438
5.531564,3.5937613958925834,0.0776523939556589
5.536155999999998,3.618969222611874,0.0770426950596309
5.540748000000001,3.6408678224174933,0.07652462177585792
5.545348000000001,3.6672635944613514,0.07597297030331251
5.549928000000001,3.6941922468104194,0.0754591612360962
5.554528000000001,3.722675398626492,0.07496170187690866
5.559111999999999,3.7519358001760668,0.07447783738683547
5.563715999999999,3.7913343500780594,0.07390531100512303
5.568307999999998,3.83445282248479,0.07331256281125496
5.572892,3.8793701637868154,0.07272588779711749
5.577483999999998,3.9316051653841697,0.072082244378885
5.582076000000001,3.9799980597626408,0.07149247449586998
5.586680000000001,4.031577996340639,0.0708494837449645
5.591272,4.079315825699753,0.07025877527811521
5.595867999999999,4.120513244497042,0.06973563187106067
5.600463999999999,4.161344109151894,0.06925296417285877
5.605039999999999,4.201642093501534,0.06875073876731763
5.609624,4.240019024241733,0.06827889162994245
5.614211999999998,4.277374335820139,0.0678329503528993
5.618811999999998,4.314607462684401,0.06740829463482957
5.623391999999999,4.350818970386867,0.06700972354608141
5.627984000000001,4.384454359460536,0.0666212721512562
5.632580000000001,4.419233552410144,0.06621128094253263
5.637156000000001,4.453479865054541,0.0657826618563065
5.641735999999998,4.4873154821078725,0.06532449836393264
5.646319999999999,4.518819349960698,0.06485085045950259
5.650908000000001,4.550567587241815,0.06436551861884394
5.655491999999999,4.5760197833893965,0.06391236947636063
5.660084000000001,4.596197557565237,0.06347565142295358
5.664672,4.6081582369981,0.06307618547149389
5.669276,4.617009917496956,0.06265539741211815
5.673867999999999,4.628271390461835,0.06218312145253891
5.678467999999999,4.637856179245564,0.0617129408840567
5.683047999999999,4.649606391067026,0.06121059314496157
5.687647999999999,4.664054906231431,0.06069838781783263
5.692232000000001,4.679114344966567,0.06014359209668576
5.696836000000001,4.693274349254052,0.059594907226829606
5.701423999999999,4.70600203878868,0.05902479715803845
5.706023999999999,4.718319032732241,0.05842571410024685
5.710615999999998,4.725361604704061,0.05782865743930496
5.715212000000001,4.7317491116565265,0.05722038591511538
5.719788000000001,4.738014433894845,0.0566226325293656
5.724376,4.742603071952013,0.056020397581733924
5.728952,4.746047906133242,0.055440355208849545
5.733547999999999,4.7493705556003265,0.05487299321854054
5.738136000000001,4.754369889248561,0.05431306780386143
5.742723999999999,4.754627681230264,0.05377694095854321
5.747308,4.754108223478465,0.053230623490857554
5.751888000000001,4.752444961850727,0.052700786698110874
5.756475999999999,4.759365349108402,0.05212580806085952
5.761064000000001,4.7657969975094945,0.05158841076986262
5.765643999999998,4.771984276482295,0.051072946120749085
5.770232,4.7752288826838605,0.05057767435402917
5.774819999999998,4.777451869723633,0.05009366631324211
5.779416000000001,4.779919226191698,0.04959265552879448
5.783995999999998,4.779199540460235,0.04912812240587456
5.788592000000001,4.775537181957538,0.04867995463369144
5.793188000000001,4.770608834864756,0.04825630982814672
5.79778,4.761471826410655,0.047876034221182605
5.802375999999999,4.755688186318853,0.04751024429510319
5.80696,4.742875396808643,0.04719504821199764
5.81156,4.731739291479582,0.04688964221979693
5.816147999999998,4.72035881672223,0.04660048471396805
5.820744000000001,4.707956722803085,0.04631915347313618
5.825332,4.688647664179675,0.04607889578086494
5.829927999999999,4.66279819499444,0.04585219131015051
5.834512,4.638869779418647,0.045613620154472276
5.839103999999999,4.618294732205152,0.04539327117123307
5.843703999999999,4.597475315563368,0.045189641464031524
5.848296000000001,4.568727315055526,0.04503650668373672
5.852899999999998,4.5370366417764485,0.04489966207611032
5.857496000000001,4.502036741583701,0.04480725516767329
5.862088,4.469735144733897,0.04471341436397897
5.866679999999999,4.434490875112856,0.044634622626211096
5.871268000000001,4.396181748006435,0.04457944406615035
5.875855999999999,4.360448739528811,0.04453474640844143
5.880436,4.326514599946485,0.04448934727151009
5.885016,4.296300382868894,0.04443532841343842
5.889607999999999,4.265963981077158,0.044390593633543314
5.894188,4.236649198447218,0.044335259284515434
5.898779999999999,4.212075957483806,0.04426457348977888
5.903368,4.179041252349126,0.04421577211912208
5.907951999999998,4.142941689729067,0.04419445411590592
5.912568,4.105698323233068,0.04419210152482741
5.917148000000001,4.075239736727187,0.04415446462909212
5.921755999999999,4.051976625802489,0.044122906351548766
5.926348000000001,4.027569711001851,0.04410947358813788
5.930952000000001,3.995722951191739,0.04410926841888115
5.935548000000001,3.9641205608099184,0.04408781729738779
5.940131999999998,3.9344392240375394,0.04405769169049665
5.944728000000001,3.904880071979307,0.04401675832050952
5.949324000000001,3.872989170720566,0.04393975676212546
5.953916,3.836889608100506,0.04391462452887219
5.958504000000001,3.8014451104998024,0.043914167058999636
5.963100000000001,3.766777862632601,0.043926574808441254
5.967687999999999,3.726469638651222,0.04395902776256034
5.972283999999998,3.6879602835651384,0.04399065996712139
5.976868,3.642543963774791,0.04407562092381805
5.9814599999999984,3.598027078432091,0.04416495714592224
5.986039999999999,3.547502662832777,0.044311614480161146
5.990631999999998,3.4982442358235475,0.04441813704289647
5.99522,3.4527057313190546,0.044522490700505214
5.999815999999999,3.4110093340334444,0.044609133880081725
6.0044,3.3712339903572754,0.044686651705072016
6.008996,3.327494354748079,0.044797362310969556
6.013583999999998,3.278358112452995,0.04490381606828359
6.018180000000001,3.2289775007296186,0.045040545418113344
6.022767999999999,3.185115680406276,0.04517202863651802
6.0273520000000005,3.1403544256352856,0.04530037257237614
6.031943999999999,3.0964926053119424,0.045430273540381615
6.036532000000001,3.0537745888645387,0.04553159369136167
6.041124,3.0153093752270843,0.04566573768564905
6.045704000000001,2.974512412389122,0.04576319149357563
6.050284000000001,2.933182569245949,0.04581978816393021
6.054876,2.8929965299787153,0.04584865766001555
6.059467999999999,2.8558753481968626,0.04583806527229635
6.064056000000001,2.8150342439102722,0.04583585758212708
6.068652,2.7763585626614145,0.04579527033686485
6.073236000000001,2.7390710547167876,0.04568942761937111
6.077832000000001,2.706891642581128,0.04551122407152659
6.082419999999999,2.6705035690841488,0.045401912474036
6.087019999999999,2.6344820497296064,0.045238874433529024
6.0916,2.595762227032121,0.04506927881558527
6.096195999999999,2.550501993772808,0.04492266290596592
6.100784000000001,2.5056083146559334,0.04471641787583768
6.105384000000001,2.4598152010914105,0.04449863379981565
6.109976,2.4096471000027937,0.0442533976146396
6.1145679999999984,2.3521613386188487,0.044005849292684876
6.119160000000001,2.2953306422542603,0.04379301606841696
6.123752,2.2328589697754935,0.04361080229631374
6.1283400000000015,2.1710423623160833,0.04345716268810133
6.132932,2.104850767332579,0.0432707128242453
6.137519999999999,2.0414796604061642,0.04304601852391363
6.1421160000000015,1.976187499870308,0.042816061088148546
6.146704,1.907053232115569,0.04261137134528393
6.151299999999999,1.835098476303741,0.042396096025629826
6.155888000000001,1.7590572438447387,0.04231007215600871
6.160484,1.6792960888809993,0.040077248980502383
6.165075999999999,1.5963478917177338,0.03789784834856634
6.169651999999999,1.506492729850205,0.035753046018886805
6.174247999999999,1.4189251757345545,0.03358048187519884
6.178827999999999,1.335077544123641,0.03144982826712851
6.183412000000001,1.2523737163886672,0.029325732236494963
6.188008,1.1735119958725757,0.027178656497537014
6.192588000000001,1.0941615364999018,0.025078938499294524
6.197175999999999,1.0212293029749084,0.02299310577217832
6.201764000000001,0.9521391766687977,0.020906360185051424
6.206356,0.8893450914962219,0.018821926734703218
6.21096,0.8265510063236459,0.016719181958722316
6.215547999999998,0.7693978972652488,0.014586364854817626
6.220140000000001,0.7102015498832646,0.012456790208512494
6.224720000000001,0.6564018091871673,0.010344689369969249
6.229320000000001,0.6041565679580743,0.008275000157508787
6.233903999999999,0.5573079334148684,0.0062290934949642725
6.238503999999999,0.5150786558240474,0.004175180679573797
6.243096000000001,0.47644711602381806,0.002150463154679117
6.247692000000001,0.4447225409278519,0.0
6.252279999999999,0.42145943000315345,0.0
6.256872000000001,0.40113899184968993,0.0
6.26146,0.3883805834198462,0.0
6.266055999999999,0.3760328705810676,0.0
6.270636,0.35845487721917574,0.0
6.275223999999998,0.33834490667711414,0.0
6.279812,0.31925655529684605,0.0
6.284399999999998,0.3011898230783716,0.0
6.288992,0.2794031683551599,0.0
6.293583999999999,0.26301312031783536,0.0
6.298175999999998,0.24956574505174575,0.0
6.302755999999999,0.23534112005215396,0.0
6.307351999999998,0.22201592950020999,0.0
