Time,Force,Position
6.445491999999998,2.3293465090892442,0.046681281561925615
6.45008,2.2320412625805024,0.04650539097341877
6.454675999999999,2.131793343300526,0.04633803135146325
6.4592639999999975,2.0270482517823094,0.046151434387725836
6.463856,1.9230804099975962,0.04599222201205073
6.468443999999998,1.8182131337652343,0.0436007120252537
6.473032,1.7137565531239378,0.04123990497487293
6.477619999999998,1.6113432108062287,0.038864687704306324
6.482203999999999,1.5052099459837822,0.03650599082557114
6.486795999999998,1.401897169218425,0.034115758680188984
6.491371999999998,1.2993616421865697,0.0317259344116769
6.495963999999997,1.195804495992921,0.029336403691051057
6.500547999999998,1.0935574798379855,0.026985711718223317
6.505127999999999,0.9924984090076172,0.02469596542146844
6.509732,0.8940154568060469,0.022430436094094727
6.514308,0.7992524271092138,0.020171058174145613
6.518895999999998,0.710130373526559,0.017918425836569718
6.523488,0.6264049266297912,0.015673223713586336
6.528079999999999,0.5517960089236477,0.013437997832590223
6.532675999999999,0.4870808701416307,0.011192815694166105
6.537251999999999,0.43082719553088117,0.00890560160309895
6.541851999999999,0.3767830854064926,0.00666273650569584
6.546436,0.3298122661491411,0.004438015305225305
6.551036,0.2834965119111461,0.002232572270363956
6.555623999999998,0.24372116823497741,0.0
6.5602160000000005,0.2139617881970808,0.0
6.564803999999999,0.1890661345398605,0.0
6.569395999999998,0.16686878422558368,0.0
6.5739959999999975,0.15186690949248974,0.0
6.578588,0.14610374866416556,0.0
6.583168000000001,0.1459815639500199,0.0
6.587759999999999,0.15342140895949405,0.0
6.592347999999998,0.16470336118785095,0.0
6.596936,0.17635186755864488,0.0
6.601523999999998,0.18812255864358451,0.0
6.606107999999999,0.19772782669079136,0.0
6.610695999999997,0.20234718364317633,0.0
6.615283999999999,0.20426823725261767,0.0
6.619875999999998,0.19682839224314352,0.0
6.624464,0.18783404776666499,0.0
6.62904,0.1834590602425714,0.0
6.63364,0.18484723354680196,0.0
6.6382200000000005,0.18533597240338465,0.0
6.642803999999998,0.19338674098358716,0.0
6.6473960000000005,0.19861702150670044,0.0
6.651975999999998,0.19718470675384175,0.0
6.656568,0.19550802257269168,0.0
6.661155999999998,0.19268753451560244,0.0
6.665751999999998,0.18974486174436758,0.0
6.670335999999999,0.18455872266988244,0.0
6.674935999999999,0.1873114070931929,0.0
6.679516,0.19432713395819015,0.0
6.684111999999999,0.20801569573089804,0.0
6.688707999999998,0.2346731335448517,0.006722616765311082
6.693296,0.2699244598759575,0.01348045963677736
6.697896,0.31707890163788727,0.020109758918261528
6.702492,0.3754033505457671,0.026932561503629097
6.707079999999998,0.4453085021906621,0.03381877862003579
6.711663999999999,0.5351336360296943,0.04052988903752834
6.716251999999997,0.6362951031774504,0.04724900993942504
6.720848,0.7423746777862497,0.054079495557092225
6.725435999999998,0.8548827178744683,0.0609391227801161
6.730031999999998,0.9762731573567586,0.06788515183640835
6.73462,1.1089999301477729,0.07473247934999258
6.7392,1.2534737318385758,0.08166054245836596
6.743779999999997,1.4128816046286943,0.08860185159638682
6.748367999999999,1.581704757118095,0.09562467838648092
6.7529559999999975,1.7619864276303654,0.1026693831510154
6.7575559999999975,1.9530715511461487,0.1096854051325928
6.762143999999999,2.149719607510593,0.1167062516334749
6.766739999999999,2.3385171232744986,0.12383450397455942
6.771335999999998,2.5212968691500492,0.13098619856623192
6.775931999999997,2.6976922909948087,0.13816106755725022
6.780528,2.86398346630404,0.13863623089568733
6.785119999999999,3.0235237634400427,0.13911158043461241
6.789715999999999,3.1769682474221734,0.13970941698907818
6.794304,3.3247615156583876,0.14008579804667437
6.7989,3.461751330891088,0.14043150441028562
6.803487999999998,3.5822525755574692,0.14096322420789192
6.808083999999997,3.6870424993910333,0.1415661321015271
6.812671999999999,3.7834387626871084,0.14201874086338628
6.817271999999999,3.871852061036759,0.14239539667018522
6.821852,3.9528933180107146,0.14261385947550387
6.826447999999999,4.01552495080891,0.14300912523120848
6.831043999999999,4.06546597881104,0.14329560415450746
6.835635999999997,4.102594217302959,0.14350591253462036
6.840235999999997,4.133083522704056,0.14350227574189925
6.844828,4.148760941719984,0.14356668322687027
6.849415999999998,4.150281539370099,0.14371024657322062
6.854008,4.150892462940827,0.1436454454560519
6.8585879999999975,4.149982788861441,0.14344147611356947
6.86318,4.14555342025698,0.14323518399261023
6.8677639999999975,4.140547029898681,0.14294046282891812
6.8723600000000005,4.132676010034664,0.1426497638989552
6.876943999999998,4.127581336779108,0.1422187934738073
6.881519999999998,4.118966968998478,0.14178751340742152
6.886104,4.106999232855549,0.14141022123708097
6.890691999999998,4.097685658606935,0.140903425967198
6.89528,4.088782779949385,0.14042413521704353
6.89988,4.086420311853663,0.1397760544754869
6.904471999999998,4.079071932663117,0.1392759640109819
6.90906,4.0680036309678345,0.1388692256119392
6.913656,4.055014275663112,0.1385144064525682
6.918251999999999,4.0470108314532105,0.13800168868857818
6.922847999999998,4.041339136443816,0.13746415168614126
6.927423999999999,4.033912713987753,0.1370351338793555
6.932023999999998,4.022155445456225,0.1367651050873551
6.936612,4.016039153038876,0.13634483433833766
6.941208,4.014009337268701,0.1357880387851437
6.945795999999998,3.9994315806800844,0.1355874123278431
6.950395999999998,3.9865305082726166,0.1353570415954867
6.954988,3.9790260425510366,0.13500575453720695
6.959579999999999,3.971810087706376,0.13470044311916182
6.964175999999998,3.9681918706523076,0.1343170191318075
6.968767999999997,3.9567672544463277,0.13415530146587512
6.973364,3.9447317146696195,0.13406049115574104
6.977955999999999,3.9370711624170047,0.13388014817792573
6.982547999999998,3.9284331324512243,0.13380375468758962
6.98714,3.9242922747236832,0.1336311695464171
6.991727999999998,3.919296123997123,0.13354955004444105
6.996319999999997,3.921373264137599,0.1333287074247095
7.000907999999999,3.927458837659732,0.1330628744918723
7.005503999999998,3.9375528445635215,0.13275717172131274
7.010095999999997,3.9501449268305913,0.1324980808319721
7.014683999999999,3.963558400279791,0.1323062011341243
7.019275999999998,3.9818797415582963,0.13205355388195758
7.023864,4.004453885646749,0.13173560878899027
7.028455999999999,4.030381398097502,0.13138436798621847
7.03304,4.054309813673295,0.13116580585656623
7.037616,4.089275812049154,0.13070367711410147
7.042207999999999,4.123753071568431,0.13029892708129256
7.0467960000000005,4.1549211041740355,0.13001670346837427
7.051371999999997,4.185844767351349,0.12976091878346896
7.055975999999998,4.218567299423959,0.1294839259311328
7.060568,4.2579524267725395,0.12904553871390234
7.065159999999999,4.299625161872998,0.12852107092814466
7.069748000000001,4.342319516135252,0.12798820620419626
7.0743480000000005,4.386157674273444,0.12742030373002425
7.078935999999999,4.428074778802196,0.12690698362280628
7.083539999999999,4.469581187739881,0.12636805088712616
7.0881240000000005,4.5106769010865015,0.12581141892220207
7.0927240000000005,4.553160787737353,0.12520343152366223
7.097307999999998,4.58844919880702,0.12471836518936533
7.1019039999999976,4.617685938171444,0.12431780542229627
7.106507999999998,4.6477779705348885,0.12384408159893959
7.111103999999997,4.680524164792647,0.12327866242879519
7.115691999999999,4.7096726212598155,0.12277505966227982
7.120283999999998,4.732280667165158,0.12240144165404204
7.124859999999998,4.757542874964814,0.12192431419302172
7.129444,4.778307910526233,0.12152788288173583
7.134031999999998,4.79968386965838,0.12108215817228768
7.138624,4.821915121789546,0.12056306644350191
7.143207999999998,4.842181178862643,0.120020915905588
7.147807999999998,4.85741718339229,0.11953508424761888
7.152391999999999,4.868766939254425,0.11906732307986605
7.156967999999999,4.878684380363703,0.11859640426354932
7.161552,4.881650715320088,0.11821167705959608
7.166135999999998,4.881385866628318,0.1178484649697876
7.170724,4.883775179830865,0.11738981580009136
7.175311999999998,4.879868451899877,0.11701810410582383
7.1799,4.873385605340092,0.11667514327168396
7.184487999999998,4.860973271789208,0.11638957581628608
7.189080000000001,4.853546849333144,0.11599650999717723
7.193667999999999,4.850573457666693,0.11547682907905905
7.198263999999998,4.8402824057049125,0.11506800817774829
7.202852,4.818831586228921,0.11484450999497754
7.207452,4.796192821428364,0.11459291405253494
7.212031999999997,4.774942229932036,0.11428459380578919
7.216631999999997,4.748050662321529,0.11407524326010934
7.221223999999999,4.720626214405812,0.11384406234352694
7.225819999999999,4.692957397061804,0.11363028183763947
7.230395999999999,4.6646776561470675,0.11346713878501133
7.234991999999998,4.638851849146985,0.11328424640462992
7.239587999999998,4.612292933862025,0.11316633672178089
7.24418,4.592562940015812,0.11297482880775349
7.248759999999997,4.577862998713049,0.11273955583053628
7.253352,4.567049306077798,0.11249543914330476
7.257939999999998,4.560244046824201,0.11223252827935971
7.262539999999998,4.547719768190911,0.11213497399346121
7.267123999999999,4.5495864407199855,0.11184705211388918
7.271719999999998,4.556238796364219,0.11154314842841773
7.276311999999997,4.571152388200057,0.11118718495725323
7.280899999999999,4.59007441341755,0.11082325351937602
7.285499999999999,4.6104728948365326,0.11053255927534639
7.290075999999999,4.642197469932499,0.11013070132078005
7.294663999999997,4.687047007600745,0.10959381995016158
7.299271999999998,4.7401577814605975,0.10901698472459034
7.30386,4.8020185303686365,0.10837517254343416
7.308456,4.875449742381951,0.10761894170861441
7.313047999999998,4.951379029758545,0.10691228254104694
7.317636,5.028251893031416,0.10625889814979539
7.322227999999999,5.108111570524151,0.10561474346236345
7.326827999999999,5.193534180865545,0.10497695523965522
7.331419999999998,5.2861522667881236,0.10426140904181494
7.3359999999999985,5.372640637739941,0.10367681358149013
7.3405999999999985,5.460805692872908,0.10311392488891527
7.345188,5.55833164662479,0.10245846958156826
7.349784,5.654713796500734,0.1018366729854536
7.354367999999997,5.757880726366795,0.10111532560919274
7.358967999999997,5.854385060956884,0.10051656696882974
7.363564,5.951133764975263,0.09992124781699509
7.368155999999999,6.043385296755404,0.09937813328847982
7.37274,6.131139656297306,0.09888803513351953
7.377331999999999,6.216562266638701,0.09840071966372521
7.381931999999999,6.300308192798947,0.09794177620247664
7.386531999999999,6.378002447253949,0.09753334604916
7.391119999999997,6.450666649165501,0.09715704985933583
7.395716,6.514092137172282,0.0968789231800903
7.400303999999998,6.569422715150233,0.09667312795885974
7.404888,6.62291028278426,0.09643617168730796
7.409475999999998,6.672755971179068,0.09618030355715199
7.414071999999997,6.720880833944097,0.09588871215269122
7.418664,6.760988829945814,0.0956109234135501
7.423268,6.795656077813014,0.09533366057431546
7.427859999999999,6.832200237841028,0.09499245803574748
7.432451999999998,6.858195553925559,0.09471728745150636
7.437044,6.86914485382837,0.09453986983650489
7.441623999999997,6.881316000872637,0.09429347816615813
7.446207999999999,6.888701464801744,0.09405106067656734
7.450799999999997,6.888847311701041,0.09381332342669918
7.455387999999999,6.8804875529804415,0.09360808540933925
7.459992,6.87437126056309,0.09332018186260524
7.464587999999999,6.867311392249465,0.09299506882447252
7.469172,6.85943013275371,0.09262572567518754
7.473775999999997,6.843165452352204,0.09227904772690704
7.478355999999998,6.823136707997333,0.0919175685211043
7.482948,6.798977345546659,0.09156205897356774
7.487527999999997,6.774529472219065,0.09117580544767066
7.492124,6.749915272728699,0.09075171905484683
7.496711999999999,6.725012562361413,0.09029623984697877
7.501311999999999,6.704318513355446,0.08978226602873438
7.505891999999999,6.681537084577265,0.08924785508384869
7.510487999999999,6.657856221351436,0.08871504419458939
7.515076,6.633930988697314,0.08819396254469783
7.519667999999999,6.607429637414396,0.08767976370825808
7.524255999999998,6.586691446959802,0.08710988753595171
7.528848,6.570572613457591,0.0865015161071792
7.533435999999998,6.549590053574706,0.08593875427032141
7.538027999999997,6.528363124263529,0.08538790876495311
7.542615999999999,6.515108920267038,0.08479564804427006
7.547203999999997,6.508395126832372,0.0841517516178153
7.551787999999998,6.497472672036386,0.08356307389400479
7.556379999999997,6.48630584781211,0.08298690081793977
7.560972,6.475671903893044,0.08242617789200694
7.565552,6.471211816393367,0.081837773029753
7.570143999999999,6.473702835046582,0.08122747997120384
7.574728,6.484410948442773,0.08057208768903695
7.579315999999999,6.500760037953142,0.07988092234057895
7.583907999999997,6.518663626930516,0.07919793495614327
7.588504,6.536733542070663,0.07855343044581636
7.593107999999997,6.551494230297139,0.07795914455649854
7.5977,6.571817851372275,0.07738302258290373
7.602295999999999,6.599459132742739,0.07677367242873458
7.606895999999999,6.627999848560852,0.07616183146822952
7.611487999999998,6.659893932741265,0.07555153264027992
7.61608,6.6896225938839455,0.07497179033879114
7.620667999999998,6.723970611979011,0.0743737741675477
7.625271999999999,6.763593052045818,0.07376426565076896
7.629859999999997,6.804237111274418,0.07314707708499438
7.634456,6.843082301607723,0.0725447482492491
7.639047999999999,6.880539318636797,0.07197863570986528
7.643635999999997,6.92134970402817,0.07141544602419922
7.648228,6.965757827210136,0.07084540631307229
7.652823999999999,7.012864253735045,0.07027312438556187
7.657411999999997,7.060870114707601,0.06970683393471219
7.662004,7.107199291499007,0.0691501312103303
7.666603999999999,7.149031296052176,0.06861635633387607
7.671203999999999,7.186899008672315,0.06811888240867704
7.675799999999999,7.227587209349543,0.06761527049910403
7.680395999999998,7.272361886673945,0.067083216924543
7.684987999999997,7.322000290379025,0.06652683966854354
7.689571999999998,7.3685296951500945,0.06596445860428056
7.694151999999999,7.411216992702282,0.06543121635147137
7.698743999999998,7.455947528578056,0.06488692678424773
7.703336,7.500922433882121,0.06433751418658709
7.707912,7.5510054349951545,0.06375553048411198
7.712508,7.596469079155802,0.06319536881452523
7.717095999999998,7.640378223849447,0.06263380806760924
7.721684,7.686330606866677,0.06206312034717304
7.726267999999997,7.734448412921642,0.061479987781606855
7.730855999999999,7.784976011442629,0.060872711042934624
7.735467999999997,7.837791217715496,0.060248609611497285
7.740055999999999,7.890728608702507,0.05962804877927739
7.744643999999997,7.940190446613072,0.05901309752373371
7.74924,7.988097785056635,0.058397196431442026
7.753827999999999,8.032940266014815,0.05780487436318893
7.758419999999997,8.078682181420644,0.05721608806091434
7.762999999999998,8.121847978197676,0.05662578942688507
7.767599999999998,8.15679668023173,0.05605285102961817
7.772175999999998,8.188147644475194,0.055489636246172966
7.776775999999998,8.213857632604478,0.05494602813559946
7.781364,8.23548114408659,0.05442774143787064
7.785959999999999,8.254528536939903,0.05390744772104131
7.790551999999998,8.272554310631422,0.053396763294461726
7.795147999999997,8.285716357942265,0.05290603910543104
7.799747999999997,8.291849255834698,0.05245294521509445
7.80434,8.298759403460636,0.052004763981951814
7.808931999999999,8.303748497477132,0.05156385590023535
7.813523999999997,8.304528930132307,0.051151603002365285
7.818111999999999,8.296481344473777,0.05077363968594193
7.822707999999999,8.27858412133975,0.050434438965949804
7.827299999999997,8.250060010996721,0.05012889533393455
7.831887999999999,8.212830067054135,0.04985067338121985
7.836475999999997,8.173068145931376,0.04960265294680621
7.841072,8.126399260104357,0.04937990479072654
7.845663999999999,8.07817587481033,0.04914432905700353
7.850244,8.023822774545547,0.04893968579494006
7.854835999999999,7.968858750710032,0.04875954281590146
7.859415999999999,7.916104291360879,0.048597789701928795
7.863999999999997,7.857220117040964,0.048467027853419636
7.868596,7.800012626902199,0.04833925471748727
7.873179999999998,7.744604005658731,0.04820921826177565
7.877768,7.690872068596413,0.048081673581909415
7.8823599999999985,7.63023316682983,0.04797988888883406
7.886959999999998,7.570493699510895,0.04787582654520439
7.891551999999997,7.511653666639609,0.047770323385096694
7.896127999999997,7.447949907387647,0.047679473003762886
7.900727999999997,7.3829801595456,0.04760270553941498
7.905315999999999,7.31698879254176,0.04753052193047881
7.909915999999999,7.254228609186073,0.047475410606511295
7.914503999999997,7.196865032516273,0.04742011906347009
7.9191,7.14412081279886,0.04735830023233449
7.923683999999998,7.095873765319685,0.04729628589424372
7.928279999999997,7.046971652821155,0.04722183019102621
7.932867999999999,7.001422908684923,0.04715878803685023
7.9374639999999985,6.955141056263817,0.047130406211564044
7.942059999999998,6.913600745509242,0.04709021718099616
7.946659999999998,6.87140536973531,0.0470373691402105
7.951255999999997,6.826267321190144,0.046996771613076825
7.955852,6.784194130130359,0.04693686596702097
7.960439999999998,6.735580528508747,0.046887346015111867
7.965031999999997,6.683124819668252,0.04684859450493063
7.969619999999999,6.623762146123493,0.04683989279233851
7.974219999999999,6.569263198959412,0.04681181276846399
7.978804,6.5146420670811835,0.04678838565828896
7.983395999999999,6.455279393536425,0.04677675210845667
7.987987999999998,6.395794535277522,0.04677207400840389
7.992567999999999,6.331323765923795,0.046794770198976564
7.997163999999998,6.265054127674774,0.046817296347497726
8.001748,6.19747435938704,0.046811913801975566
8.006335999999997,6.125397418861066,0.04680549491390847
8.010943999999999,6.051277240011506,0.04681270461051598
8.015532,5.97086102002841,0.0468186059433361
8.020139999999998,5.88942318088352,0.046830473944464344
8.024728,5.804509788662185,0.046835188056719254
8.029315999999998,5.717264647240343,0.04681769843218168
8.033911999999997,5.623601279970821,0.04680481944150605
8.038499999999999,5.5298157279871525,0.04679793646677988
8.043091999999998,5.43729616459357,0.04676855495649093
8.047684,5.344532231771695,0.04675183061226087
8.05228,5.252545548683322,0.046743958548663186
8.056867999999998,5.159537246433158,0.046744999253734265
8.061467999999998,5.065507325021199,0.04676171337089234
8.066056,4.96277157000968,0.04682291405399921
8.070663999999997,4.85337321972219,0.046913623866805344
8.075256,4.7461402924724325,0.04697630560436365
8.079851999999999,4.636331246593878,0.04703253307159553
8.084443999999998,4.526111505124257,0.047055114633606177
8.089039999999997,4.4149923292069895,0.04707775411608658
8.093636,4.298887242194898,0.04714226629536107
8.098232,4.181882720735159,0.0472082316095878
8.102819999999998,4.061402646198975,0.04726740057136045
8.107412,3.940922571662792,0.047328420274990256
8.111991999999997,3.81954306267896,0.047390715497275825
8.116575999999998,3.6962425000856864,0.04747186222086257
8.121164,3.5728197527782677,0.04756414141604076
8.125764,3.4501742552043515,0.04767838866797909
8.130347999999998,3.3259742581634306,0.04775639330732115
8.13494,3.198054338617773,0.04784539056101254
8.139531999999999,3.0655150621197294,0.04795910259643552
8.144112,2.9312991014405365,0.04806815676970993
8.148708,2.797327510189635,0.04814514947171094
8.153295999999997,2.6657657114047573,0.0481379464330002
8.157875999999998,2.539189823714702,0.04806744660655781
8.162468,2.4137577399005847,0.047966051085538086
8.167047999999998,2.287836917229885,0.04795314296923774
8.171636,2.167312701245073,0.04793986627507197
8.17624,2.049364603889059,0.04793752330925326
8.180831999999999,1.9305170720853966,0.04793282810435507
8.185423999999998,1.817432701110059,0.04785106642109803
8.190012,1.7089676870871058,0.047714184036740756
