Time,Force,Position
6.028751999999997,0.10409862748197635,0.0
6.033344,0.08516768244167228,0.0
6.037936000000002,0.06611455268722252,0.0
6.042527999999997,0.047594303237983616,0.0
6.047131999999998,0.03279397629348179,0.0
6.051727999999997,0.02159138713957137,0.0
6.056315999999995,0.013209286042750176,0.0
6.060912000000002,0.0057266193935768305,0.0
6.0655,0.0010644408014927132,0.0
6.070096,0.0010644408014927132,0.0
6.074680000000001,0.0,0.0
6.079276,0.0,0.0
6.083872,0.0,0.0
6.088459999999998,0.0,0.0
6.093052,0.0,0.0
6.097639999999998,0.0,0.0
6.102232000000001,0.0,0.0
6.106823999999996,0.0,0.0
6.111407999999997,0.0,0.0
6.116003999999997,0.0,0.0
6.120592000000002,0.0,0.0
6.12518,0.0,0.0
6.129776,0.0,0.0
6.134363999999998,0.0,0.0
6.138971999999995,0.0,0.0
6.143571999999999,0.0,0.0
6.148167999999998,0.0,0.0
6.152755999999997,0.0,0.0
6.157347999999999,0.0,0.0
6.161940000000001,0.0,0.0
6.166539999999998,0.0,0.0
6.171127999999996,0.0,0.0
6.1757319999999964,0.0,0.0
6.180323999999999,0.0,0.0
6.184919999999998,0.0,0.0
6.189512000000001,0.0,0.0
6.194108,0.0,0.0
6.198695999999998,0.0,0.0
6.203291999999998,0.0,0.0
6.207879999999996,0.0,0.0
6.212475999999995,0.0,0.0
6.217064000000001,0.0,0.0
6.221651999999999,0.0,0.0
6.226239999999997,0.0,0.0
6.230832,0.0,0.0
6.235424000000002,0.0,0.0
6.240007999999996,0.0,0.0
6.244603999999995,0.0,0.0
6.249184,9.720272006612644e-05,0.0
6.253776000000002,0.009976239281851726,0.0
6.258364,0.028371121095271932,0.0
6.262955999999996,0.05589277173105511,0.0
6.267547999999998,0.09139738731326208,0.0
6.272135999999996,0.1374610864706907,0.009478326559714678
6.276727999999999,0.18934232753681032,0.0192117058928354
6.281320000000001,0.2505166635880668,0.028754658368713545
6.285907999999999,0.3208619099103144,0.038199327502506486
6.290503999999999,0.402954185132351,0.04737515491223417
6.295099999999998,0.4951168050730265,0.05644636114342964
6.299692,0.6001702577894303,0.06523675539862384
6.304271999999997,0.7160713049579752,0.07395264258147578
6.308872000000001,0.8448631849022483,0.0824750400100078
6.313456000000002,0.9815599865274276,0.09111797106424753
6.318039999999996,1.1282049481571004,0.0997512197878952
6.322631999999999,1.2852868086478488,0.10830335030270866
6.327227999999998,1.4533384483048843,0.11680254701827203
6.331815999999996,1.631826986822996,0.1252381928077814
6.336411999999996,1.8231180752195792,0.13341206164852853
6.341011999999999,2.0197527090306115,0.141500693882634
6.345604000000002,2.20533952040984,0.14965829860794533
6.350192,2.381633236803931,0.15782814285345315
6.354787999999999,2.5466347613379274,0.16609550798742603
6.3593759999999975,2.705818743963232,0.17426535223293388
6.363963999999996,2.8500686554892214,0.1730785333806794
6.368552000000001,2.990788632858398,0.17152320768401166
6.373143999999996,3.122293558507955,0.17006906969694854
6.377739999999996,3.242662378828452,0.16870599930987001
6.382328000000001,3.349441159905236,0.1675896519345856
6.386919999999996,3.4463498242430437,0.16647230505932428
6.391511999999999,3.5278695804418434,0.16560918473286737
6.396104000000001,3.5966987318445782,0.16479641729702726
6.4007000000000005,3.649772420965867,0.1641947871561629
6.405287999999999,3.6920765589005327,0.16349083577270815
6.409895999999996,3.7215679073249874,0.16281537150472292
6.414487999999999,3.738657161830297,0.1622116459161735
6.419075999999997,3.7420341923777474,0.16166416873488448
6.423667999999999,3.737750670672583,0.16099563438635678
6.428267999999996,3.7165339809931446,0.16068233368295456
6.432864000000002,3.685501555655098,0.16058583996089074
6.437452,3.6555687927443614,0.1603501318160914
6.442056000000001,3.62690201842371,0.16003550020649787
6.446652,3.602155394587459,0.1594789612682077
6.451248,3.5735666635323247,0.15906096210143236
6.455824,3.5490644091243655,0.1584675012222272
6.460428,3.520064982478166,0.1580078897580248
6.465007999999997,3.4904546322612386,0.15761639618093434
6.469608000000001,3.4623987815113155,0.1571940275317455
6.474192000000002,3.434875811066603,0.1567846033897506
6.47878,3.402655440403989,0.1566313548537305
6.483376,3.3721558953711526,0.15651818166729126
6.487971999999999,3.3429664803770294,0.15640734686406407
6.492564000000002,3.317130433745206,0.15620831605158852
6.497160000000001,3.2956693746374763,0.15587361775432199
6.501744000000002,3.2774394991779006,0.15546826865696806
6.506332,3.259498134595245,0.15511420954202493
6.510919999999999,3.247364072289541,0.15461746097245005
6.515499999999996,3.2297553600324327,0.1543924388255524
6.520095999999995,3.2162772658711267,0.1540739599822915
6.524687999999998,3.211138451166943,0.15345782188539747
6.529283999999997,3.2088642659684767,0.15282966789545696
6.533871999999995,3.20520190746578,0.1522953133319013
6.5384559999999965,3.1985188329263305,0.15198300057612266
6.543044000000002,3.194289692301533,0.15161859286709328
6.547632,3.1948462347918944,0.15117313986384887
6.552239999999998,3.2001884603974142,0.15064567131408246
6.556827999999996,3.207495881061004,0.1501358920774333
6.561423999999995,3.213825824011428,0.14975307980344774
6.566012000000001,3.225840884524659,0.14926842919418182
6.570603999999996,3.2496707775714575,0.14842860032424812
6.575195999999998,3.276731854266411,0.14753701294057572
6.579788000000001,3.304858691571785,0.14668830307404562
6.584379999999996,3.3338069200592906,0.14592321266197433
6.58896,3.362554920567133,0.14528846448553426
6.5935599999999965,3.3950669850283397,0.144639391755922
6.598140000000001,3.4333863517664986,0.14388504783876252
6.602739999999997,3.4707282407914932,0.143276154686706
6.607332,3.513999616807585,0.14253966470848872
6.611927999999999,3.5607465459001224,0.1417381504081034
6.616520000000001,3.6029182594889035,0.14116742626897888
6.621108,3.643946169201745,0.14066592144150888
6.625695999999998,3.6910257506198305,0.14004921409326476
6.630288,3.744645742599742,0.13925884446243753
6.634875999999998,3.79892079959901,0.13848070786691347
6.639471999999998,3.850786064132254,0.13784509608757942
6.644059999999996,3.9012631553612676,0.13729596095170515
6.6486480000000014,3.9534169307714317,0.1367286019767407
6.653236,4.012233301457567,0.13598382122603656
6.657831999999999,4.067085380210674,0.13537929964062126
6.6624240000000015,4.109511702859485,0.13512159202949672
6.667015999999997,4.150383526041291,0.13488487142793334
6.671611999999996,4.197262879479713,0.1344873217657898
6.676187999999996,4.242587733451131,0.13409927695536292
6.680783999999996,4.291343999050366,0.13359642381218365
6.685372000000001,4.33429296237265,0.13317999766397726
6.689959999999999,4.374010742046778,0.13281123739128606
6.694567999999997,4.412007696091129,0.13240327932868803
6.699156000000002,4.445218967020321,0.13204477891593222
6.703759999999996,4.4750768695872125,0.13174020703980985
6.708356000000002,4.50705605374321,0.13130037089064106
6.712944,4.535926238965197,0.13088206483384868
6.717531999999999,4.556168633853142,0.13060288159917313
6.722124000000001,4.572280410645287,0.13038162131606454
6.726715999999996,4.587448611541155,0.1301145860582392
6.731291999999996,4.599874367645451,0.12983292066412838
6.735892,4.612622536443555,0.12945571819226206
6.740471999999997,4.619152707373643,0.12911609020934284
6.745075999999997,4.618976141579131,0.12886184794396752
6.749668,4.617078750154841,0.1285638192169332
6.754263999999999,4.622577062291396,0.1280483145429269
6.758843999999996,4.630362982179828,0.1274618835325491
6.763432000000002,4.626334069534694,0.12709214117165224
6.768028000000001,4.6223832001550775,0.12664712009520263
6.772624,4.610581790174922,0.12631838932990297
6.777211999999999,4.601845237680147,0.1259090275414358
6.781807999999998,4.58922243651786,0.1255177174055569
6.786391999999999,4.574678581746133,0.1251665083356787
6.790987999999999,4.560911976707907,0.12480984681174385
6.795575999999997,4.5457130569168225,0.12444806305982418
6.800159999999998,4.528470898802151,0.12413697561309174
6.804752000000001,4.515070847906363,0.12374125037356994
6.809339999999999,4.507189588410609,0.12324264561599925
6.813935999999998,4.496487840857764,0.12279948439231388
6.818528000000001,4.487340592771923,0.12234950012692894
6.823107999999998,4.479214963847875,0.1218724955226381
6.827703999999997,4.471622215229039,0.1214160595642239
6.832291999999995,4.470081138315447,0.12088121394375441
6.836888000000002,4.471771245050009,0.12032327560957513
6.841476,4.4795130234898135,0.11969472903530395
6.846080000000001,4.490608170291919,0.11904786809870913
6.850671999999996,4.496595221285057,0.11852339899332141
6.855260000000001,4.51055499759288,0.117886373750652
6.8598519999999965,4.526357784244627,0.11728895149981801
6.864432000000001,4.5474791343167436,0.11668314388729473
6.869028,4.566845756942192,0.11616815080220963
6.873607999999997,4.5945958004733916,0.11558234568288275
6.878208000000001,4.6274980812621855,0.11494554701824189
6.882795999999999,4.665796968736868,0.11424238710975444
6.887395999999995,4.712357092403154,0.11349275448503088
6.891984000000001,4.761904030289303,0.11275177876603877
6.896575999999996,4.81149510962408,0.11208503107561771
6.901156,4.861863438692359,0.11143225589754438
6.905752,4.91750618973238,0.11072461898037814
6.910351999999996,4.971638582754025,0.1100856762271818
6.914947999999995,5.028879974709679,0.10945272555335352
6.919536000000001,5.08563262780875,0.10886914887617313
6.924123999999999,5.140097673155943,0.10835634357120033
6.928711999999997,5.2032685521026965,0.10773223529464315
6.933292000000002,5.263496758278213,0.10717679365511518
6.937888000000001,5.318983422787198,0.10670678629222656
6.942475999999999,5.38076612842972,0.10617056327128242
6.947068000000002,5.442671018786386,0.10563843241969223
6.951656,5.504575909143052,0.10511190298126627
6.956248000000002,5.568235526946387,0.10452553590896768
6.960827999999999,5.635326556377539,0.10386345508357298
6.965420000000002,5.697020979122803,0.1032698294988513
6.970011999999997,5.758060336848711,0.10268344857440852
6.974599999999995,5.815624141498175,0.10213767647538051
6.979188000000001,5.864926709956032,0.1016381172326927
6.983784,5.915861821146412,0.10109225752884758
6.988368000000001,5.965975541154663,0.1005043610314607
6.992972000000002,6.012735892800611,0.09993853244104428
6.997551999999999,6.051523519131876,0.09943566312997099
7.002147999999998,6.093209676785747,0.0988508612194147
7.0067359999999965,6.1299879666103125,0.09828447025806498
7.011336,6.164801061376809,0.09769527212928293
7.015923999999998,6.200469449142326,0.09705421633948835
7.020524000000002,6.216760974650656,0.09660694351501611
7.025107999999996,6.2287996973490385,0.09618050395515446
7.029696000000001,6.236829986665763,0.0957577247273238
7.0342879999999965,6.239541712562119,0.09532552941727146
7.038883999999996,6.239022254810318,0.09490014642882232
7.043479999999995,6.236659786714597,0.0944418418769879
7.048079999999999,6.2271018430376905,0.0940395464311905
7.052667999999997,6.213291096550838,0.09365589235987892
7.057263999999996,6.196371351129975,0.09326616173466937
7.061844000000001,6.1716010651085735,0.09292008829387816
7.066428000000002,6.143477410724871,0.09258338377974773
7.071016,6.1163753755029635,0.09222878320373831
7.075603999999999,6.079257376642783,0.09195306989335525
7.080196000000001,6.038419455277866,0.09170786086076456
7.084775999999998,6.000524206684184,0.0914233891694979
7.089368,5.970679726670705,0.09102851700363958
7.093955999999999,5.934294836095399,0.09069000580759085
7.098543999999997,5.899053749396031,0.09032584153861603
7.103155999999999,5.863157597677307,0.08994762255964255
7.107743999999997,5.821620469844405,0.08961803854441179
7.112352000000001,5.789444240630419,0.08919866879670915
7.11694,5.7623761072254,0.08870509513602048
7.121552000000001,5.739027896325117,0.08817479369992083
7.12614,5.716090381015901,0.08766674092177204
7.130727999999998,5.69633990790621,0.08710734407052304
7.135323999999997,5.677244499815876,0.0865559359784309
7.139924000000001,5.663135002820364,0.08594103370653437
7.144528000000001,5.653522678063092,0.08529879059564278
7.149104000000001,5.647508091096411,0.08463106829582238
7.153700000000001,5.649710598872707,0.08390415960586652
7.158287999999999,5.653467606116006,0.08317884865638372
7.162887999999995,5.6577574936645165,0.08247237075713676
7.167476000000001,5.672185529565445,0.08168961838628902
7.172067999999996,5.691887987438115,0.08088581158139732
7.176659999999998,5.709547206987197,0.08011448447475948
7.181255999999998,5.72659550296555,0.07939456782907135
7.185839999999999,5.7489182209156455,0.07865362251527055
7.190435999999998,5.773694872780393,0.07791896449764563
7.195031999999998,5.803501577188591,0.07718680990627476
7.199632000000001,5.844223679682709,0.07639906245608567
7.204219999999999,5.888543519967418,0.07560509252946597
7.208815999999999,5.932374621395543,0.07485459959148293
7.213403999999997,5.980458525633619,0.07411122538416966
7.217999999999996,6.034960655719374,0.07334478102938721
7.222583999999998,6.085664820034872,0.0726635633735718
7.227179999999997,6.140743971874466,0.0719826139562868
7.231771999999999,6.1977883187721305,0.07134695853731407
7.236364000000002,6.252545057917915,0.07075649737132865
7.240955999999997,6.313720022911382,0.07015013527138758
7.245536000000001,6.376693856800143,0.0695544753604546
7.250127999999997,6.448495709002609,0.06890595741977802
7.254716000000002,6.524139668423958,0.06824199360648933
7.259304,6.600438692864664,0.06760685348162722
7.263911999999998,6.674938848410073,0.06698708576222939
7.268499999999996,6.7511156881366325,0.06637516402206398
7.273088000000001,6.8247164092343935,0.06577363720249578
7.277684000000001,6.900360368655742,0.06516703671159599
7.282271999999999,6.978947000848326,0.06455441682720613
7.286875999999999,7.0548353296979665,0.06395882538146054
7.291468000000002,7.126348671023513,0.06338353127742787
7.296064000000001,7.1938977204160315,0.06284247308926273
7.300651999999999,7.262346204256196,0.06230788188633115
7.305251999999996,7.3253980814104755,0.061791993603840197
7.309840000000001,7.382931167164721,0.06130190134132764
7.314439999999998,7.447737771765668,0.06075884867369509
7.319027999999996,7.512133680775549,0.060207102502973044
7.323627999999999,7.5734205908514225,0.059644870756492135
7.328212000000001,7.635318424498024,0.059059020303033484
7.332808,7.689776413135151,0.058505471612123466
7.337399999999995,7.734629133725071,0.057996719278836706
7.341996000000002,7.76771116323005,0.0575546961136535
7.346592000000001,7.794130597459059,0.05714023546021382
7.351188,7.815153425002181,0.05673624381581747
7.355775999999999,7.835399002811799,0.05632974981915462
7.360375999999995,7.855233885030353,0.05590514996454771
7.364964,7.874824397820616,0.0554929556692854
7.369551999999999,7.884931827277818,0.055112594884421974
7.374139999999997,7.885678358116103,0.054758565617291206
7.378735999999996,7.884626020059094,0.05440656023740207
7.383327999999999,7.878832140335553,0.05406946729908384
7.387920000000001,7.871605945859154,0.05371652080350605
7.392511999999996,7.856162656639778,0.05337429349731202
7.397095999999998,7.83969774825861,0.053036851222502235
7.401679999999999,7.818491298210911,0.052711668509431354
7.406267999999997,7.78473690734477,0.052432329654591256
7.4108559999999954,7.740111259841337,0.05220185158472375
7.415452000000002,7.691521320404875,0.05198729205570242
7.42004,7.636923850711798,0.0518006103543579
7.4246279999999985,7.580405327409281,0.05161782523858608
7.429223999999998,7.524908423268555,0.05142677678795855
7.433819999999997,7.472354191899066,0.05122110115130462
7.438415999999997,7.42106594911966,0.05099468140919331
7.442996000000001,7.36401454551193,0.05078499330675728
7.447592,7.2999339924857924,0.050610879959543886
7.4521839999999955,7.228579920612954,0.050483868623545376
7.456775999999998,7.150563253464143,0.05037600344350355
7.461359999999999,7.078065377715365,0.05025745295022642
7.4659559999999985,7.0032798942147085,0.05016277699207445
7.470551999999998,6.922609065171584,0.050093129848449526
7.475144,6.839528443662434,0.05005450732758326
7.47974,6.755959083296701,0.05003803538157396
7.484335999999999,6.67292260323618,0.05003986770091177
7.488931999999998,6.587720700137924,0.05006128667491255
7.493527999999998,6.505094915668469,0.05008781578541787
7.498131999999998,6.427865737884899,0.05011276157563995
7.502724000000001,6.351291625120686,0.05015502513860733
7.507315999999996,6.2732071543380945,0.05023364381484902
7.511907999999998,6.1947561294130695,0.050335633603884794
7.516500000000001,6.113240247002662,0.05046121272031999
7.521087999999999,6.033401048773405,0.05059340173540034
7.525675999999997,5.951518612220561,0.05073996509587352
7.5302719999999965,5.8662047640399,0.0509312811142888
7.534860000000002,5.781668165592742,0.05113533585539885
7.539439999999999,5.701873108812113,0.05132736557945979
7.544039999999995,5.622322421459776,0.05151105294428253
7.548623999999997,5.547513275773969,0.051679573412534374
7.553224,5.4668187845456915,0.05188541967462413
7.557815999999995,5.3927868885933865,0.05206701554308929
7.562404000000001,5.320431676822231,0.05226343391195779
7.567015999999995,5.251141322536458,0.05243728354950727
7.571591999999995,5.177353796012445,0.052618769810939776
7.576183999999998,5.107530561421461,0.052773289700486295
7.580771999999996,5.037951696258768,0.05291389345803545
7.585360000000001,4.964897278019628,0.053050823969921626
7.589964000000002,4.888367306704043,0.05318319431233143
7.594555999999997,4.8142471278544825,0.053274489900648966
7.599151999999997,4.745357229528034,0.053309265601279174
7.603743999999999,4.677488950363381,0.05333969472318531
7.608343999999995,4.60949848648458,0.053385946855309174
7.612924,4.538809719262837,0.0534370084306493
7.617523999999996,4.463623779802854,0.05349651883735202
7.622115999999998,4.389826013647102,0.0535178635411612
7.626711999999998,4.320891973872028,0.05350333226922829
7.631295999999999,4.251302869077596,0.05346700593309214
7.635891999999998,4.180692145121369,0.05344540496290512
7.640495999999999,4.105462064212759,0.053440043624075124
7.645091999999998,4.029454733570646,0.05343410808086202
7.649687999999998,3.9471513617949983,0.05343498472378993
7.654288000000001,3.867135597771229,0.053389048988739266
7.658879999999996,3.77955780402384,0.05339612959821538
7.663471999999999,3.6946783136193946,0.05340272522744776
7.668059999999997,3.600193555167742,0.05350090604636341
7.672647999999995,3.500967255049559,0.053647791146550425
7.677236000000001,3.400719335769582,0.05382119467306722
7.681832,3.2995719820419573,0.054001499251204926
7.686427999999999,3.197525193866685,0.05417615422335441
7.6910079999999965,3.0857509529300597,0.05449023207588657
7.695603999999996,2.971522778078783,0.05480403627718332
7.700192000000001,2.8576611573699426,0.055099868975396926
7.704788000000001,2.744043906089394,0.0553671711609733
7.709375999999999,2.6341465773135826,0.055621137596094994
7.713963999999997,2.5229832599476856,0.05595707249941357
7.718555999999999,2.404257912858169,0.05642702817468334
7.723148000000002,2.2788699704926807,0.05707663866969238
7.727736,2.1593673736696624,0.05759739582869081
7.732331999999999,2.0428074496178787,0.05807695102470602
7.736919999999998,1.9293123830514758,0.05849678415249972
7.741523999999998,1.8165945662185747,0.05901019903806823
7.746107999999999,1.700934076614439,0.056351908693487364
7.750700000000002,1.591936182286275,0.05364747147314392
7.755279999999999,1.4812616037769613,0.05093513051430174
7.7598799999999954,1.3792928588672064,0.048149055397227074
7.764468000000001,1.283087274785776,0.045319231628668376
7.769067999999997,1.188558374885495,0.04246566627797448
7.773663999999997,1.092641301680984,0.03960930762523652
7.778259999999996,0.9953360551722419,0.03677435131661895
7.782855999999995,0.9019951005965283,0.03383074889560624
