Time,Force,Position
6.027944,0.4125846383704586,0.005467878049644875
6.032531999999998,0.3754634565886053,0.003647634210479959
6.03712,0.3425509361680718,0.001744852711483857
6.041711999999999,0.3101712960527491,0.0
6.046311999999999,0.28564219653796574,0.0
6.050907999999998,0.2627897812043325,0.0
6.0555,0.24545615727073195,0.0
6.060104000000001,0.23298625971780773,0.0
6.064691999999999,0.21961692771723562,0.0
6.069296,0.21213294125913335,0.0
6.073876,0.20644782369632672,0.0
6.078472,0.20550424780005072,0.0
6.083063999999999,0.19753152248536573,0.0
6.087667999999999,0.19237928522776995,0.0
6.092256000000001,0.18673830911359152,0.0
6.096843999999999,0.18416219048479365,0.0
6.101424,0.18416219048479365,0.0
6.106011999999998,0.1832627560371458,0.0
6.1106,0.17545635688523464,0.0
6.115195999999999,0.1708369999328497,0.0
6.119776,0.16597327355217342,0.0
6.124360000000001,0.16446291553379722,0.0
6.128952,0.16970343568864932,0.0
6.133543999999999,0.1801844759983535,0.0
6.138136000000001,0.19656110148226622,0.0
6.142728,0.22333048437862674,0.0
6.147323999999999,0.2543187682680458,0.006144688666748362
6.151904,0.28887088813116696,0.01255644485910825
6.156499999999999,0.3354483081392578,0.018854274625539545
6.161088000000001,0.38689969415976366,0.02539851921479158
6.165676,0.444779545659689,0.03220482392213348
6.17028,0.5079440587630946,0.039206207758080744
6.174864000000001,0.5852212517836851,0.04614945918978527
6.179471999999999,0.6672502261025449,0.05319756525193459
6.184051999999999,0.7572180239192003,0.06022255454380173
6.188651999999999,0.8554131561105708,0.0673026762519684
6.193243999999998,0.9644117413054544,0.07440292572489066
6.197843999999998,1.082170541180264,0.0815201887643781
6.202447999999999,1.2128982170963192,0.08866372838432106
6.207040000000001,1.3512423038163612,0.09584880554523313
6.211636,1.49805809433941,0.10304631239988585
6.216216000000001,1.6494593399979538,0.11025878230900975
6.2208120000000005,1.797551358742826,0.11756909489035305
6.225399999999999,1.943389671552709,0.12485398393488253
6.230003999999999,2.0796124766836463,0.13222562351212924
6.234595999999998,2.2083851971733712,0.13955361819700457
6.239192000000001,2.3344935161370417,0.1406733954292287
6.243784,2.4592475636133706,0.14147061390241683
6.248375999999999,2.5759847443263864,0.14243501321145827
6.252984,2.689646827922283,0.14306175381877886
6.257579999999999,2.7953259465717557,0.14344525708387418
6.262175999999998,2.8914676008078004,0.1436625631880582
6.266771999999998,2.9771723561827694,0.1438843373428432
6.27136,3.0545275924688773,0.14403648731231425
6.275951999999998,3.1205906368948897,0.14429040503932644
6.28054,3.1758502283173886,0.1445538143168964
6.285127999999999,3.218996236697662,0.14482995057190678
6.289716,3.2527269653786535,0.14503848311117565
6.294307999999999,3.2788412832556575,0.14512659059992414
6.298899999999998,3.2973391903286746,0.14509702661902496
6.303488,3.3081426433321877,0.14506157844891562
6.308083999999999,3.3129283264473464,0.14498510617380148
6.312672000000001,3.3159490424840987,0.14476888028244198
6.317255999999999,3.315860759586842,0.14459421145825033
6.321848000000001,3.3187151494608207,0.14430729371912687
6.326435999999999,3.32210241964001,0.1440455515341793
6.331031999999999,3.3242237012291143,0.1438606901285394
6.3356200000000005,3.3235244947611298,0.14376937940557188
6.340207999999999,3.3233140271497277,0.14361556471040965
6.344803999999998,3.3199165173388,0.143600118871167
6.349400000000001,3.3215490600713213,0.1434825565031971
6.353996,3.3289889050807964,0.14325609284313617
6.358572000000001,3.3400706293294897,0.1430210382451488
6.3631720000000005,3.355405156388132,0.142698335755587
6.367759999999999,3.3778129743138097,0.14220345908928878
6.372359999999999,3.4025525414399946,0.14167209115407525
6.3769480000000005,3.4351426491667194,0.14097040396260488
6.381548,3.466344583589214,0.14035306762648028
6.386131999999998,3.494892356117392,0.13989160411635526
6.390728000000001,3.5218075859130487,0.1395478097406519
6.395311999999999,3.550888238746438,0.13912196901849128
6.399907999999998,3.582789379636917,0.13862933010729442
6.404504000000001,3.616367204708546,0.13812104737757822
6.409104000000001,3.6517438986754702,0.13757207751337303
6.413696,3.6869984079282494,0.13704293612910035
6.418287999999999,3.71943242912394,0.13658991943992338
6.422880000000001,3.7521108197479203,0.13611182657084137
6.427463999999999,3.7877318831431364,0.13554736838163203
6.4320520000000005,3.8258068804530043,0.13495786465527967
6.436648,3.867723984981755,0.1342635084953245
6.441243999999999,3.9075978511869183,0.13365460616281075
6.445819999999999,3.9472273479637914,0.13309405911864555
6.450419999999999,3.983014737521781,0.13264365881477058
6.455004000000001,4.018679942365625,0.1322189952713906
6.459587999999998,4.055488951085408,0.13177860255737955
6.464184000000001,4.096017882309928,0.1312589943253284
6.468772,4.130661467991979,0.1309107914277119
6.473380000000001,4.167881172302827,0.13052043167712835
6.477967999999999,4.210086787708497,0.12999658561074812
6.482571999999999,4.254335641437755,0.12941258096439145
6.487160000000001,4.296663441557571,0.12888941671739107
6.491760000000001,4.333228080849062,0.12851055607844644
6.4963560000000005,4.3679938512452585,0.12817437648197996
6.500943999999999,4.401982371907952,0.12784799079494313
6.505539999999998,4.437891946180088,0.12748366711513953
6.510128,4.478787431547045,0.12699448817807726
6.514728,4.518128417446999,0.12651703342751525
6.519315999999998,4.554238219698798,0.12607731988421025
6.523915999999998,4.587116838302441,0.1256719014403183
6.528504,4.61819658801079,0.12530718454386797
6.533108,4.649765076575721,0.12490274066457038
6.537695999999999,4.677202947044849,0.12454345802552474
6.542291999999998,4.706028990818209,0.12412278673355347
6.546875999999999,4.7334227198387095,0.12370507066855295
6.551471999999999,4.75157773495444,0.12346112491352106
6.55606,4.769199869764961,0.12320673645177392
6.560656,4.785511874536767,0.12293487989806647
6.565247999999999,4.799492130108067,0.12267450455485218
6.569832,4.81089626705057,0.1224515457846046
6.574423999999999,4.821767523687862,0.12221318586786187
6.579008,4.83108428085815,0.1219819764604933
6.583595999999998,4.8435880802279625,0.1216655595680092
6.588192000000001,4.856458433740213,0.12132033834188106
6.592775999999999,4.8695731566807545,0.12095679958925418
6.597356,4.884320422353819,0.12052740348085543
6.601947999999998,4.896735938826377,0.12011376411162085
6.606532,4.912460682212606,0.11961669995944754
6.611119999999998,4.927408175865333,0.11912211349714948
6.615727999999999,4.9408011700510555,0.11863074558280892
6.620316000000001,4.951984599750417,0.11813844913477811
6.624912,4.960836280249272,0.11765590268854968
6.629499999999998,4.9699323301764196,0.11715154014497983
6.634088,4.977596065350708,0.1166424924908869
6.638684,4.9816620627344035,0.11618127802287029
6.643275999999998,4.990469601784631,0.11563427586635397
6.647875999999998,4.992981099701322,0.11517461071077571
6.652451999999999,5.000356323998692,0.11462466896148203
6.657051999999998,5.009896971333793,0.11402133652165317
6.66164,5.019437618668894,0.1134220227397633
6.66624,5.029222635432287,0.11280736759148542
6.670827999999998,5.040806521090975,0.11217055219010848
6.675423999999998,5.052146037321371,0.11155717739497667
6.680016,5.061442315228182,0.11098821838909903
6.684612,5.069839158687342,0.1104331944855588
6.689199999999998,5.069163614404509,0.11005930182094809
6.693796000000001,5.069265319855178,0.10968656878936031
6.698383999999999,5.064136744782733,0.10942800888189856
6.702968,5.05978541944379,0.10916778257456876
6.707555999999999,5.062751754400175,0.1088137308221331
6.712148000000001,5.067516958251856,0.10843933974195857
6.716735999999999,5.073714476856396,0.10807358088608791
6.721335999999999,5.0800341801750815,0.10769770455483879
6.72592,5.085865144637185,0.10735916187772908
6.7304960000000005,5.097214900499321,0.10694880743181887
6.735092,5.10394529940907,0.10659832960332656
6.739679999999998,5.118770608347652,0.10615542697395865
6.7442720000000005,5.1314304942485,0.10576776766419561
6.748859999999999,5.141680587683323,0.1054489745269692
6.753448000000001,5.148210758613411,0.10517958776917602
6.758044,5.151676072058118,0.1049693585750827
6.76262,5.157062439112267,0.10473230807176984
6.767211999999999,5.162937545022999,0.10445937405538865
6.771803999999998,5.168812650933729,0.10418561314891267
6.776396,5.1767309951680485,0.10387622720159963
6.781000000000001,5.192455738554277,0.10344175239002296
6.785587999999999,5.206137243616919,0.10304856235803596
6.790180000000001,5.222883606164942,0.10259818163603092
6.794768,5.240651587874758,0.10213133634634321
6.799367999999999,5.2518791590227485,0.1017545196862971
6.803948,5.264661229637743,0.10138240952287575
6.808548,5.278342734700385,0.10100456394104511
6.813143999999999,5.2983202808965615,0.10057245140565213
6.817739999999999,5.325326976511148,0.10003478904031164
6.82232,5.351434237678086,0.09951408771734047
6.826911999999998,5.384204094120996,0.09890947617521924
6.831511999999998,5.4143978319351085,0.09833374363024187
6.836104000000001,5.443692135301573,0.09776851870916047
6.840683999999998,5.4789939689246525,0.09712055051620025
6.845267999999999,5.521491278128915,0.09641466288559847
6.849859999999998,5.5677085098379155,0.09567146763002668
6.854448,5.6107386993473884,0.09499245600706602
6.859039999999999,5.655445573038012,0.09431896948111627
6.863624,5.701829130909786,0.09363976634560693
6.868215999999999,5.74400402742024,0.09303460597203426
6.872804,5.785157304768901,0.09245601806987473
6.8774,5.826066212689271,0.09189400371880557
6.881987999999998,5.868896174219081,0.09131872671538842
6.886576,5.911481766320599,0.09076406676512283
6.891171999999999,5.954067358422118,0.09020810131096789
6.895760000000001,5.993055212733045,0.08968382993092865
6.900347999999999,6.032043067043974,0.08916589039772568
6.904939999999998,6.067066629421874,0.088709689645449
6.909539999999998,6.09518322709551,0.08834535392080829
6.914132,6.124321443930938,0.08797342100612264
6.918723999999999,6.151538607156927,0.08762687100740982
6.923315999999998,6.175690912897533,0.08732331482783497
6.927908,6.20074265308579,0.08701525284322278
6.932504,6.221952286055163,0.08675162988242602
6.9370840000000005,6.239808550662235,0.08650001764739636
6.941684,6.258564249716955,0.08624658821647667
6.946275999999999,6.277930872342405,0.08595692243775215
6.950871999999999,6.2934553877489705,0.08570564411612656
6.955456,6.311511880335707,0.08540339798276772
6.960051999999999,6.335698087893203,0.0850287947080646
6.964640000000001,6.358862676288906,0.0846697094642454
6.969232,6.384437057150635,0.08426688359313453
6.973819999999998,6.408212569117066,0.08387904784317848
6.978416000000001,6.435419492711316,0.08343995070585673
6.982995999999998,6.469533381009828,0.08293979143899902
6.98758,6.504791073184281,0.08242184810270486
6.992167999999998,6.5377170161582265,0.08189994134500883
6.99676,6.566512341036369,0.08138017163682897
7.001356,6.598494708114037,0.08082152314481791
7.005940000000001,6.627656587134618,0.08028814839586791
7.010536,6.656940650869344,0.07975170915814572
7.015116000000001,6.688634507070093,0.079174271638932
7.019692000000001,6.723637590184514,0.07855807904346504
7.024288,6.758762858013082,0.07793950021062973
7.028875999999999,6.795031929717588,0.07731023280001151
7.033468000000001,6.829868686669237,0.07667612905343173
7.03806,6.8643388894784465,0.07606433686338872
7.042651999999999,6.898154027268301,0.07544176376706081
7.047244000000001,6.9277605036968355,0.074872518829331
7.051823999999998,6.953402688192343,0.07434383694141754
7.056420000000001,6.977490373220844,0.07381047566886541
7.061007999999999,7.000678623801698,0.07328561225279492
7.065603999999999,7.023866874382552,0.07276420376654621
7.070188,7.044889701925673,0.07227601810666837
7.074788,7.059249934192822,0.07183482615980803
7.079372000000001,7.074631785621765,0.07138631203300251
7.083964,7.0945108092889475,0.07092660559475959
7.088559999999999,7.1200308090703075,0.07043895158068694
7.093148000000001,7.143874124670519,0.06995488309896272
7.097735999999999,7.166162940803724,0.06946421602102708
7.102327999999998,7.190372810546371,0.06896669345615268
7.106916,7.214216126146582,0.06849115134211745
7.111499999999998,7.234994584261411,0.06804738702445162
7.116088,7.2548736079285945,0.06760818976594163
7.120679999999998,7.272587208558044,0.06719482067882898
7.125264,7.286991582273821,0.06681927115225525
7.129855999999998,7.3056046173509195,0.06640788617260136
7.134451999999998,7.330758062989842,0.06597256989003723
7.13904,7.358854181400002,0.06552050943995007
7.143624000000001,7.386828115096014,0.06507530796692526
7.148216,7.418766340725055,0.06460791687704247
7.152803999999998,7.446862459135213,0.06416124834243651
7.157411999999999,7.473281893364222,0.0637147239358719
7.162000000000001,7.494182536193198,0.06328603141011992
7.166592,7.516104798183966,0.06285061627422917
7.171187999999999,7.539048679336529,0.06241145119677638
7.175776000000001,7.557495388250851,0.061984780670918796
7.180372,7.573243793822231,0.061566852867466465
7.184963999999999,7.589891633841258,0.06114975601257158
7.189555999999998,7.611158830812671,0.0607216054908058
7.194135999999999,7.629972093869433,0.06029030056835593
7.198724,7.648374661335128,0.05983988302364623
7.203307999999998,7.666244348495612,0.059376253663808776
7.207907999999998,7.6853800242461805,0.05889690159802547
7.212504000000001,7.703860634977393,0.05840821665773535
7.217096,7.7239737884411275,0.057883996012746956
7.2216879999999986,7.737424346628891,0.057387152652991706
7.226283999999998,7.74560048284491,0.05689520521377491
7.230883999999998,7.754143173203369,0.05639023779855737
7.235480000000001,7.764440591008495,0.05584773439275614
7.240080000000001,7.770773716880592,0.05532764015370293
7.244672,7.7828700035810146,0.0547873411473498
7.249252,7.792923051957849,0.05425797968704826
7.253835999999998,7.806940392267712,0.053707861512373736
7.258428,7.818914494253988,0.05316991329902973
7.263019999999999,7.824103816250147,0.05265758097286204
7.267611999999998,7.824429411865629,0.05216127399485261
7.2722,7.8215679652815835,0.051687588784576674
7.276791999999999,7.813598422888572,0.05124295415415024
7.281371999999999,7.799987904381381,0.050812356513470026
7.285967999999999,7.7812692900652225,0.05040898728817804
7.290552,7.7573203952259515,0.050038285011602096
7.295143999999999,7.725442916520624,0.04969999351684081
7.299736000000001,7.687557907558681,0.049388882626814866
7.304328,7.647874029701441,0.04907492721848855
7.308915999999998,7.606801978539972,0.0487807358218344
7.313499999999999,7.562787254607266,0.04849428469666071
7.318091999999998,7.509333588790129,0.04826915258044695
7.322695999999999,7.444353601316343,0.04807621354475792
7.327284000000001,7.3710784758340635,0.04793222833035772
7.331888000000001,7.295105047008839,0.04778395303427697
7.336467999999998,7.208626915688761,0.04766161531580214
7.341067999999998,7.120349915473386,0.04753505083957521
7.345656,7.0250437658396025,0.04744057333294997
7.35026,6.927816562596379,0.047348809967231564
7.354843999999998,6.829812109619653,0.04724657096382794
7.359436,6.7318076566429275,0.047140657313742604
7.364027999999999,6.630982715609111,0.047038332589779804
7.368623999999999,6.525660602337056,0.04693308533254043
7.373212,6.414453143522532,0.046849345904319745
7.377808,6.300058642508481,0.0467930365237958
7.382399999999999,6.18566414149443,0.0467356309878251
7.386992000000001,6.075766812718618,0.04667775990208574
7.391571999999998,5.962027376723923,0.04663210936522032
7.396155999999999,5.84293547549197,0.04663494821949503
7.400736,5.720001467041134,0.04664886190945376
7.405327999999999,5.597966893037945,0.046659499592956975
7.409919999999998,5.48704794510034,0.046594908243685944
7.414512,5.378582931077388,0.0465474103471746
7.419112,5.273060589825669,0.04648306562228324
7.423699999999998,5.158465860831956,0.04648444112575508
7.428295999999998,5.044648381571743,0.046496000064646555
7.432892000000001,4.93250758649268,0.04651063294257046
7.437479999999999,4.822410029737207,0.04650749194811637
7.442083999999999,4.709491984924642,0.04650989233749859
7.446671999999998,4.598006254864937,0.04653813495645012
7.451275999999998,4.488319393700527,0.04656227595923046
7.455864,4.377733098088469,0.04658562520374699
7.460455999999999,4.274464462771739,0.04659914504690746
7.465064,4.174793565245602,0.0466181368042297
7.469648000000001,4.078431894633137,0.04658737149825653
7.47424,3.9802713551253746,0.04655367045024124
7.478827999999998,3.878513077827022,0.04651617532459143
7.483424000000001,3.7832952110904956,0.04645695587800504
7.488011999999999,3.6910200171252034,0.046383717096157275
7.492607999999999,3.5987448231599117,0.046306866173100085
7.497196000000001,3.506347444480475,0.046236067632562244
7.501796000000001,3.4041004283255387,0.04623668488499785
7.506375999999998,3.306839323265425,0.04618556068791842
7.510976000000001,3.206757730148223,0.046138074367353524
7.515568,3.115504155344724,0.04602179111625057
7.520159999999999,3.028214872474255,0.04585457849620403
7.524759999999999,2.935162428775461,0.045722817793953485
7.529352000000001,2.8410883659148736,0.04559288230365382
7.533939999999999,2.7468921183401407,0.04547457104905224
7.538531999999998,2.650364121564901,0.04528228210725849
7.543107999999998,2.55359175536137,0.04511760512266917
7.547700000000001,2.4575966388913413,0.04496626316735863
7.552287999999999,2.3539173079835476,0.04489432792874286
7.556876000000001,2.249460727342251,0.04479795408376472
7.561468,2.1454148422920194,0.044792175206349774
7.566048,2.0452110644606707,0.04470805756168163
7.570635999999999,1.9477055899722657,0.044614812223991836
7.575224,1.8473796274267713,0.04451699142071332
7.579807999999998,1.7462764151477748,0.04437842269219468
7.58442,1.6479936909258677,0.04210158002774173
7.589007999999998,1.5534308892086983,0.03982891153776338
7.593596,1.4655306827675,0.03753084703662556
7.598187999999999,1.3766088571645085,0.035268447012488637
7.602772,1.293083638247404,0.033013497621744776
7.607367999999999,1.211357288225595,0.03078170722346265
7.611956000000001,1.1283649496137016,0.028591875361422915
7.616548,1.0501141526683382,0.026377922676416074
7.621135999999998,0.9764827126753602,0.02417439596493614
7.625728,0.9073484449206214,0.021961494329737766
7.630315999999999,0.8431220449951871,0.01981233729344518
7.634915999999999,0.7778740259079591,0.01764856864962225
7.639508000000001,0.7194107868108487,0.015474078385988958
7.6441,0.6706750004750909,0.013232878526268126
7.648687999999998,0.6291346897205159,0.011005819249381998
7.65328,0.5928246594890539,0.00871625840593705
7.65788,0.5550042712392161,0.006509272241899406
7.662471999999999,0.5188605671705282,0.004316010438321897
7.667060000000001,0.48553735115892965,0.0021429328541851212
7.671643999999999,0.45875454570915725,0.0
7.676228,0.4295619477933608,0.0
7.680815999999998,0.39922554600162524,0.0
7.685408000000001,0.3686447747815983,0.0
7.689999999999999,0.3387190685809279,0.0
7.694591999999998,0.30677036420271403,0.0
7.69918,0.27774409244969145,0.0
7.703771999999999,0.2511919947573648,0.0
7.708360000000001,0.22972775272796206,0.0
7.712947999999999,0.20891857571791578,0.0
7.717543999999998,0.1901526370314566,0.0
7.722128,0.1716310677732887,0.0
7.726715999999998,0.16013864793352983,0.0
7.731312000000001,0.14713587007539475,0.0
7.7358959999999986,0.13172329975123565,0.0
7.740491999999998,0.11373461079827862,0.0
7.745071999999999,0.09364488040226075,0.0
7.749667999999998,0.08068624399275381,0.0
7.754256,0.07079246506862744,0.0
7.758851999999999,0.06310825063086195,0.0
7.763440000000001,0.05235917870771588,0.0
7.768040000000001,0.049416505936480976,0.0
7.772636,0.045696583431743903,0.0
7.777227999999999,0.045818768145889574,0.0
7.781808,0.0486392562029788,0.0
7.786399999999999,0.05708048022820275,0.0
7.790988,0.06043384859050281,0.0
7.795579999999999,0.06658746486384838,0.0
7.80016,0.06932990965542007,0.0
7.804751999999999,0.0730939736087853,0.0
