Time,Force,Position
5.612224,0.7354715709368544,0.01427558542439524
5.616808,0.6703898780124004,0.012244023816894156
5.621396,0.6072292386973874,0.010201847472389221
5.626,0.5477885218871117,0.008184791217368427
5.6305760000000005,0.4910461084197795,0.00619665919418526
5.635176,0.43802361745718443,0.004204971374534254
5.639764,0.3956280137035898,0.0021077384979032963
5.64436,0.35977282051182147,0.0
5.648943999999999,0.32355107317761594,0.0
5.653543999999999,0.2937475516910912,0.0
5.658131999999999,0.26484346465221426,0.0
5.662728,0.23761606179448744,0.0
5.667331999999999,0.21296477756555846,0.0
5.671924,0.1875841414529776,0.0
5.676519999999999,0.16154468391981805,0.0
5.681116,0.13783697558716504,0.0
5.6857,0.11502870170215992,0.0
5.690295999999999,0.09287549283651128,0.0
5.694883999999999,0.07444220647559972,0.0
5.699476,0.060872646495364405,0.0
5.7040560000000005,0.058829408171777356,0.0
5.708647999999999,0.05985102733357089,0.0
5.71324,0.06267151539066011,0.0
5.717816,0.06602488375296017,0.0
5.722416,0.0720765554582038,0.0
5.727004,0.07902766161109526,0.0
5.731599999999999,0.08483496388804752,0.0
5.736187999999999,0.08872121255555844,0.0
5.740775999999999,0.09759337231789128,0.0
5.745372000000001,0.10298997900377839,0.0
5.749963999999999,0.10646553208022412,0.0
5.754568,0.10916383542316768,0.0
5.7591600000000005,0.11288375792790475,0.0
5.7637480000000005,0.11528979399270661,0.0
5.768356,0.11480481153734612,0.0
5.772948,0.11354257934848346,0.0
5.777551999999999,0.11456419851027698,0.0
5.782127999999999,0.1133019663214143,0.0
5.786727999999999,0.1092192460754624,0.0
5.791315999999999,0.10796349711711632,0.0
5.795912,0.11301402892404398,0.0
5.800496,0.128745829020339,0.0
5.805096,0.15209403992062073,0.0
5.809688,0.18546845409091334,0.008261484890046371
5.814284,0.2261707681882732,0.01643632829001114
5.81886,0.2730571783367611,0.024834591351843127
5.823455999999999,0.3249838806604378,0.03350410910772496
5.828055999999999,0.38710311241689926,0.04214873788745205
5.832652,0.4562278314066191,0.0508457108846644
5.837236,0.539142817619715,0.059395952806747226
5.841819999999999,0.6354373754651217,0.06780119639934176
5.846407999999999,0.7442120704951916,0.07606369660982217
5.851,0.8621135343476243,0.08420481436723565
5.855592000000001,0.9924951353847199,0.09226760848494361
5.860176,1.1394395938524307,0.10012658374654107
5.864764,1.2923237789429782,0.10811567736503998
5.86934,1.4520508815052324,0.11609211257144378
5.873931999999999,1.6230664195263602,0.12401478749047233
5.878519999999999,1.8023873351877209,0.1318333609465947
5.883107999999999,1.9776594324200185,0.13976315327616198
5.887716,2.1425387722398685,0.14772390232815505
5.892304,2.2968590284844965,0.15569717187803
5.896907999999999,2.444051612781721,0.16360830897756928
5.9015,2.5819511020938086,0.16319616788267688
5.906088,2.7117454417453266,0.16285527261813906
5.910683999999999,2.83805398868866,0.16221033513587646
5.915276,2.9603438626185983,0.16122680034564973
5.919868,3.0744844454393387,0.16021282911015539
5.924456,3.1781439879503752,0.15915313105584822
5.929056,3.2696899474191854,0.1582809535915965
5.933644,3.351986953351487,0.1575616929646571
5.938247999999999,3.42671168992843,0.15694202890409858
5.942832,3.495052102474582,0.15642041372170606
5.947432,3.5559424303795204,0.1559365464681617
5.952016,3.6021871980620648,0.15571293686753007
5.956599999999999,3.648543910827015,0.15522117207403813
5.961187999999999,3.6876168651135255,0.15479122019236086
5.965784,3.7227152878352694,0.15429741007982886
5.970375999999999,3.7540496466036473,0.15386881616528542
5.974975999999999,3.7920466006479985,0.15323828951767582
5.979563999999999,3.834829237807508,0.15254250644673165
5.984156,3.8858731111586216,0.1517209471580589
5.988732,3.9401923096065183,0.15093862845102057
5.993327999999999,3.9985640828846987,0.15018934402712042
5.99792,4.062132234869105,0.14942143457769333
6.002512,4.1307304393969595,0.14861522594598492
6.007103999999999,4.200516589249382,0.14785361513906345
6.011691999999999,4.270469065264578,0.14715691336357972
6.016288,4.347128278004374,0.14636970869016516
6.020867999999999,4.427507413248907,0.14549602871812642
6.0254520000000005,4.507475852902376,0.14459940934380525
6.030052,4.5869114122506325,0.14371133347778964
6.03464,4.66270509235967,0.14284659118667492
6.0392280000000005,4.73731082714414,0.1419834341904268
6.043812,4.8153479735564275,0.14100157094879323
6.048404000000001,4.886311829101681,0.14018157598993536
6.052995999999999,4.959396966236036,0.13924146675446838
6.057588,5.026552616379294,0.1384189760372314
6.062183999999999,5.088511887816328,0.13763012578276435
6.066764,5.145274780547137,0.13688964024929667
6.071364,5.196186229552366,0.13617273434986554
6.075956000000001,5.234583639556043,0.1356236214328816
6.0805560000000005,5.270605158910586,0.13504457217464946
6.085152,5.300775234539548,0.1344833193931741
6.0897440000000005,5.326359855033014,0.1338979824224535
6.094335999999999,5.342250924582017,0.13341453779063941
6.098928,5.356010472910177,0.13287635326389516
6.103528,5.368537934465141,0.1322648154092531
6.108111999999999,5.375746832599735,0.13168302123371653
6.112696000000001,5.378414417047462,0.13111859642498883
6.117284000000001,5.379238991151265,0.1305275223358457
6.121868,5.371269448758253,0.12999767820266447
6.126468,5.360024581268458,0.12943491419388406
6.131056,5.341540096748853,0.12892486964561567
6.135647999999999,5.313650572161704,0.12852658153051588
6.140232,5.285184025820716,0.12805204229120423
6.14482,5.248989123593335,0.12767031719038646
6.149411999999999,5.207231288517293,0.12732627444794214
6.153992,5.162853193363824,0.12695121631090192
6.15858,5.113567230381051,0.12661533256168045
6.163175999999999,5.065547255988362,0.12622567650427932
6.167763999999999,5.022391007976349,0.1257283049000763
6.172351999999999,4.973960337992596,0.12530162299499079
6.176944,4.925651852722988,0.1248583592891917
6.181532,4.873379075520352,0.12449941880512963
6.186136,4.816897636956396,0.12425703158821293
6.190715999999999,4.754042113993387,0.12419299099206275
6.195324,4.69057566745965,0.12417218685588977
6.1999,4.624821613174035,0.12421951446670831
6.2045,4.562298742536574,0.12422714641349872
6.209079999999999,4.50096381722368,0.12425122990797217
6.213676,4.446990693654743,0.12420681701180031
6.218267999999999,4.397192329630237,0.1241787587320444
6.222864,4.355410832369044,0.12408813513573774
6.227448,4.321235506280099,0.12390768858481206
6.2320400000000005,4.292500928325669,0.12369370833112975
6.23664,4.271005967401049,0.12342468544628593
6.24124,4.258671677115682,0.12305959999023613
6.245831999999999,4.249901222804017,0.1227738585483321
6.250424,4.251068688865107,0.1223925328145179
6.255012,4.252813176680036,0.12209533917575874
6.259604,4.257300109286536,0.12182149918338593
6.264192,4.271724962265791,0.12145919793282242
6.268788,4.288115010303117,0.1211222349672569
6.273376,4.309290741455599,0.12075468489659158
6.2779560000000005,4.339871512675626,0.12026863967319118
6.282552,4.382799996734431,0.11960492771348069
6.2871440000000005,4.4310470442136065,0.11894139521665546
6.291735999999999,4.4837132206655035,0.11827843617967479
6.296323999999999,4.54002127635662,0.11764459457878049
6.300907999999999,4.601115015162895,0.11699855702356579
6.305504,4.6669944370843295,0.11634791906548542
6.310092,4.737781726835068,0.1156783172386833
6.314692,4.809879146624518,0.11504314515075319
6.319284000000001,4.885618445653189,0.11443328632088325
6.323872000000001,4.959603017235193,0.11392354552521015
6.328475999999999,5.0382069457695815,0.11337165831457896
6.333068,5.116322135447388,0.1128748891638148
6.3376600000000005,5.201344289829457,0.11226410833602306
6.342239999999999,5.282402152278497,0.11175027973158896
6.346839999999999,5.363704384155829,0.11121621522143185
6.351427999999999,5.44194175854778,0.11074389513463334
6.356027999999999,5.513883091806197,0.1103581728383378
6.360615999999999,5.587501109245764,0.10996457939703434
6.365215999999999,5.665083418618357,0.10951671694707833
6.369808,5.741233413238093,0.10907130885007979
6.3744000000000005,5.814030039495529,0.10867022837911919
6.3789880000000005,5.8830626017996,0.10827389715549451
6.383584,5.954627141283842,0.10781628396671913
6.388179999999999,6.0257809851770165,0.10735215282857279
6.3927760000000005,6.0920269612408875,0.10691808932451834
6.3973640000000005,6.153242884761309,0.10652305332820179
6.401948,6.207097006537773,0.10616374917255791
6.406536,6.2555103801797225,0.1058116679029768
6.411136,6.300526244010743,0.10543775014478032
6.415724,6.345620151107281,0.1050132068350104
6.420316000000001,6.3801652142603364,0.10467835327750298
6.4249,6.411190582888318,0.10432460265594935
6.429488,6.430767673125169,0.1040636093386801
6.434076,6.445803449675152,0.10379673829183605
6.43866,6.459406911472276,0.10352286003809713
6.443248,6.4769305237538015,0.1031503238083722
6.44784,6.496208863481994,0.10271772070375985
6.452428,6.514421442599764,0.10225885482054416
6.457019999999999,6.525682915564644,0.10185038407704529
6.461616,6.536655877652604,0.10141496734827662
6.466212,6.54296534133955,0.10098158520456398
6.470819999999999,6.547964674987784,0.10053387671356255
6.475412,6.547034521644919,0.10011677938920023
6.480016,6.536332774092075,0.0997703319896098
6.484592,6.527141384557606,0.09937995208752891
6.489192,6.51508536551742,0.09897217958743104
6.49378,6.504950400086674,0.0985419042365886
6.498376,6.496081423246014,0.09808072782109138
6.502964,6.484391958348267,0.0976468843677615
6.507564,6.468205321212277,0.0972462934634801
6.512147999999999,6.454716987419233,0.09682275474445984
6.516732,6.442250272787982,0.09638389869910768
6.521328,6.437467772594495,0.09586014368205206
6.525923999999999,6.435261391029809,0.09532196975820237
6.530511999999999,6.431256140569826,0.09479463196474353
6.535104,6.424841097643818,0.094320627039107
6.539692,6.41703788141358,0.09388330521409204
6.544284,6.408868111040905,0.09346903257160177
6.548863999999999,6.40429607845882,0.09302937975022502
6.55346,6.401034175915449,0.09260883066761272
6.558051999999999,6.396916980373058,0.09223733910321676
6.562627999999999,6.393210480421733,0.0918885117968117
6.567227999999999,6.392735164118563,0.091537227005241
6.571815999999999,6.401376377006017,0.0911171136221876
6.576403999999999,6.409406666322742,0.09073577466285304
6.580991999999999,6.42402150764992,0.09034574539779715
6.5855760000000005,6.4421119020535444,0.08994359413952142
6.5901760000000005,6.46858571736292,0.08952829116864609
6.5947640000000005,6.500211769929891,0.08909683474825353
6.5993520000000006,6.538911113363898,0.08863235665978389
6.603948,6.581985444322,0.08815204270737673
6.608524,6.629845458395261,0.08768300233811364
6.613115999999999,6.677627429203004,0.08727254116497425
6.617696,6.725820095601812,0.0868862065633844
6.622296,6.78492816008654,0.08644088892720653
6.626884,6.847756147076005,0.0859770667908302
6.631484,6.914181871856063,0.08549924197162917
6.636064,6.984571888569148,0.08499239850994157
6.64066,7.055739155015735,0.08449663399751933
6.64524,7.127928040624116,0.08399952435856849
6.649831999999999,7.208822759832056,0.08343717491960878
6.654436,7.293315216830586,0.08286332334244637
6.659031999999999,7.377030424095616,0.0822936560988766
6.663624,7.457025708855908,0.0817564590639111
6.668216,7.5408631008350815,0.08119954841178603
6.672804,7.622246558899604,0.08065367722462023
6.677392,7.703097136658916,0.08010623798249752
6.681976,7.77519773937004,0.07959675032101751
6.686571999999999,7.847009831204245,0.07907223165041719
6.691164,7.9144469355143565,0.07856793444717713
6.695744,7.979796660052252,0.0780534694275027
6.700335999999999,8.037784582846193,0.07754126100364522
6.704923999999999,8.092130626400913,0.07700955080161292
6.709516,8.149497385992385,0.07642076778180629
6.714104,8.195538051906873,0.07586579198121798
6.718692,8.233073112201462,0.07532285621319934
6.723304,8.263368555466242,0.0747703538234557
6.727892,8.284669654254543,0.07425028465041483
6.73248,8.300163450765893,0.07372947523175565
6.737072,8.306374391923844,0.07321207805694002
6.74166,8.303180293014254,0.07270614173854818
6.746256,8.291602773198912,0.07219883723548905
6.750844,8.277160623877853,0.07166760670842492
6.755451999999999,8.259487290908638,0.07112779994879777
6.760039999999999,8.23216454844359,0.07060434512226865
6.764636,8.195847461502064,0.0701028665036889
6.769224,8.151435464531707,0.06962080973075395
6.773824,8.099827991980165,0.06915333673043683
6.778412,8.039103990237999,0.06871136722737729
6.783003999999999,7.975393174275971,0.06824496853263601
6.787588,7.905141947752116,0.06780086139031419
6.792184,7.8337469173523235,0.06736396795145819
6.796772,7.761696821933172,0.06691126673087094
6.801367999999999,7.67991927375267,0.06650829682708324
6.805955999999999,7.600595659486818,0.06610375664558432
6.810552,7.524869783011559,0.0656828097636977
6.81514,7.453274524632103,0.06526113013689334
6.819731999999999,7.385521373471528,0.06481306429899368
6.824319999999999,7.318423287330311,0.06436774057958636
6.828912,7.258276307341984,0.06391153081694363
6.8335040000000005,7.202137760735315,0.06346387124537932
6.838095999999999,7.153194689709829,0.06299618196472631
6.842683999999999,7.104540129561262,0.06255066856531366
6.84726,7.064347033583962,0.06206957590580839
6.851852,7.030449978740196,0.06157279968449779
6.85644,7.008734310572437,0.0610296384771786
6.861028,6.992170879662273,0.060485140804690814
6.865628,6.989465519609263,0.0598992867316062
6.870219999999999,6.996409569052088,0.05930845086697329
6.874807999999999,7.008794366629429,0.0587503578395442
6.8794,7.030295693397394,0.058173720577569796
6.884,7.05989193019419,0.057588750529292486
6.888592,7.09247498121085,0.05703152050514617
6.893171999999999,7.140592787265814,0.05644813198488393
6.897768,7.195128819168459,0.055859483682834464
6.902347999999999,7.252773850005112,0.05529568007133329
6.906947999999999,7.314549498937566,0.05475180782375948
6.91154,7.3804557659658245,0.054227786378778765
6.91614,7.4512699008233865,0.053723692463570324
6.920732,7.5215952968243665,0.05324747753403398
6.925328,7.591554138682909,0.05279260346510217
6.929911999999999,7.661923676132517,0.05236727219074998
6.934504,7.736790385820362,0.05194259504478171
6.939096,7.805283011109157,0.05157331573579077
6.943687999999999,7.876229570312602,0.05122021309091109
6.948275999999999,7.941945848992935,0.050909047187707314
6.95286,8.008561562120917,0.050600883473835186
6.957451999999999,8.06724869138284,0.05033286831411307
6.962048,8.121072094264088,0.050085085978368624
6.966636,8.169498890459447,0.049840137404201665
6.971232,8.21179597168405,0.04963113120897125
6.975827999999999,8.247308272918529,0.04944728471915946
6.980415999999999,8.278201217200625,0.04927056485486735
6.985008,8.292826298159545,0.04914105799520539
6.989596,8.300788783842492,0.049030054758555576
6.994188,8.305930781468348,0.04892531699153197
6.998776,8.30285568435123,0.04882728037727532
7.003364,8.29221855751049,0.04874576528065663
7.007967999999999,8.279249681469244,0.048649114374169654
7.012555999999999,8.263582502085056,0.048552479483172296
7.01716,8.24251871601498,0.04845569297667414
7.021752,8.212993465773636,0.04837473142489895
7.02634,8.176683435542174,0.04831461485879506
7.030948,8.13653129809183,0.04826537926195251
7.03554,8.081255101194246,0.04824881568681516
7.040143999999999,8.020215743468336,0.0482491548907802
7.044731999999999,7.956111528257048,0.04826457964116689
7.049335999999999,7.89033062886461,0.04827440655445048
7.053916,7.820296926662222,0.048272743741026906
7.058516,7.748342170850394,0.04827619948315973
7.063095999999999,7.674832915571561,0.04826867611110321
7.067695999999999,7.5968264880544885,0.04826132426941597
7.072288,7.517143376356266,0.048246526468996305
7.07688,7.440891676285863,0.04819698220281891
7.081475999999999,7.357855196225341,0.04817029819539835
7.086059999999999,7.26917774005064,0.04815530892529356
7.090659999999999,7.176535991942911,0.04815895236990298
7.095256,7.084016428549329,0.04815582695462648
7.099847999999999,6.983934835432127,0.04816867228850833
7.104439999999999,6.881932188705484,0.0481869149982624
7.10902,6.780828976426488,0.048203522335448674
7.113604,6.682668436918727,0.04820771334571736
