Time,Force,Position
11.151924,3.5287811424635294,0.04917923583644256
11.156527999999998,3.399673277593304,0.04930212011921806
11.16112,3.278782507466054,0.049418037413447725
11.165708,3.1547046951392788,0.049605112949149585
11.170312,3.0282170903464793,0.04989727852118355
11.174908,2.8989089974965907,0.050224999604649954
11.1795,2.772665762132083,0.05048548987577439
11.184079999999998,2.652307872310044,0.05070200588993853
11.188676,2.53182779777386,0.050969443102106805
11.193255999999998,2.409915408484818,0.05124521354001469
11.197852,2.2812182392056575,0.05180237947418228
11.20244,2.151499450764704,0.05244735051263628
11.20704,2.0187158048383695,0.04998212385660595
11.211631999999998,1.892350384759716,0.04750003046118854
11.216224,1.7662293341093533,0.04501553320114994
11.220824,1.6482031934878216,0.04252522424231076
11.225416,1.5291554337044964,0.04006221682679959
11.23002,1.4099854892070258,0.03759668478689312
11.234616,1.2944132825001464,0.03514404136299713
11.239207999999998,1.1883241591263278,0.03263544389115486
11.2438,1.084933339095453,0.030102482520342838
11.248387999999998,0.9864062454452542,0.027542270632367378
11.25298,0.8880013365092014,0.024977942474923565
11.257568,0.7895964275731486,0.022360469832334383
11.262159999999998,0.6989979177890069,0.01965636501586384
11.266752,0.6167386874619873,0.016926236630865267
11.271344,0.5347232618900548,0.014263252060453984
11.275935999999998,0.4570828238422157,0.011612351780995619
11.280524,0.38586061164205715,0.008909369827090676
11.285116,0.32584287307794246,0.006162457897905703
11.289704,0.2823373672652979,0.003120205911042608
11.294296,0.24345121840503833,0.0
11.298887999999998,0.21404815287783996,0.0
11.303476,0.18452290263649593,0.0
11.308063999999998,0.1582288360433063,0.0
11.312656,0.13181258473597088,0.0
11.317244,0.1087491371177312,0.0
11.321848,0.09120448089952432,0.0
11.326428,0.07648087741161107,0.0
11.33102,0.061635089209552116,0.0
11.3356,0.050264289410734506,0.0
11.3402,0.04044798907892125,0.0
11.344787999999998,0.03320780737590587,0.0
11.349387999999998,0.03263078562206688,0.0
11.353972,0.031686645052586476,0.0
11.358567999999998,0.029598700607166867,0.0
11.36316,0.029598700607166867,0.0
11.367752,0.029598700607166867,0.0
11.372348,0.029598700607166867,0.0
11.376943999999998,0.0273885714476016,0.0
11.381532,0.020969780926716555,0.0
11.386115999999998,0.015328240139333692,0.0
11.390704,0.008542895476011642,0.0
11.3953,0.004578038869778812,0.0
11.399891999999998,0.0016348014253395082,0.0
11.404484,0.0006126175903415786,0.0
11.409076,0.0006126175903415786,0.0
11.413652,0.0006126175903415786,0.0
11.418243999999998,0.00036768348884582856,0.0
11.422832,0.00660616062034083,0.0
11.427412,0.02646914348564247,0.0
11.432004,0.057057536088939584,0.0
11.436592,0.09567303508728864,0.0
11.441195999999998,0.14411394470278088,0.009567895350823856
11.445792,0.2043024478912666,0.01879438817074073
11.45038,0.27395037222766283,0.02808525284678281
11.454984,0.35473440189311983,0.03730694530021567
11.459571999999998,0.4531949474494637,0.04598398847939286
11.464175999999998,0.5636910327825161,0.05462121962943662
11.468771999999998,0.6855675928729205,0.06322547167307128
11.473368,0.820867866044264,0.07167814494684796
11.477944,0.9699584064389835,0.07994991002915391
11.482544,1.1279754876764028,0.08828727037339824
11.487132,1.2967179786518175,0.09661928168721202
11.491732,1.4763080640793733,0.10493089602061718
11.496316,1.6687889822826574,0.11314011840943476
11.500908,1.8717067993470173,0.12130835534260033
11.505488,2.0832185049285297,0.1294202983341093
11.51008,2.299560035073829,0.13752079188385227
11.514684,2.5095844801489107,0.14567490631158508
11.519279999999998,2.709172026362918,0.1537327751222833
11.523868,2.8981122061044475,0.1617123618520575
11.52846,3.0807800068975917,0.16958148881527652
11.533048,3.251290083199882,0.16789967694419425
11.537636,3.4079657508301686,0.16657656965034087
11.542216,3.55705890947336,0.16506531551176054
11.546808,3.6932951371577096,0.1635887459660058
11.5514,3.8102562080355407,0.16260905885409196
11.555988,3.9138716090979497,0.1616625036511821
11.560584,4.007616893421382,0.16066332885196774
11.565172,4.087161214930374,0.15982482517699625
11.569764,4.154181257806075,0.1591076254760597
11.57436,4.211864064248011,0.15829583461052704
11.578948,4.259188015094386,0.15745163602259532
11.583555999999998,4.297829794526354,0.1565485694354198
11.588144,4.3230478608773835,0.155731315213433
11.592731999999998,4.340893885852717,0.15485728857739672
11.597328,4.35153419561513,0.15397128240278699
11.60192,4.358855038832132,0.15301734250227042
11.606512,4.366498294742942,0.15196208153712407
11.611092,4.368089878948507,0.15103129575793597
11.615692,4.366250051526257,0.15023239591593146
11.62028,4.358524878561535,0.14960704075215903
11.624876,4.352065694186898,0.14891732301281294
11.629464,4.3442963797735485,0.1482109802652246
11.634064,4.333173696997897,0.14756172586019892
11.638648,4.32421643725998,0.14682619822029075
11.643244,4.313460308626767,0.14612293852982475
11.647832,4.300861169649631,0.145384011605232
11.652424,4.2835985322714825,0.1446869897124341
11.657016,4.26306056979655,0.14395643337903738
11.661608,4.236959674472956,0.14328776250209085
11.666196,4.20762759550121,0.14265715543062993
11.670783999999998,4.175064332881308,0.1420660570313031
11.675372,4.133873279927366,0.14164746718694432
11.679972,4.092393716096504,0.14117184080496026
11.684559999999998,4.044862480560399,0.14081144943465643
11.689152,3.990790834462467,0.14063343365724332
11.693748,3.9340208850215914,0.14050518858369535
11.698328,3.876351501133068,0.14038575263458397
11.702928,3.8192149975497554,0.14029730796933162
11.707504,3.7638773628617384,0.14017390026552948
11.712091999999998,3.7148357693072573,0.13988792915538537
11.716696,3.6648166980396097,0.1397160974758753
11.721284,3.6163962676875947,0.13961191788331215
11.725867999999998,3.5680641202328354,0.1396678892897126
11.730463999999998,3.5181435714941833,0.13990571576328176
11.735052,3.4705989134046664,0.14020388642034906
11.739652,3.426984645431288,0.14053357268789368
11.744243999999998,3.389099636469344,0.14084161711617035
11.748843999999998,3.3589871248424226,0.1410522235541515
11.753419999999998,3.3346038722269356,0.14125785509769417
11.758008,3.3201585399842033,0.1412825737137001
11.762595999999998,3.311276140590132,0.14123568598748748
11.767195999999998,3.310166238531082,0.14110999594739393
11.771784,3.3110656729787302,0.1410870565046257
11.776384,3.315118247809014,0.14111325638554598
11.780967999999998,3.3300081774597015,0.1409408325484601
11.78556,3.3496057469600298,0.1408033179422539
11.790152,3.373133706576497,0.14070979493320168
11.794747999999998,3.4057001521180714,0.14047338524625075
11.799336,3.448082333318254,0.14010199773395526
11.803928,3.493739839615219,0.13978882270090615
11.808508,3.549457450999085,0.13931774075257325
11.8131,3.6180556555269416,0.13863451533235305
11.817676,3.695281650388838,0.13779700613457949
11.822276,3.780768881442339,0.13685173892853444
11.826856,3.871696860630355,0.1358595913402924
11.831443999999998,3.9676548923618205,0.13482201161853014
11.836036,4.062102566074911,0.1338829540385531
11.840623999999998,4.1558171315031265,0.13306144111782783
11.845212,4.252352184988432,0.13219574990991628
11.849819999999998,4.344145696807208,0.13149521905501793
11.854408,4.434795404750043,0.1308579362964163
11.858999999999998,4.529775958768343,0.13011135579634098
11.863588,4.627166305252668,0.12928690408114812
11.868175999999998,4.730153486402544,0.12829797021142364
11.87278,4.832563645798579,0.1272929519092409
11.877364,4.931820664811979,0.12625621036270965
11.88196,5.025104055385653,0.12522943369727105
11.88654,5.1115143830719525,0.12426175177654045
11.891127999999998,5.1892527789755825,0.1233857643335084
11.895704,5.260118111991838,0.1225460848694353
11.900303999999998,5.321778632920213,0.12176569104896047
11.904896,5.37027004982768,0.12112581139487785
11.909488,5.408779404913764,0.12052709234694207
11.914079999999998,5.438206132626113,0.11995316552477338
11.918664,5.46100416687938,0.11937752360073728
11.923251999999998,5.4775842032646285,0.11883223917267939
11.92784,5.492932152876682,0.11820933531685487
11.932416,5.5051269621060985,0.11754627935986256
11.936999999999998,5.508938350429765,0.11695634969764082
11.941588,5.510007293961859,0.11634810519729057
11.946179999999998,5.505391119931147,0.11577327697255178
11.950764,5.492924405299895,0.11528860124428764
11.955344,5.470930465886955,0.11490373604746185
11.959936,5.438265497816386,0.11464803915604979
11.964524,5.395462381393399,0.11453583167422991
11.969108,5.351882015236909,0.11442117739971021
11.973712,5.314186994622891,0.11419379636711349
11.978292,5.277513593170665,0.11394046175505575
11.9829,5.2396963878425,0.11371487932031453
11.987488,5.2020013672284815,0.11347700101788213
11.992076,5.163040358024378,0.11327560872735831
11.996679999999998,5.126655467449071,0.11304668646643035
12.001276,5.093135206379483,0.11282716710455479
12.005872,5.060925075348607,0.11262065672157848
12.010448,5.035133170165412,0.11232156323438584
12.015048,5.009874145287427,0.11203833150515068
12.019635999999998,4.988379184362809,0.11175591153103169
12.024231999999998,4.967705614620319,0.11152695389711971
12.02882,4.956437084945373,0.11121821512831936
12.03342,4.946889380900208,0.11095296253276182
12.038004,4.949811574407965,0.11055179152871769
12.042596,4.956253462440795,0.11017289532080951
12.047183999999998,4.974676509169967,0.109694604211337
12.051776,5.002793106843604,0.10917424795281994
12.05638,5.041869244051788,0.10857443885642389
12.060972,5.087407748556281,0.10796000997036843
12.065552,5.133645459528758,0.10742631645122235
12.070135999999998,5.1831584955980174,0.10694306556022067
12.07472,5.2412993220013195,0.10640057058459179
12.079311999999998,5.306557580720286,0.1058527255453918
12.083896,5.3799548909167125,0.10527851343896978
12.088476,5.45915950339009,0.10469161950993841
12.093072,5.540451495635684,0.1041234282730564
12.097659999999998,5.62640698628229,0.10355827588661673
12.102252,5.712939498682735,0.10308410449565115
12.106848,5.804502063626629,0.10259335934121606
12.111432,5.895698074428087,0.10214070040948177
12.116039999999998,5.994333930239019,0.10162045920079484
12.120624,6.09525739380183,0.10108375020615139
12.125211999999998,6.2028434526406135,0.10048112839246497
12.129808,6.306220850118075,0.0999783406551056
12.134387999999998,6.414828528118655,0.09940589075892316
12.138991999999998,6.521881706652225,0.0988546044376102
12.143567999999998,6.630034547613108,0.09825769300514746
12.148156,6.73597782408763,0.09767084588553529
12.152736,6.841632589685233,0.0970796993022846
12.157339999999998,6.943278921901178,0.09649949988385996
12.16192,7.04422604764914,0.09588125388012252
12.166512,7.140143120853651,0.09529798125728761
12.171096,7.231641065085439,0.0947092428857269
12.175688,7.320518749239803,0.0941054609618352
12.180284,7.4016680775077734,0.09354248961239518
12.184876,7.483139818469552,0.09292753288375162
12.189464,7.56133623433455,0.09228386637915258
12.194048,7.632659587312171,0.09162949459606935
12.198632,7.700463245764721,0.09096304110648315
12.203232,7.764214329386983,0.09026443194103773
12.207819999999998,7.816106439027052,0.08961017429634513
12.212408,7.854629216666546,0.08903129716446335
12.217,7.886278931418669,0.08844530814972214
12.22158,7.908479464654619,0.0878495945634813
12.226171999999998,7.922418761698964,0.08727047974848773
12.230756,7.926420138370554,0.08670443250838279
12.235343999999998,7.9171743677557185,0.08619445117271379
12.239947999999998,7.8996673609492785,0.08569211497697816
12.244536,7.869934826018206,0.08523272016471031
12.249143999999998,7.838481465457354,0.08473462782118708
12.253728,7.798400314562462,0.08425830697669782
12.258316,7.75185679637126,0.08377573500957705
12.262912,7.700405410350755,0.08328912827670695
12.267508,7.64110348372971,0.08282377137176877
12.272099999999998,7.57971417733645,0.08233443348702049
12.27668,7.514194252847386,0.0818401187667425
12.281275999999998,7.44597602501538,0.08135153504294818
12.285864,7.378124351325811,0.08083635705694496
12.290471999999998,7.304998255664501,0.08033086657807238
12.295056,7.228685117803662,0.07985406883999133
12.299656,7.150328741619238,0.07938977565458456
12.30424,7.076713907101345,0.07888538438275151
12.308832,6.998523857079694,0.07843988603815913
12.313432,6.924586609867991,0.07797798617959105
12.318027999999998,6.850282808513852,0.07752667254341727
12.322616,6.781253429131455,0.07704998940564407
12.327208,6.719175155901949,0.07654843642739187
12.331796,6.6573853935493625,0.07606854747302563
12.336379999999998,6.600503499026081,0.07558589586359588
12.340968,6.544565180399073,0.07513677644566222
12.345568,6.497376836820254,0.0746576607268612
12.350155999999998,6.454974176356593,0.07418435612965671
12.354748,6.417235014293946,0.07372563257174365
12.35934,6.385547523936543,0.0732508369872943
12.363927999999998,6.364408877522623,0.07274712353758407
12.368527999999998,6.346667740919629,0.07228632798367197
12.373103999999998,6.334078841574232,0.07181874681219838
12.377679999999998,6.328074494239291,0.0713605806725369
12.382279999999998,6.3257120261435675,0.07093142711908075
12.38686,6.333243336971972,0.07047003275816852
12.391444,6.356187218124534,0.0699553951340138
12.39604,6.384038967106401,0.06945432088734069
12.400627999999998,6.419985626117099,0.06892820436693975
12.405231999999998,6.463416271585898,0.06841757996220679
12.409812,6.514697457655237,0.06790251014890811
12.414407999999998,6.572030315429821,0.06739257606641655
12.418996,6.635659214337938,0.06687458382392619
12.423592,6.712368934369709,0.06630581894775951
12.428179999999998,6.797540118572748,0.06570701216215458
12.43278,6.888230094175817,0.06509636743151404
12.437364,6.978431330922305,0.06452287930011673
12.441955999999998,7.074029174354681,0.06394765865732872
12.446544,7.172447505844146,0.06336950457952112
12.451135999999998,7.274463575124202,0.06279666616523823
12.45574,7.37083866829008,0.06226285223159752
12.460332,7.470645173083774,0.061699014086602486
12.46492,7.572494916201057,0.06113601695118173
12.469504,7.669969671794245,0.060586176751887724
12.474092,7.773696327072343,0.059997072892753335
12.47868,7.873703059845701,0.05943310222597739
12.483272,7.963571644266641,0.05891006426054932
12.487856,8.053029533096517,0.0583771028508876
12.492452,8.139378422992383,0.05783573805223581
12.497039999999998,8.217221707268354,0.057291478700133305
12.501632,8.288646765696644,0.05676730083806514
12.506211999999998,8.354675217439047,0.056258021190854095
12.5108,8.418249735266798,0.05575192538269146
12.5154,8.469642866418543,0.05528546236990812
12.519987999999998,8.510897849217873,0.05484331710556916
12.524576,8.54405792198837,0.05441061549975161
12.529168,8.57692948388195,0.053957323080393214
12.533763999999998,8.5999072668514,0.053513655158624655
12.538372,8.615567389525525,0.053081263350490654
12.542963999999998,8.622888232742527,0.05266586378710615
12.547556,8.625589719007142,0.05225756364305474
12.552143999999998,8.61562107973917,0.051896101566346914
12.556743999999998,8.592082880490967,0.05158119453477766
12.561332,8.563680954862084,0.05128198710654233
12.565928,8.523752707576552,0.051017728104288576
12.570515999999998,8.476506799995692,0.05075972244624982
12.575115999999998,8.42349773158651,0.05051678951652458
12.5797,8.360761210415973,0.05030597351169898
12.584295999999998,8.29381602788412,0.05011920841636524
12.588888,8.22523830261974,0.04996152383587129
12.59348,8.150242351507682,0.049808574178806936
12.59808,8.069361054853156,0.04967596084165456
12.60268,7.9776085015613365,0.04958674364131239
12.607267999999998,7.887654817164812,0.04949411310310425
12.611864,7.79733457862585,0.04941547617651605
12.616452,7.702927863439715,0.0493579922922747
12.62104,7.600470379673379,0.049337821169673765
12.625628,7.497646341764603,0.04933244054983243
12.630228,7.396498988036979,0.049330188710764264
12.634819999999998,7.296251068757002,0.049324798981361655
12.639408,7.193837726439292,0.049336574599790274
12.644004,7.097554099092344,0.049310804997659316
12.64858,7.006256382840218,0.04926023167129235
12.653171999999998,6.915735916321593,0.04921438020523349
12.657764,6.82689213398412,0.04917319364860991
12.662351999999998,6.735638559180621,0.04916380198089678
12.666944,6.647982722167715,0.04915387571906175
12.671532,6.561104134888311,0.04915116779829938
12.676123999999998,6.471160690123525,0.04916976619304776
12.680716,6.3804399956252364,0.04918333372634078
12.685304,6.295115907812837,0.049194315411820955
12.689899999999998,6.211590688895733,0.049205325308133575
12.694475999999998,6.130108708302214,0.049204461031553993
12.699072,6.044662435775669,0.049224916062377166
12.703651999999998,5.957417294353828,0.0492464664762787
12.708251999999998,5.8777341826556055,0.04924396075735112
12.712844,5.794208963738502,0.04926199463025452
12.717436,5.711583179269046,0.04928037363693086
12.722032,5.623316418685412,0.049316725065904676
12.726624,5.531984800616396,0.04937726930315502
12.731212,5.441552616995027,0.049441895784769346
12.735803999999998,5.348710640907635,0.04954452499215925
12.740388,5.257423164287247,0.04966133469841361
12.744984,5.165236253219212,0.04978085107927401
12.749568,5.072027722989382,0.04991321279613323
12.754155999999998,4.984049473282668,0.049995327827300574
12.75874,4.893372920233009,0.05008052649761739
12.763331999999998,4.8017969327357015,0.05017259294087176
12.767924,4.713407987437921,0.050229386286823566
12.772503999999998,4.6224429235113424,0.05027877015400568
12.777096,4.526736317918232,0.05035146520926604
12.781683999999998,4.426288170658593,0.05045462003794231
12.786276,4.328782696170188,0.05053409441526857
12.790872,4.232298840843577,0.05060817659805307
12.79546,4.136836604678758,0.050671728241657325
12.800068,4.034833957952114,0.050757787925967496
12.804659999999998,3.937939407034438,0.05079218822934841
12.809259999999998,3.838346552773818,0.05083090493948893
12.813855999999998,3.738875883227343,0.05086491521580685
12.818444,3.6347858567284836,0.0509319906538134
12.823044,3.527220277153179,0.0510002376661265
12.827635999999998,3.4140137214636948,0.05113204970151905
12.832231999999998,3.293489505478883,0.05130910845608323
12.836807999999998,3.173986908655864,0.05147300529474866
12.841407999999998,3.051130943470545,0.0516282805629672
12.845987999999998,2.924188501638053,0.051862529526456244
12.850587999999998,2.794547756462617,0.05213380844045674
12.85518,2.6632303271060307,0.05244060404512862
12.859772,2.529747474711711,0.05284378260324247
12.864359999999998,2.3988407409461905,0.05329676313082735
12.868952,2.267034572733021,0.05386563906333424
12.873559999999998,2.140991565348176,0.054397451166732946
12.878156,2.00714215881142,0.051845560275273206
12.882748,1.868673395322279,0.04928949143653612
12.887339999999998,1.7272619590619032,0.046742202098144905
12.891928,1.5867499572491752,0.044188846246101775
12.896515999999998,1.4461157707223018,0.04165908505468501
12.901104,1.3102231258619583,0.0391235808911563
12.9057,1.1789498379540002,0.036580862722670346
12.910291999999998,1.0569152639508121,0.03399335127263083
12.914884,0.9414211005094502,0.03139289700021561
12.919476,0.8329113803646646,0.02871720388973108
12.924063999999998,0.7335181894105032,0.025995079378427006
