Time,Force,Position
6.367083999999998,1.075656107117604,0.032913483486122844
6.371668,0.9903761607538323,0.03046892763342512
6.3762560000000015,0.9062400182659993,0.027999462404942384
6.380852000000001,0.8212044413305187,0.025528574248154873
6.385448,0.7356609174460155,0.023079233751380386
6.390044,0.6556361849615451,0.020600271376677463
6.394635999999998,0.580108624715314,0.018116550742713493
6.399228000000001,0.5111214750309093,0.015564126575961847
6.4038080000000015,0.44471044397530246,0.013037267891640992
6.408404000000001,0.38267440044378914,0.010535133200165598
6.412984000000002,0.32615714831230863,0.00798590062434145
6.4175840000000015,0.2751586875808609,0.0053793767820399276
6.422167999999999,0.232352388236201,0.0027016575023037464
6.426763999999999,0.19326601139627825,0.0
6.431348,0.15610068816579684,0.0
6.435943999999999,0.12649739465893525,0.0
6.440543999999999,0.1080538686662849,0.0
6.4451360000000015,0.09218646130243244,0.0
6.449724,0.07967242230088004,0.0
6.454312000000002,0.0682241439097493,0.0
6.4589,0.06025141859506431,0.0
6.463495999999999,0.058041854108703446,0.0
6.468084000000001,0.05930784269878831,0.0
6.47268,0.06327213463181672,0.0
6.477271999999999,0.0704426768568111,0.0
6.481852,0.08043370713889471,0.0
6.486436000000001,0.09144635658277184,0.0
6.491015999999998,0.10041576770306192,0.0
6.495604,0.10836355966155847,0.0
6.500212000000001,0.11631135162005503,0.0
6.5048,0.12323752441675807,0.0
6.5094080000000005,0.133106369984696,0.0
6.513988000000001,0.1392802264040853,0.0
6.518576,0.142389225338094,0.0
6.52318,0.14729709316739845,0.0
6.527768000000002,0.14476511598722872,0.0
6.532371999999999,0.14337694268299817,0.0
6.5369600000000005,0.14223313880705898,0.0
6.541551999999999,0.14595306131179606,0.0
6.546140000000001,0.15106115712076365,0.0
6.550740000000001,0.15363727574956154,0.0
6.555327999999999,0.15630167727561572,0.0
6.559923999999999,0.1660054678518177,0.0
6.564508,0.18806721089853695,0.0
6.569103999999999,0.22289760200683884,0.0066872640958783825
6.573692000000001,0.25994779723324035,0.014027352392450211
6.578284,0.300605969881972,0.021775344553109307
6.582875999999999,0.3538223229808843,0.02919104465482954
6.587468000000001,0.4143665760068638,0.0368171090122595
6.592047999999998,0.482893793979267,0.044526998789517006
6.596632,0.5608362916509527,0.05237748221884516
6.601220000000001,0.6453735809648317,0.06023146806950675
6.605820000000001,0.7386710849586366,0.06818443073698496
6.610412,0.844693095565396,0.07608209081635069
6.614996000000001,0.9573098978143485,0.08408462338421552
6.619584,1.0879256286479968,0.09188527466952733
6.624168000000001,1.2248917816955474,0.09973030777315935
6.62876,1.3710288450140886,0.10761427819781871
6.633351999999999,1.5227390808130297,0.11551548894886014
6.637927999999999,1.6852527696154838,0.12332264729632736
6.642524000000002,1.8613021165812835,0.13092754955383887
6.647112,2.0424595593560513,0.13842605081146164
6.651700000000002,2.2168661239575904,0.1459474973659406
6.656296000000001,2.3756835524404583,0.1535233460222646
6.660888,2.5182126383366694,0.15443039887538176
6.665483999999999,2.6548800408755615,0.15461671468975124
6.670059999999999,2.7885503895628516,0.15428220912053325
6.674659999999999,2.9073308085994545,0.15438965785253092
6.679248000000001,3.02131530488916,0.15418698197544753
6.683852000000002,3.126128890907874,0.15387568010545735
6.688435999999999,3.221194544901759,0.15333346491001143
6.693035999999999,3.302303605509494,0.15281595537943501
6.697628000000002,3.37305381052167,0.15217745462377935
6.7022200000000005,3.4321791713482024,0.15156156798651976
6.706811999999999,3.4825001760461802,0.1508133498785691
6.711407999999999,3.5173542293396327,0.15026504663081747
6.715992,3.5420937964658177,0.14959595146261898
6.720583999999999,3.557618311872384,0.14878544641484925
6.725172000000001,3.5626617869692456,0.14791205455460868
6.729755999999998,3.557146178490886,0.14708476631709835
6.734344,3.5388280201340545,0.14648463915996263
6.73894,3.514536233337497,0.14593415939263907
6.743524000000001,3.4900781203781652,0.14532051800887533
6.748104000000001,3.4688511910669884,0.14465247452326654
6.752692,3.4534757054813916,0.14394927399738183
6.757276000000001,3.4412533602784316,0.1432895204926143
6.761863999999999,3.4305074712769583,0.1427110799583424
6.7664480000000005,3.4282671878953814,0.14195558580031126
6.771035999999999,3.4279920995718736,0.14122800637031446
6.7756240000000005,3.4286605871446416,0.14055400285230035
6.780215999999999,3.4350583337288447,0.13987998985071154
6.784815999999999,3.4473075240386284,0.13917890142367922
6.789408000000002,3.4633649197504046,0.13852857625734982
6.7940000000000005,3.485395943901908,0.13785221545148993
6.798591999999999,3.509392163111481,0.13719724505805586
6.803172,3.5379296960079207,0.13651305961379193
6.807767999999999,3.5688431195534953,0.1358936856514718
6.812356000000001,3.5989453915486784,0.13545594577166864
6.816960000000002,3.6333446078024383,0.13502686691072552
6.8215520000000005,3.6694646496859753,0.13465412565834703
6.826143999999999,3.7085715057893758,0.13426469702449964
6.830728000000001,3.7487441225031977,0.13392745409823625
6.835319999999999,3.788061446218,0.1336877311418884
6.839919999999999,3.829588334419163,0.13344293499086668
6.844512000000002,3.8738135259632696,0.1331494610363557
6.8491,3.9188159672408784,0.13285882748089933
6.853691999999999,3.9609979204613976,0.13264251329204554
6.858276,4.001913885091833,0.13249572949123928
6.862871999999999,4.039276253380304,0.13249855005287714
6.867448,4.081668674212226,0.13242752397000981
6.872039999999998,4.1234501714734195,0.13243167406216375
6.876624,4.170506090706354,0.1323492624261822
6.881204,4.222181366891674,0.13217264251187047
6.885788000000002,4.273734458362847,0.13202197726482134
6.890371999999999,4.3314614062534105,0.13178196353946628
6.894960000000001,4.386245681372739,0.1316141801467902
6.8995560000000005,4.439886152616128,0.1314847476151757
6.904132000000001,4.500555773277927,0.13117778094381569
6.9087320000000005,4.557627656149133,0.13093778464334235
6.913328,4.61134617065804,0.13073347818430267
6.917916000000002,4.662732935966441,0.13054113274104773
6.922519999999999,4.711787952074334,0.13036345897000928
6.927112000000001,4.762597695628895,0.13009029163550503
6.931704,4.815939416363626,0.1297340633866284
6.936292000000002,4.868503887364855,0.12940000245467803
6.9408840000000005,4.916937740270281,0.12911036990301822
6.945471999999999,4.970479688984676,0.1287004164421034
6.950071999999999,5.022300812069292,0.12825685205137485
6.954668000000002,5.078042085638309,0.12766759575754674
6.959264000000001,5.130796544987461,0.127099324555903
6.963847999999999,5.177865886773807,0.12657954561292833
6.968444000000002,5.217206872673761,0.12616669013057846
6.973032,5.251351479867491,0.125772891242529
6.977627999999999,5.282631457555501,0.12538137478177463
6.982220000000002,5.305161460195326,0.12510932122361593
6.986820000000002,5.3302234400153194,0.1247537731583668
6.991408,5.359982820053216,0.12426805671601532
6.995992000000001,5.383035463366513,0.12385608502796674
7.000579999999999,5.40772064941233,0.12337608756109751
7.005175999999999,5.4371032356760525,0.12276622096564624
7.009768000000001,5.469017799119942,0.12208011846060886
7.014355999999999,5.502442720582209,0.12133894717874158
7.018948000000002,5.534435327291618,0.12060151485543295
7.023527999999999,5.559232458419843,0.11996547996144453
7.028123999999998,5.57810010255697,0.11938613617497594
7.032708,5.597334300836534,0.11877683186804963
7.037284,5.607163459048555,0.11826215322616848
7.041896000000001,5.616992617260576,0.11775066711543943
7.046484,5.623468407110296,0.11727173789593395
7.051072000000001,5.627856817187801,0.11678303106609118
7.055668000000001,5.631834531674242,0.11626520123599474
7.060255999999999,5.63527936585547,0.1157287272131473
7.064851999999998,5.637091657304177,0.11525805991989481
7.069431999999999,5.636982895143444,0.11481937675042053
7.074031999999999,5.640838424915739,0.11430893301043561
7.078607999999999,5.641873466630944,0.11384229493660089
7.083207999999999,5.636001543641886,0.11349983891398181
7.087800000000001,5.6315619354056885,0.1131626125047637
7.092400000000001,5.627000142455343,0.11283523953456523
7.096992,5.619006937877181,0.11259365702379438
7.101588,5.611546613604228,0.11236895663037465
7.106172000000001,5.603597550474694,0.11217926655944496
7.110764,5.59900185570746,0.11196753033532936
7.1153520000000015,5.5986589637501725,0.11172342946579546
7.119944,5.603468309050482,0.11143762963677491
7.124531999999999,5.613674261036678,0.11109645362329132
7.129116,5.63046476503333,0.11071982749175002
7.133704000000002,5.647910334049338,0.11035390727149574
7.1383040000000015,5.664744979494617,0.1100315590807378
7.142892,5.687386927216848,0.10968340582288082
7.147480000000002,5.717757230825472,0.10928135799904379
7.152072,5.754179206139341,0.10883636570487841
7.156659999999999,5.797019407300889,0.10832534663246321
7.161252000000001,5.843335161538884,0.10779010482434362
7.165839999999999,5.8890399922061505,0.10730258971558895
7.170428000000001,5.936299322340423,0.10681372053690807
7.175035999999999,5.988833074446434,0.10628195498047383
7.179624,6.0410002724100105,0.1057770075785787
7.18422,6.094066904821234,0.10527105263922695
7.188808000000002,6.15097564445134,0.10472218359665275
7.193396,6.209028187957385,0.10416344138963697
7.197991999999999,6.266059112301637,0.1036217628185856
7.202591999999999,6.319247929427005,0.1031365813552957
7.207191999999999,6.373824919856605,0.10262208123902672
7.211772,6.428768464428641,0.10209521209430354
7.216367999999999,6.477171598438852,0.10164385271340118
7.220948,6.527085090467438,0.10115750438188574
7.225548,6.575810637171457,0.10065433593067445
7.230136000000002,6.6269459763415,0.10010335290789052
7.234736000000002,6.670230774911003,0.09960979247172635
7.239324,6.709629324812997,0.09912572218441733
7.243915999999999,6.74538599547577,0.09863419943866916
7.248508000000001,6.775579733289883,0.09815446045233657
7.253104,6.8002105382553335,0.09767968167034877
7.257691999999999,6.822343267857506,0.0971685700897504
7.262288000000002,6.846597279048782,0.09658532126956396
7.266876,6.8663099765531905,0.09599454013752742
7.271464000000002,6.88544565230376,0.09534772068856533
7.276047999999999,6.9012279596920285,0.09471360180814435
7.280636000000001,6.9090375417656125,0.09412833664758533
7.285228,6.904910106591483,0.09363399002467251
7.289815999999998,6.903803387454107,0.09305896636721822
7.294408000000001,6.901630907706307,0.09245288271811258
7.298999999999999,6.895083440434416,0.09187091184714785
7.303591999999998,6.883505920619072,0.09130320195036709
7.30818,6.875481997145694,0.09066876417432734
7.312767999999998,6.856298306158104,0.09012131677296963
7.317371999999999,6.834171942399278,0.08960247100477914
7.321960000000001,6.809591644725801,0.08908558646054876
7.326568000000002,6.784234097318823,0.08856272762204298
7.331160000000001,6.755156627407106,0.08806654529399335
7.33576,6.722114865562361,0.0876093377469858
7.340356,6.6839650079086494,0.08721091515256235
7.344944000000002,6.6499457683507375,0.08680275324594136
7.349536,6.616337224383893,0.08641388554113454
7.354127999999999,6.579175084075084,0.08608747762251748
7.358720000000002,6.539603151300252,0.0858040271030215
7.363308,6.49749924134525,0.08556990261376476
7.367908,6.4589930691808375,0.0853117497849353
7.372499999999999,6.426905122864108,0.08500773228940775
7.377099999999999,6.407120747937529,0.08459831524099846
7.381684,6.382761157507192,0.0842646228145398
7.386288,6.356769024344333,0.08397636980297044
7.390868000000001,6.332331390648479,0.08369023525193266
7.395455999999999,6.3101033214389854,0.08341565242899746
7.400048000000002,6.28738651337291,0.083168084297424
7.40464,6.273131169478102,0.08285313153077958
7.40924,6.26235137865974,0.08252495580361983
7.413836,6.2527595331659445,0.08222278566630396
7.418424000000002,6.251917662720337,0.08188877822127756
7.423007999999999,6.257249648694119,0.08153070030806518
7.427600000000002,6.266467883335411,0.08118413055634079
7.432196000000001,6.286845885490914,0.0807624175268857
7.436783999999999,6.311721059884658,0.08032548895205983
7.441379999999999,6.338927983478906,0.07989832392823328
7.445976000000002,6.369732644863747,0.07945688685423705
7.450555999999999,6.411819258476945,0.07894241385866603
7.455155999999999,6.462000782118973,0.07839518375914706
7.459735999999999,6.510794132456771,0.07788533104158195
7.464316,6.560242547813926,0.07739358359313772
7.468916,6.609202224314497,0.07694092812418894
7.473492,6.664702311376895,0.0764532516895602
7.478088,6.7294411123440625,0.0759197029868242
7.482679999999998,6.796633847225881,0.07539433660723793
7.487279999999998,6.865381081574705,0.07487842660091555
7.491872000000001,6.936582249838182,0.07437297588703537
7.496464,7.013957274521048,0.07386402405379491
7.501055999999998,7.096851090603947,0.07334050818413845
7.505635999999999,7.182687579458079,0.07280285874709456
7.510235999999999,7.266725199416918,0.07228544472942676
7.514816,7.347820146604522,0.07179799317728838
7.519416,7.436965862372327,0.07125664169159501
7.523996,7.520348417311808,0.07076117561907466
7.528592,7.599111615298904,0.07029585580729372
7.5331800000000015,7.677219748266643,0.06982529393289102
7.537772,7.756471685110323,0.06935016730914276
7.542372,7.828039407516238,0.06892956884104368
7.546963999999999,7.900873118512236,0.06850276637700287
7.551552000000001,7.976116621974257,0.06804859540911441
7.556144,8.050582875702778,0.06759783940041497
7.560724,8.125415683573735,0.06714023648033236
7.565304000000001,8.195751319206453,0.06670056642531313
7.569887999999999,8.263999575066958,0.06625203801066415
7.574476000000001,8.331837135336395,0.06579032313593418
7.579072,8.400407803890706,0.06530217198879794
7.583652000000001,8.46676890795866,0.06480491892623191
7.588232000000001,8.523358417816628,0.06432923501698347
7.592828000000001,8.571975202359912,0.06387008045695089
7.5974080000000015,8.616216999379104,0.06341844968919166
7.602,8.654407124693051,0.06297050172597438
7.606584000000002,8.691287119968287,0.06250690690226882
7.611172,8.716107913281663,0.06208375162263591
7.615776,8.743582868489353,0.06162495295594718
7.620367999999999,8.767948824763037,0.06115228197930376
7.6249600000000015,8.793947323769242,0.06065165753781387
7.629548,8.811606543318323,0.06017380667843582
7.634143999999999,8.828977251990485,0.05967271640908415
7.638732000000001,8.834533128129081,0.05919464205772763
7.6433399999999985,8.834448028153497,0.058734391785811045
7.647928,8.828066887044377,0.05828105194430539
7.652528,8.81436808563993,0.057841611114673806
7.657119999999999,8.801813088111423,0.05739147750043242
7.661715999999998,8.781573876145153,0.056968951498246094
7.6663,8.755571503350554,0.05656573986748349
7.670895999999999,8.724583219461135,0.05618573410494861
7.675484000000001,8.689630643638688,0.05582246963444796
7.680076,8.658275805606833,0.055454035022336284
7.6846679999999985,8.624877729251388,0.05509426674646639
7.689252,8.590458033734151,0.054738217352666624
7.693840000000002,8.55591615350277,0.05438405689277648
7.6984400000000015,8.521129903843095,0.05403802183840328
7.703023999999999,8.489041957526364,0.053687330304978076
7.707619999999999,8.45147936125823,0.05337858726055826
7.7122160000000015,8.414327460581163,0.053086496991254915
7.716795999999999,8.36990204105739,0.052836446355836404
7.721395999999999,8.328174924876565,0.05258215568786486
7.725971999999999,8.287102873715096,0.052335122293211724
7.73056,8.249262006201779,0.05209851425975908
7.735156,8.212975638155468,0.05186951315776218
7.739744000000002,8.181186442347396,0.051636054965472605
7.744332,8.147764703806804,0.05143171095706738
7.748916000000001,8.107313815847801,0.05125980024226462
7.753508,8.06649637374636,0.05110160683245939
7.758099999999999,8.025312377502484,0.05095784981003214
7.76268,7.985027815706254,0.05081197901005603
7.767279999999999,7.942944385014731,0.050664655821643055
7.771868000000001,7.897018847104323,0.05052753634095044
7.776468000000001,7.854691046984507,0.05038744494336778
7.781047999999998,7.811097258274605,0.050262396479738555
7.785647999999998,7.76930233846,0.05013459503911182
7.790244000000001,7.722399322836427,0.05003432052092927
7.794836,7.673575253603413,0.04993800486939669
7.799427999999999,7.624873369084544,0.049835205890346054
7.804023999999998,7.57298444236615,0.04975474007340648
7.808612,7.525837057314287,0.049660758013252614
7.813212,7.47958910671007,0.049564924209711196
7.817803999999999,7.427211441135093,0.04950298477762105
7.822396000000001,7.373157091378967,0.049434106468249306
7.826983999999999,7.313706134936952,0.049364764332885974
7.831572000000001,7.2522119401713505,0.04930527350042792
7.83616,7.191206484262332,0.049221703434963855
7.840751999999998,7.130201028353313,0.04913799223324731
7.845348000000001,7.0657200193678475,0.049047156078920455
7.84994,7.001361195096529,0.04894991724365807
7.854531999999999,6.932138644444533,0.048870420021150315
7.859124000000001,6.861650105202453,0.048808322368539984
7.863716,6.7853984051320495,0.048764845234138765
7.868296000000001,6.7056711519852,0.04871151833270942
7.872888,6.620425107438317,0.04866553345837739
7.877500000000001,6.531092586244261,0.0486444634675128
7.882087999999999,6.443392607782726,0.04858087546449031
7.886683999999999,6.351606152674017,0.04854418363517915
7.891272000000001,6.255200340612923,0.04851342753449011
7.895859999999999,6.156340594637177,0.04847060265097679
7.900455999999998,6.045954527004783,0.04847516523683085
7.905048000000001,5.926085376039327,0.04851194078918983
7.909644,5.803640106445073,0.04854807626200997
7.914231999999998,5.674287872146556,0.048629540467420476
7.918831999999998,5.547878310619274,0.04868843649602872
7.923411999999999,5.414028904082517,0.048767973836242574
7.928011999999999,5.2810789319934095,0.048840422932832445
7.932600000000001,5.1486176987608845,0.04887577462968651
7.937200000000001,5.018488214728865,0.048940998370924596
7.941791999999999,4.882184874277458,0.04899862028935858
7.946383999999998,4.747025337701989,0.04903919512080636
7.950963999999999,4.6149306586119,0.04904871981113056
7.955556000000001,4.487333151760051,0.049063767259048235
7.960139999999999,4.351807061042145,0.04914417890535294
7.9647320000000015,4.22012307754312,0.049205625552611904
7.96932,4.080999249034623,0.049311758774308274
7.973911999999999,3.942163931403045,0.04946730328595415
7.978504000000001,3.8045946023615524,0.04959737628438595
7.9831,3.667802523053561,0.04975159858826774
7.987696,3.5329314973550114,0.04989524348686194
7.9922840000000015,3.4070106746843125,0.0499523774093685
7.996880000000001,3.2887740664513787,0.049954517422798814
8.001463999999999,3.1734801309896796,0.0499288683156829
8.006056000000001,3.0619061180327174,0.04991475976605237
8.010644,2.9461234437144364,0.049981599311518694
8.015232000000001,2.832139638291451,0.05007134620606338
8.019828,2.7130477370594974,0.050281954304551554
8.024408000000001,2.5916682280756658,0.05058313018656754
8.029015999999999,2.4700002082149144,0.05079239399082409
8.033604,2.3582259672782895,0.050976821962875916
8.038191999999999,2.2492722143987542,0.0511151427080636
8.042788000000002,2.1355769198526877,0.05130273835868035
8.047376,2.0194276913919698,0.0514628813936404
8.051967999999999,1.9117399271025188,0.051590887752550406
8.056543999999999,1.8020089244894808,0.05181604460530384
8.061143999999999,1.705603112428387,0.05183072053540896
8.065724,1.6073984314719973,0.04927570177621703
8.070324,1.5071505121920206,0.04673048014415194
8.074915999999998,1.4108668848450723,0.04416066373638565
8.079512000000001,1.3143388880698328,0.041600953908557926
8.084091999999998,1.2156454682568605,0.03909230278666727
8.088688000000001,1.1168298637297422,0.036618259105461556
8.093276,1.022389246726718,0.03415994553096075
8.097867999999998,0.9358772135897504,0.03165651374457567
8.102456,0.8538623526910221,0.029100248721516963
8.107052,0.7765890334588244,0.02650653521649944
8.111643999999998,0.7086766128455422,0.023811399067475245
