Time,Force,Position
17.067388000000008,0.0021142085262732657,0.0
17.071979999999996,0.004688558889363324,0.0
17.07656800000001,0.008939593433603413,0.0
17.081159999999997,0.01241337824434132,0.0
17.085752,0.013843924731492183,0.0
17.090339999999998,0.01629609038043657,0.0
17.094932,0.018503886601089616,0.0
17.099524000000002,0.019690063659949138,0.0
17.104112,0.022675109614104363,0.0
17.108704000000003,0.02373910195881821,0.0
17.113292,0.025047463731823406,0.0
17.117896000000002,0.029298498276063494,0.0
17.122488000000004,0.033306931657720064,0.0
17.127080000000007,0.03870353834360718,0.0
17.131659999999997,0.044877394762996466,0.0
17.136260000000007,0.05243942448661629,0.0
17.140836000000007,0.060121870658673957,0.0
17.145436000000004,0.0687037512783795,0.0
17.150028000000006,0.07920668550752638,0.0
17.154624,0.08701131639372972,0.0
17.159216,0.09583756644172658,0.0
17.163812000000007,0.10016841251719202,0.0
17.168408,0.10384419357330094,0.0
17.173000000000002,0.10997390854406207,0.0
17.177592000000004,0.11826904655255592,0.0
17.182187999999996,0.12259989262802135,0.0
17.18677600000001,0.12819672729357165,0.0
17.191360000000003,0.135836800282709,0.0
17.195948,0.143599057985992,0.0
17.200544000000008,0.15418180374636425,0.0
17.205135999999996,0.16349856091665163,0.0
17.20972400000001,0.1687288414397649,0.0
17.214315999999997,0.172815318086939,0.0
17.218900000000005,0.17755685975346958,0.0
17.223492000000007,0.1793557286487653,0.0
17.228080000000006,0.17988860895397615,0.0
17.232668000000004,0.18054367397333265,0.0
17.237263999999996,0.1792776853832478,0.0
17.24185200000001,0.17699007763136942,0.0
17.246440000000007,0.17830020767008242,0.0
17.251024,0.1794881529946498,0.0
17.255616000000003,0.18067609831921713,0.0
17.260211999999996,0.1799429900343431,0.0
17.264787999999996,0.1748348942253755,0.0
17.269379999999998,0.1743461553687928,0.0
17.273967999999996,0.17704445871173635,0.0
17.278568000000007,0.17884332760703203,0.0
17.28316000000001,0.1778217084452385,0.0
17.287756,0.17295798206456223,0.0
17.292348000000004,0.16719482123623813,0.0
17.296940000000006,0.16155384512205972,0.0
17.301540000000003,0.15807829204561397,0.0
17.30613600000001,0.15051626232199414,0.0
17.310724000000008,0.14115536370307863,0.0
17.31532,0.13281785251166447,0.0
17.319907999999998,0.12460252603439594,0.0
17.324492000000006,0.11856109396089111,0.0
17.329080000000005,0.12327897344227112,0.0
17.333668000000003,0.13328151452713136,0.0
17.338260000000005,0.150656096987687,0.0
17.342844,0.18133220781503603,0.00853560973423414
17.347436000000002,0.2251876622950328,0.017070831658301075
17.352024,0.2803014068182358,0.025694378560012623
17.356616000000002,0.35063773331767345,0.034115215587461334
17.361199999999997,0.4219720167937542,0.04299028330228927
17.36578800000001,0.5055862094748347,0.051668571947284005
17.370396,0.5994370730373281,0.060385730840551904
17.374983999999998,0.7064672802524691,0.06905996725672431
17.379571999999996,0.8280650044244883,0.07758780061597846
17.384168000000003,0.9614097574962966,0.0860344742541114
17.388756,1.1099770925443395,0.09432593738550363
17.39336,1.2691476526162324,0.10258283029772453
17.397952000000004,1.4469722062921775,0.11069100098715509
17.402556000000004,1.6379761036207703,0.11878285389990596
17.40713600000001,1.8431791954980965,0.1268354611911879
17.411736000000005,2.0567759479129117,0.13493046304957904
17.416324000000003,2.276426140298679,0.14299978456283038
17.420924,2.48900304181741,0.15114161474694937
17.425504000000004,2.6993262374011504,0.15929457603652428
17.430104,2.9068187052960637,0.16737635657340252
17.434692,3.099377102091662,0.16699422637028483
17.439288000000005,3.284807826939856,0.16653880219922318
17.44386800000001,3.4667527590798644,0.1659208890431875
17.448452000000003,3.63985943327443,0.16554051367634864
17.453028000000003,3.8180639636462272,0.16452626406016982
17.457611999999997,3.9884518552343717,0.16371447198957856
17.462199999999996,4.1545767043808315,0.16281005154986283
17.466788000000008,4.315416891923811,0.16189717289945357
17.471372000000002,4.467541006235491,0.16114514380620817
17.475964000000005,4.612870100925316,0.16046161127494815
17.480556000000007,4.746907003755045,0.15996408659620914
17.485144000000005,4.874148886962918,0.15949791385679135
17.489736000000008,4.9917752624918466,0.15916809740879126
17.494320000000002,5.104239161131439,0.1587838460704935
17.498908,5.209741713986402,0.15838649163750362
17.503504000000007,5.313068604171893,0.15789644807033
17.508092000000005,5.413242353974747,0.1574065806585987
17.512680000000003,5.520933992052592,0.1567169599738535
17.517263999999997,5.629358738415312,0.15598354089112612
17.521864000000008,5.734307931701586,0.15532924339290083
17.52646800000001,5.84232198247324,0.15458728786485512
17.53104400000001,5.9495587835113914,0.15388238555712375
17.53564,6.048490206909311,0.15325411869195138
17.540228,6.146267586799552,0.15251823977401863
17.54482800000001,6.23063149324059,0.1519927332880485
17.549416000000008,6.310654313974427,0.15143800223907108
17.554016000000004,6.384947875696827,0.15091353342200062
17.558611999999997,6.452490559246001,0.15043758086174874
17.563212000000007,6.517368841269119,0.14991099753388276
17.56780400000001,6.579993417357248,0.14935938176914307
17.572395999999998,6.640730841652827,0.14874914870385195
17.577004000000002,6.694961757203467,0.14815923886848373
17.58160000000001,6.745384467352116,0.14755386762359177
17.586200000000005,6.786113626556299,0.1470488109831315
17.590795999999997,6.8208691573207565,0.14658058841382277
17.595392000000004,6.851449928540783,0.14612246274947224
17.599987999999996,6.878100309644672,0.14565460474432151
17.60458,6.8907262937286315,0.1453786192302973
17.609172,6.9017536368969585,0.14507518437266878
17.613768000000007,6.912859023330802,0.14472431578221806
17.618352,6.925474767783023,0.14432679269067994
17.62294,6.935636578320591,0.14395419831475045
17.627536000000006,6.946986334182727,0.14359411211222195
17.63212800000001,6.955559743436401,0.14332181032039
17.636716000000007,6.970307009109465,0.1429722030763663
17.64130800000001,6.98726383926889,0.14261916876475778
17.645888,7.003609745857586,0.14230434397901892
17.65048,7.024985704989732,0.14194323307155776
17.655076000000008,7.046894544427089,0.14159608894506892
17.659664000000006,7.069047753292738,0.14123942906266143
17.664271999999997,7.09197821189189,0.14088189520710487
17.66886000000001,7.123247949948163,0.1404125933846638
17.673463999999996,7.155294937737937,0.13994369728463887
17.678060000000002,7.194537401108895,0.13938806949223068
17.682648,7.236355983108652,0.13881161569349584
17.687244000000007,7.279973434003702,0.1382232862304803
17.691832000000005,7.326044818813407,0.1376257051406905
17.696427999999997,7.378900983613227,0.1369225320788302
17.701003999999998,7.431512778984756,0.13624556790655046
17.705604000000008,7.482858585766202,0.1356054875976794
17.710192000000006,7.5303622853287635,0.13502802082547796
17.714792000000003,7.5800314079290585,0.13441613380748027
17.719384000000005,7.633131942157171,0.13373752370262082
17.723979999999997,7.685699596080072,0.13304629531489617
17.728572,7.733237197459524,0.13240008309106158
17.733168000000006,7.7798312229427,0.13173419066091618
17.737764,7.828057791158398,0.1310198542124586
17.742356,7.871865230401374,0.13031921250662695
17.746944,7.913463105157989,0.1296241187460421
17.751540000000006,7.950275296799446,0.1289574438481614
17.756128000000004,7.9857773584021885,0.1282880447732251
17.760723999999996,8.01150782579495,0.12772151136654564
17.765308000000005,8.036050347863146,0.1271445184288133
17.76988800000001,8.05388613320674,0.12661802636729094
17.774479999999997,8.06681405072103,0.12612113651209117
17.77906800000001,8.073812481244223,0.12566951087775333
17.783659999999998,8.075903043938112,0.1252471063051677
17.788240000000002,8.076683476593287,0.12481903375244068
17.792832000000004,8.073455475866806,0.12440943388653347
17.797424000000007,8.070427703119988,0.12395150287584794
17.802012000000005,8.06735578892454,0.1234571867287315
17.80662000000001,8.060930506366795,0.12298526719861884
17.811208000000008,8.053972343503837,0.12250521294059602
17.815796000000006,8.05236664587814,0.12194240238098665
17.820392,8.051782567414236,0.12136390114471336
17.824979999999996,8.05095411952204,0.12079995627762419
17.829576000000003,8.049226237182197,0.12024515669841267
17.834168000000005,8.045743627395684,0.11974049669234682
17.838760000000008,8.04201664818088,0.11924753149616817
17.843339999999998,8.039111060148208,0.11878694759521596
17.847932,8.037637786868395,0.11833067269499013
17.85252,8.040539501112674,0.11784047041460693
17.85712000000001,8.04295247650037,0.11737589160684009
17.861716,8.04859663553622,0.11689857034391664
17.866315999999998,8.06017028156317,0.116387553727944
17.870908,8.07677398013357,0.11585052177090005
17.875500000000002,8.09840773124742,0.1152896509791298
17.880108000000007,8.116732255447598,0.11478298719555242
17.884704,8.139065213029431,0.11426567569823688
17.889308,8.163118996241044,0.11377941767483221
17.893900000000002,8.190037408958375,0.11330410543700743
17.898488,8.22006482060971,0.1128274125676336
17.903084000000007,8.246416451204942,0.11242277855481295
17.907672000000005,8.268192866296415,0.11209851885357393
17.912260000000003,8.292301030588394,0.11177294944893588
17.916848,8.317963694347378,0.11144909687302365
17.921440000000004,8.346324661449307,0.1111085678975893
17.926035999999996,8.381592593255496,0.11069517793491108
17.930628,8.421724251442363,0.11023568789042375
17.935224000000005,8.46606457099055,0.10972357198422787
17.93980400000001,8.511426509700529,0.10920547762122712
17.944388000000004,8.55870950201995,0.10867511518952784
17.948976000000002,8.606891928787018,0.10814090847666613
17.953564,8.658017028325322,0.10758358134191771
17.958160000000007,8.707587628396622,0.1070352197561477
17.962748000000005,8.756380978734418,0.10649373196330957
17.967336000000003,8.800144276528766,0.10597547132118489
17.97193200000001,8.85465664624626,0.10536382027233245
17.976520000000008,8.903117344258511,0.10478228549079585
17.981116,8.949490662498544,0.10419501494192245
17.985704,8.99046737405269,0.10364254201468485
17.990296,9.029112336406332,0.1030946005606058
17.99488000000001,9.068490407044846,0.10251358479649253
17.999480000000005,9.109378835701737,0.10190221913977948
18.004068000000004,9.15075600321521,0.10127464436353968
18.008668,9.190700855975823,0.10064756046354663
18.01325200000001,9.227703035965204,0.10005163975279188
18.017840000000007,9.261762543183348,0.09948984061642406
18.022428000000005,9.294678246525553,0.0989509058362832
18.027024,9.326694515420112,0.0984225027996569
18.031624000000008,9.356134665685872,0.09790742005161941
18.03622,9.38455319678984,0.0974071252780369
18.040812000000003,9.412971727893806,0.09690896091578184
18.045396,9.436648717331243,0.09644768477207384
18.049988,9.456361414835651,0.0960212827351146
18.054576,9.475296862606555,0.09559706571190875
18.059156,9.501061231816209,0.09515466691354904
18.063748000000004,9.51223442188383,0.0948272487918632
18.068344,9.529825837799134,0.09446412760269715
18.072924,9.549216122609732,0.09409448775100909
18.077516000000003,9.577312241019891,0.09366359201438948
18.082108000000005,9.607207228325345,0.09322680789881435
18.086692,9.640577768707244,0.09278104251671385
18.09128800000001,9.672682320499058,0.09235626441527472
18.095872,9.702743633967287,0.09195222946006391
18.10046,9.72961790523599,0.0915806271761725
18.105056000000005,9.75685873064713,0.09119570939498936
18.109652,9.77960238382003,0.09083152147318896
18.114256,9.80001428779242,0.09046739658869926
18.118836,9.819648942031312,0.09010490870166929
18.12344,9.838384161822551,0.08974699040120572
18.128024,9.854665447699144,0.08939239152753055
18.132624000000007,9.871435472432319,0.08902048679260834
18.137204,9.889349301041431,0.08863568904574039
18.141800000000003,9.91069454127836,0.08821189612238955
18.14639200000001,9.927542609277051,0.08780634147020988
18.150988,9.934863452494055,0.08742784060381457
18.15558,9.950235064291256,0.0869858409527195
18.160172000000003,9.96315274217381,0.08654774437794771
18.164756,9.972472682265769,0.08612488605800159
18.169352000000003,9.972798277881251,0.08573846113280159
18.173932000000008,9.969648320420289,0.0853613775872684
18.178516,9.965066048206467,0.08497862697810145
18.183108000000004,9.96223850343931,0.08456073759828214
18.187696000000003,9.95900026308109,0.08412754792965549
18.192276000000007,9.958416184617185,0.08365511796648097
18.19686,9.957177041133926,0.08317682384749552
18.201452000000003,9.959124939850188,0.08266991102123236
18.20604400000001,9.959273969671157,0.08216907752163416
18.210628,9.95762413059683,0.08167492294497877
18.215216,9.954541976769645,0.08117173460346613
18.219804,9.953503061266048,0.0806540197105047
18.224396,9.950665276867152,0.08014279114008223
18.228984,9.947538981591336,0.07961169660034005
18.23357200000001,9.944290501601374,0.07908675089983525
18.238160000000008,9.947582432173242,0.07853360695182567
18.242752,9.956393154145141,0.07795852947942082
18.247348,9.961606138326449,0.07739540673528937
18.251924,9.967718556955402,0.07683130866007921
18.256524,9.978450332536742,0.0762515297682662
18.261104000000003,9.99265766119453,0.0756652878589424
18.265704,10.011606531518847,0.07505986195804669
18.270296,10.03031103241487,0.07446645371695117
18.27489200000001,10.048526794454311,0.07389416040023973
18.279476000000003,10.071117544017849,0.07331846164895772
18.284068000000005,10.09526279304839,0.0727505875322889
18.288660000000007,10.123660844888875,0.07218438448580751
18.293251999999995,10.151692342586928,0.07163336806499201
18.297844,10.184998262256721,0.07107740850198535
18.302436,10.220225235535954,0.07051532542038096
18.307024,10.261503880520433,0.06995117426395216
18.311608000000007,10.29947329859124,0.06941606510386629
18.31620000000001,10.343083692776226,0.06886631685094097
18.320792,10.388659282019278,0.0683402275650022
18.325384,10.436033740157628,0.06781568297567277
18.32998000000001,10.48340819829598,0.06729731632004222
18.334576,10.532703710043771,0.06677674806019403
18.339164,10.585474774868008,0.06625671410854052
18.34375200000001,10.636324786082804,0.06574693896558627
18.348336000000003,10.685498113116452,0.06524139670325398
18.352924,10.737614112921333,0.06472768460157682
18.357520000000008,10.78768687440263,0.06423006483117272
18.362108000000006,10.833140278931538,0.06374421457109267
18.366696000000005,10.877816433726945,0.06325858877433482
18.371292,10.915952177960527,0.06279283953462815
18.37588000000001,10.952289053298811,0.06233278662557625
18.380476,10.984128756398858,0.061881859371446496
18.38505600000001,11.016335013641338,0.061420742510527336
18.389656,11.0394247416932,0.06097561930695629
18.394244,11.059816166402113,0.06053497698529467
18.398844,11.075832603586933,0.06009805635049175
18.403424,11.091560529894837,0.05964128370825783
18.408024,11.094207635079087,0.05921386961540413
18.412616,11.092601937453388,0.05878330299626798
18.417212000000006,11.082779145084713,0.058364281110388196
18.42180400000001,11.064861442687212,0.05795215444299197
18.4264,11.040525514442026,0.05754914956806215
18.431004,11.010792979510953,0.05714976996783668
18.435600000000008,10.98106044457988,0.05674912632451752
18.440196,10.943521510496897,0.05637176061015479
18.444792000000007,10.899197796423795,0.0560139073248353
18.449380000000005,10.845513183731775,0.0556717451689082
18.453968000000003,10.791828571039758,0.05532623133280585
18.458556,10.732502982233564,0.054989323704266076
18.46314,10.672155774265574,0.05465399031538292
18.467724000000004,10.60490160159332,0.054340020879261465
18.472316000000006,10.530984833645094,0.05403866057366119
18.47690800000001,10.45208215460205,0.05375278351870951
18.481496000000007,10.375755594187797,0.05346564372125615
18.48608800000001,10.298163045183465,0.0531879352196149
18.490684,10.217505638693751,0.05292054522649104
18.495268,10.13815836224275,0.05266522688066915
18.499864,10.066661626392289,0.05241104846260175
18.504452,9.995819955561185,0.05216178048097909
18.50904,9.929231087540026,0.05191562535396345
18.513636000000005,9.862808545681641,0.05169099576569898
18.518224000000004,9.793731841928945,0.05149402981577967
18.52281600000001,9.723144780157869,0.05131623971555668
18.527412,9.650514480063206,0.0511448481453753
18.532008000000005,9.580460298597343,0.05097452953578353
18.536592,9.513104420474422,0.0508009155004622
18.54119200000001,9.450123529875595,0.05062764633097911
18.545784,9.388574954029625,0.05046500691791013
18.550388,9.328214323508222,0.05032216548278152
18.554976,9.269652561882118,0.050176508416798285
18.559576000000007,9.213789103598955,0.0500282495337478
18.56416,9.16332225200168,0.049876376652468704
18.568756000000008,9.110445607938383,0.04974630109604013
18.573348,9.05822402889444,0.04962376907859966
18.57794,9.004614276546269,0.049518957292455604
18.582544,8.945774243674983,0.049442532291764575
18.587140000000005,8.883991538032463,0.049374681485559326
18.591736,8.816690040989908,0.049311343766957304
18.596332000000004,8.74758967505206,0.049245784234384714
18.600924000000006,8.670682909962299,0.04920491558627445
18.605508,8.59569719848198,0.049158142773943175
18.610096,8.521610921449309,0.04911168071429547
18.614692000000005,8.447769013844928,0.04905385964260754
18.619284000000007,8.36881901043158,0.04902136541650213
18.62387200000001,8.288969572570585,0.04898782908049632
18.628468,8.197593813052938,0.04898729969773934
18.633048,8.106340238249441,0.04897976445905939
18.637640000000005,8.010467306493558,0.04897769906564276
18.642224,7.9130398752706705,0.04896514912855433
18.646812,7.808827664057667,0.04897419274114042
18.65142,7.701672780073427,0.0489951617832722
18.656008,7.58965416970851,0.04903342807063784
18.6606,7.479800982381326,0.04905578286769421
18.665192000000005,7.363407384492317,0.04909144489194526
18.669784000000007,7.2436604182410065,0.04911665300152508
18.674384000000003,7.130942601408106,0.04910520106837735
18.67897600000001,7.0143826773563225,0.049106723347139815
18.683572,6.897700568590394,0.04911377356891597
18.688152,6.7741114951202,0.04915329059501609
18.692752,6.655508332744829,0.049167059657139765
18.69734,6.532285813417073,0.04918756293914477
18.701940000000008,6.406609360174666,0.049195838816116035
18.706524,6.279789103056319,0.04921576020381579
18.711128,6.154234834528057,0.0492167785646415
18.715720000000005,6.0276589468380015,0.04922401517006722
18.720316,5.906846219976269,0.04921356481141584
18.724900000000005,5.783090820343302,0.04921581408284528
18.729488000000003,5.6611342896056325,0.049218206614369646
18.734076,5.538033954992021,0.04923706274091093
18.738668000000004,5.417221228130289,0.04922100159029124
18.743256,5.299595543468084,0.049168276298222305
18.74784,5.1840130971294665,0.04909787133687098
18.752432,5.065732347447905,0.04902265117727397
18.757028000000005,4.94949483608993,0.04892778790700515
18.761628,4.831214086408369,0.04884852511768499
18.76622400000001,4.704349687841394,0.048801371216581554
18.770816,4.573887551483827,0.048758901957507615
18.775396,4.44366978455455,0.048689358380878324
18.779996,4.3161503209682195,0.04862992269886155
18.78458400000001,4.18184607739177,0.04861592725642357
18.789176,4.04754183381532,0.04860289364563265
18.793772000000004,3.9141370246865184,0.04858217301974528
18.798364000000007,3.7799549658242153,0.04854482182647459
18.80295600000001,3.6437296686383247,0.04853464238418423
18.807544000000007,3.505583317842993,0.04854615634006337
18.812148000000008,3.3712790742665435,0.048517072529763394
18.81673600000001,3.236075396242446,0.04848847098057287
18.821324000000004,3.097273980427757,0.04846137728590508
18.825928000000005,2.9596163684890073,0.04839960798916685
18.830520000000007,2.822125082713032,0.04844797491733991
18.835120000000003,2.6796478858422343,0.04856706435731017
18.839704,2.5353718200761413,0.04867543450439405
18.844304000000008,2.396614545710081,0.0487278793134656
