Time,Force,Position
12.14086,0.12710780944794736,0.0
12.145448000000002,0.1222440830672711,0.0
12.15004,0.12097809447718622,0.0
12.154628,0.12330984367769275,0.0
12.159208,0.1256415928781993,0.0
12.163804,0.12335398512632093,0.0
12.168396,0.1258079190409731,0.0
12.173000000000002,0.1295278415457102,0.0
12.177592,0.13745642541176706,0.0
12.182192,0.14076565232543894,0.0
12.186788,0.1480391711721393,0.0
12.191388,0.1473841061527828,0.0
12.19598,0.15224783253345905,0.0
12.200568,0.15968767754293323,0.0
12.205164,0.16647245753305087,0.0
12.209752000000002,0.16798281555142705,0.0
12.214352000000002,0.1705147927315968,0.0
12.21894,0.17292458519762088,0.0
12.223548,0.17112571630232515,0.0
12.22814,0.16307494772212264,0.0
12.232736,0.1540025599801266,0.0
12.23732,0.1444451897827701,0.0
12.241904000000002,0.13602786706013056,0.0
12.246508,0.12581167544219532,0.0
12.2511,0.11673928770019928,0.0
12.2557,0.11138682246294034,0.0
12.260296,0.10309168445444648,0.0
12.264880000000002,0.09491873116009827,0.0
12.269468,0.08625703900916742,0.0
12.274056000000002,0.07669966881181091,0.0
12.278656000000002,0.06509906029086736,0.0
12.283244,0.05656330925530436,0.0
12.287844,0.046228689324445654,0.0
12.292436,0.03499463494593909,0.0
12.297016,0.02658106862452176,0.0
12.3016,0.022786859255489365,0.0
12.306188,0.018992649886456967,0.0
12.310776,0.013277386907983194,0.0
12.315384000000002,0.010626981414889988,0.0
12.319968,0.010141998959529499,0.0
12.324572,0.009657016504169011,0.0
12.329164,0.009657016504169011,0.0
12.333768,0.008516969029452013,0.0
12.338360000000002,0.007376921554735017,0.0
12.34294,0.0061146893658723485,0.0
12.347532,0.003953022729361829,0.0
12.352112000000002,0.0029351599687905032,0.0
12.356712000000002,0.001795112494073506,0.0
12.361292,0.0,0.0
12.365892,0.0,0.0
12.370484,0.0,0.0
12.375084,0.0,0.0
12.379668,0.0,0.0
12.384264000000002,0.0,0.0
12.388856,0.0035364173873292555,0.0
12.393444,0.014811430292790948,0.0
12.398048,0.03170375712728051,0.0
12.402640000000002,0.0590771242714742,0.0
12.407228,0.09844188974374825,0.0
12.411816000000002,0.14751044579222422,0.011157457795027883
12.416408,0.20550554268340004,0.022049477943594478
12.420996,0.2789675909791019,0.031951081467886326
12.425584,0.36111181068921216,0.041875031388901744
12.430176,0.4548808745849658,0.05153570059456778
12.434772,0.5602747826663628,0.06099116829171408
12.43936,0.6781929693810509,0.07022963520865325
12.44396,0.8068365658337345,0.07938595776535767
12.448536,0.9482488103480007,0.08834654824422689
12.453128,1.0991204760101774,0.09735352681301528
12.457712,1.2662363428103822,0.10608138611627962
12.462292,1.4483304221585307,0.11465646632890347
12.46688,1.6438482145876192,0.12312865537019554
12.471476,1.8492700255725725,0.1315321866599962
12.476064,2.0626306600553206,0.1398692507888935
12.48066,2.2798608203433255,0.1481303596973655
12.48524,2.4943043943911305,0.15636485746525872
12.489844000000002,2.710081760662799,0.1644430094013978
12.494436,2.916976727540396,0.17256281278899685
12.499024,3.1182646201207036,0.1806526061943925
12.503604,3.3183984691933333,0.17748208535086024
12.508192,3.5135361675394017,0.1745894569030938
12.512772000000002,3.695993500721145,0.1727407593001288
12.517356,3.8758644756423513,0.17081006842211693
12.52194,4.050206419531785,0.16908572366234978
12.526532,4.214033421294626,0.167644815006434
12.531112,4.371309772863902,0.16637506478358866
12.535696000000002,4.523834343134909,0.16514356448388945
12.540276,4.670463328231708,0.164048604807772
12.544856,4.816793562819851,0.16278101321338034
12.54944,4.950154921366746,0.16180398288726872
12.554016,5.071036142728978,0.16099777706222185
12.558608,5.185855452754228,0.1602075442097061
12.563196,5.297233111519921,0.1594178426069993
12.567784,5.40341439157939,0.15869570140292993
12.572376000000002,5.50763047658079,0.1580072741806244
12.576964,5.612824039295355,0.15727172807261447
12.581544,5.713153875629243,0.1566919850595975
12.586148,5.816382243285738,0.15600264120400698
12.590748,5.914614460215674,0.1552979933319381
12.59534,6.003519680343582,0.15470147390764216
12.59992,6.093236052021882,0.15401126092706025
12.604516,6.1811874566217755,0.15324685961820209
12.609096,6.267540220306036,0.1524789859511863
12.613692,6.346653366960487,0.1517960007582654
12.618288,6.431197022117713,0.15093320232577587
12.622880000000002,6.513364786625805,0.15006839842202918
12.627464,6.590336172427674,0.14924312218481156
12.632056,6.6632549833992565,0.148434510165433
12.636644,6.72689093901744,0.14775951945057175
12.641228000000002,6.787129384824696,0.14708046920704101
12.64582,6.84769024332576,0.14634136310846854
12.650412,6.901133669511158,0.14567455791680278
12.655,6.949791412581399,0.14506042788743814
12.659584,6.999304448650658,0.14440035511728452
12.664172,7.045542159623135,0.1437390344455306
12.668752,7.0848287644427215,0.14316954975911794
12.67334,7.125870096708976,0.14254288088666064
12.677916,7.162169887308699,0.14199828371253834
12.682508,7.198758188785342,0.1414845387125284
12.687096,7.236900989728988,0.14096184546190788
12.691676,7.273000552349048,0.14048857183588553
12.696280000000002,7.307956311093169,0.14004292815532576
12.700856000000002,7.340335951208491,0.13963248563856567
12.705444,7.378356567437991,0.13914254011998478
12.710036,7.412657261162757,0.13871705959232652
12.714616,7.446180705154018,0.13830284882674404
12.71922,7.480725768307074,0.13787334956599454
12.723808000000002,7.513349777850688,0.13747661728432778
12.728404,7.550837513774978,0.1370112744269492
12.732992,7.5930667913658,0.1364852061882741
12.737596,7.636317688118414,0.13595169304867746
12.74218,7.678957661300299,0.135451941579205
12.746772,7.722619253643979,0.13494049246561338
12.751352,7.7644819770923625,0.1344559916156561
12.755936000000002,7.804179277503013,0.1340149799059606
12.760516,7.847840869846693,0.13351679982902287
12.7651,7.887538170257344,0.13308259608102535
12.769688,7.933609555067048,0.13254540299748716
12.774276,7.982090732342775,0.1319648546950155
12.778856,8.032082267636879,0.13134745478272652
12.783444,8.077043750387531,0.13076824659482184
12.788036000000002,8.123637775870709,0.1301437883973816
12.792616,8.165079564096288,0.1295616072546491
12.797208,8.202757288368502,0.12899463721599905
12.801796,8.234505525649618,0.12847296129751717
12.806384,8.262123144834934,0.12797977272489272
12.81098,8.287653384248033,0.12748383683985987
12.815568,8.30827575583183,0.12701398234888558
12.820156,8.31924871791979,0.12663036920955173
12.824748,8.320938824654352,0.12631304913891894
12.829324,8.316577259683667,0.12604540660209734
12.833928,8.314581345730382,0.12569311395789798
12.838504,8.309065737252022,0.12533414559574607
12.843104,8.299908249534443,0.124973724329826
12.847684,8.289685001206442,0.12459183350411523
12.852284,8.278273807553873,0.124196515258187
12.856868,8.266818472452677,0.12376523536128393
12.86146,8.24804547705615,0.12340741582266616
12.866052,8.225019678849678,0.12307758200188866
12.870644,8.198518327566758,0.12277268274390638
12.875232,8.174837464340929,0.12243616289122176
12.879832,8.148991178077369,0.12213323392212216
12.884424,8.127764248766193,0.12178289258722448
12.889024,8.106292950026724,0.12144379476859744
12.893612,8.088952269383055,0.12108253794647038
12.898196,8.072266653758748,0.12072456955445188
12.902784,8.05611391843965,0.12037650222056465
12.907376,8.04781172372109,0.11996936288495014
12.911968000000002,8.050058372946012,0.11948065696024834
12.91656,8.061710062238479,0.11893104298352779
12.921152,8.07569350073145,0.11837521830013953
12.92574,8.08755565763532,0.11789088786429441
12.930336,8.101016455454822,0.11743928822964343
12.934924,8.11991800140884,0.11697900201255447
12.939512,8.143605230478014,0.11650676051323802
12.944120000000002,8.16451611293873,0.11609971589796406
12.948708,8.187392190457512,0.11570871776662105
12.953304,8.210967474444281,0.11535654129214529
12.957892,8.237285203222623,0.11501956122673364
12.962488,8.26646756150668,0.1146904473273681
12.967084,8.298758918724745,0.11435982007469862
12.971672000000002,8.336569067342845,0.11398406228741124
12.976276,8.374912096266154,0.11362285975887085
12.980872000000002,8.414687439942323,0.1132684146875364
12.985464,8.456383837227934,0.11289796084573407
12.990044,8.50180015701828,0.11249720526696584
12.99464,8.548115911256275,0.11209186383027198
12.99922,8.592510611884828,0.11171173447424844
13.003816,8.632408140275142,0.11137127981502074
13.008408,8.67050679977016,0.11105022508757628
13.013000000000002,8.712569751198208,0.11069052734467302
13.017592,8.758841363987575,0.11028099814502512
13.022184,8.809443822852408,0.10981883664220388
13.026788,8.857958901945025,0.10935334479178638
13.031384,8.903120612675343,0.10890573138074372
13.035976000000002,8.951713735033476,0.10840909639955267
13.040568,8.99809729290525,0.10791075373629966
13.045156,9.044558894042542,0.10737359584052707
13.04974,9.088933115407619,0.10683052125238049
13.054324,9.13404044505757,0.10625946394097352
13.058916,9.17910363325889,0.10566480176185127
13.0635,9.221590702831415,0.10509015288366755
13.068080000000002,9.266365380155818,0.10449007511366482
13.072672,9.312406046070304,0.10387465724682489
13.077256000000002,9.354438278603133,0.10326885326332538
13.081836,9.392750588631229,0.10269286203364407
13.086432000000002,9.431307268087613,0.10210974449305582
13.09102,9.47071924054302,0.10149615018736634
13.095608,9.505756225474325,0.10090241063374603
13.1002,9.533475550110309,0.10035460814519079
13.104788,9.555553898632112,0.09985052534979295
13.109392,9.574034509363322,0.09937043346238433
13.113968,9.585075275085062,0.09894259361216234
13.118568,9.594072802483215,0.09853565592171176
13.123148,9.604091949043157,0.09811992356995486
13.127748,9.612067857279515,0.09772562515199584
13.13234,9.621720449697023,0.09732749820817434
13.136936,9.634193530171618,0.09691157335387368
13.141524,9.64564499148442,0.0965057247172418
13.14612,9.654031595311846,0.09612999967472885
13.150712,9.658576091920384,0.09578429437000241
13.155296,9.657601797128892,0.09547048053362196
13.159888,9.65098652622322,0.09519419961815606
13.16448,9.637953029469866,0.09495365770270062
13.169060000000002,9.627129097202875,0.0947192752366567
13.173652,9.617815522954261,0.09445540900034488
13.178232,9.608624133419791,0.0941869003632312
13.182816,9.594202463362208,0.09396880417400817
13.187408,9.58632120386645,0.09371085054304858
13.191996,9.586368528236752,0.09338939249074789
13.196592,9.590624513968374,0.09302718795139903
13.201168,9.59410324996649,0.09266445661740397
13.205748,9.599503039574053,0.09228762618450104
13.21036,9.606946067505199,0.09189345832858857
13.214948,9.613734030416989,0.09149482078379391
13.219548,9.62076636275707,0.09108712112465436
13.224132,9.632251725886764,0.09063372496392544
13.22872,9.641038785673512,0.0901933677320816
13.233316,9.65211345321214,0.08972728180171737
13.237916000000002,9.665842282645086,0.08922152369258891
13.242516000000002,9.67728350432615,0.0887410824210981
13.247096,9.695509505997332,0.0882164491597165
13.251688,9.720642472372777,0.08764607813313048
13.256276,9.7514164148624,0.08704492853982736
13.260872,9.780758042599166,0.08643820052026077
13.265456,9.811654169802939,0.08583788145069547
13.270056,9.842672481720854,0.08523660614492509
13.274640000000002,9.877777270285943,0.08460331232984544
13.279232,9.91042812493638,0.08397567353228769
13.283824,9.938093068491996,0.08338608060909583
13.28842,9.967556880942908,0.08279667107558453
13.293008,9.998819562289114,0.08220308084260788
13.2976,10.029182809187672,0.08161244250922342
13.302188,10.05954605608623,0.08102516935266205
13.30678,10.091585987165939,0.08044002723282193
13.311372,10.124525352693297,0.07985471945007956
13.31596,10.148392330478659,0.07933494421239248
13.320552,10.17700084993055,0.07879569889435353
13.325136,10.206264434401795,0.07826664718862458
13.329724,10.235938714464108,0.07775708185901664
13.3343,10.270843275049536,0.07720852003068487
13.338892,10.307546704530255,0.0766623910196666
13.34348,10.336443734859063,0.07616176352154853
13.348056,10.366362384349667,0.07565884117350616
13.352652,10.40408743299218,0.07512127547905871
13.357244,10.439891428025252,0.07459567573106361
13.361832,10.477616476667768,0.07406610255585479
13.366436,10.516118775043784,0.07354252375615918
13.371036,10.557075007334454,0.07302513960136285
13.37564,10.603139335434092,0.07247916441320862
13.380232,10.646138806048347,0.07195726529255923
13.384836,10.689138276662604,0.0714386667580921
13.389416,10.740721396162272,0.07089135048756401
13.394012,10.790505646766645,0.07035042443890167
13.398592,10.838613213189868,0.06981290347558239
13.403196,10.884144660984292,0.06927885113184237
13.407788,10.936583073482984,0.0687133455309222
13.412384,10.984402129029286,0.06816562095364212
13.416968,11.030666685108587,0.06761704954645742
13.42156,11.075376741720882,0.06706747342600244
13.426168,11.120208983047327,0.06651930141258765
13.43076,11.154780891307205,0.06600189963036815
13.435356,11.191518222604817,0.06546922307902316
13.439948,11.223880566378336,0.06494280053589392
13.444536,11.246393272676356,0.06446224803668787
13.449128000000002,11.271315771440399,0.06396181686655843
13.45372,11.289697859642615,0.06347967288312772
13.458308,11.306525448377828,0.06299441693002916
13.462892,11.318200799855447,0.06250994918520149
13.467492,11.323335740771238,0.062042352119746784
13.472072,11.320497956372343,0.06157905404581426
13.47666,11.315572792201236,0.0610997192338005
13.481252,11.301286729411212,0.06064440659495199
13.485832000000002,11.288511024639561,0.0601683723708073
13.490416,11.27393645097262,0.05969359358728522
13.495012,11.262426734791056,0.05920415786879962
13.499588,11.243599358314162,0.05872492193339203
13.504176,11.225016351265559,0.058237061790614796
13.508772,11.203490671445726,0.05775800130762369
13.513364,11.176979080531066,0.05729609927062668
13.51796,11.142783275178644,0.056853508836875656
13.522536,11.110386338721517,0.05640555369781658
13.527136,11.0751689142073,0.055961081490509115
13.531724,11.039584935550646,0.05552610874579734
13.536328,11.005389130198227,0.05507242301117426
13.540912,10.966862478770338,0.054643573985668485
13.545512,10.929235261790097,0.054210944350854176
13.550104,10.889442621772124,0.05378944584499166
13.554696,10.848261808449921,0.05338085606173065
13.559288,10.809534929042368,0.052976113737403366
13.563884000000002,10.77775915578771,0.05257240083560769
13.568476,10.743617731515654,0.052214430959354345
13.573068,10.709231937815307,0.05186199324130737
13.577656,10.666184451964027,0.0515575009046104
13.582252,10.623792031132107,0.05125865810000621
13.58684,10.578745448405869,0.050986962049655485
13.591436000000002,10.53680786461364,0.05072771447021092
13.596012000000002,10.491072315051158,0.05050340186656057
13.600612000000002,10.442804788308504,0.05030176848040569
13.605204,10.397890629928153,0.05010564049194308
13.60978,10.358006524091248,0.04991861898687161
13.614376,10.317755864111911,0.049741962304899086
13.618964000000002,10.277016465275988,0.04957975460953347
13.623540000000002,10.23309002424054,0.049433131881323714
13.628136,10.190107159101366,0.049313787846132724
13.63272,10.14418162119096,0.0492018801479414
13.637308,10.098544594157472,0.049109370311229535
13.641904,10.050742144086252,0.049028323034180726
13.6465,10.004372008767891,0.048958720286331706
13.651108,9.955714265697653,0.0489052285556488
13.6557,9.90423603457032,0.0488550693029106
13.660292000000002,9.853246542299575,0.04878763322965389
13.664872,9.799314377257591,0.04872758478725664
13.669472,9.756009099424611,0.04864038153393753
13.674056,9.70759572578266,0.04857394394424334
13.67866,9.649454899379359,0.048534056196555944
13.683252,9.587471965757175,0.048502448837629136
13.687852,9.523812347953841,0.048466513294437644
13.692444000000002,9.462440337902384,0.04841169668379225
13.697036,9.397470590060339,0.04835614027597761
13.701616,9.326204801084755,0.04829978186288787
13.706208,9.255838446556819,0.04824234240708955
13.710796000000002,9.18534990731474,0.04818872251179803
13.715392,9.114206303053303,0.04812450421116528
13.71998,9.033168919867741,0.04805959418822989
13.724568,8.947512179729792,0.047998031226775956
13.729152,8.856336648191812,0.04794115189931501
13.733752,8.758620706092005,0.047893262003869425
13.738336,8.652687669249222,0.04785037320165913
13.742928,8.541358025720552,0.04780698977915092
13.747520000000002,8.427085709420647,0.04777211191001081
13.7521,8.308438405596648,0.047727823560058065
13.756692,8.188769482610857,0.047687312528623085
13.761284,8.054875934625473,0.04767622016310399
13.765868,7.919305702458939,0.047660222834046514
13.77048,7.791664054158461,0.04761269119035523
13.775068,7.662223536962688,0.04756432129961463
13.779672,7.53008471642397,0.04751483641585807
13.78426,7.388995692857403,0.04750630307177352
13.788848000000002,7.246107800395541,0.047495188564331055
13.793444,7.101054484895945,0.047503312352992065
13.798044,6.953425050767552,0.047501273970350186
13.802648,6.8052627363339475,0.04747613969983914
13.80724,6.654812814148466,0.04747579219852749
13.811832,6.5079606297535735,0.04747543908288722
13.81642,6.363562379273336,0.04749150580056139
13.82102,6.22018574795489,0.04750242052496248
13.825596,6.085148396093565,0.04749986564827293
13.830196,5.95665145479407,0.047483226702304246
13.83478,5.830852816837515,0.04746620093706593
13.839372,5.702111506109728,0.047466569415435735
13.843952000000002,5.573536521544713,0.0475130662042658
13.848544,5.445860971427347,0.04756049878518322
13.853148,5.329589558252483,0.047567467385991054
13.85774,5.214217579525266,0.047574463898490606
13.862328000000002,5.095003493579167,0.04759408404584893
