Time,Force,Position
12.812984,0.10795731816320417,0.0
12.817588,0.10275197099627933,0.0
12.82218,0.10061148131473505,0.0
12.826776,0.09552831886195587,0.0
12.831368,0.0932656444662659,0.0
12.835964,0.08638361311819101,0.0
12.840556,0.080401016217764,0.0
12.845147999999998,0.07429623460319129,0.0
12.849723999999998,0.06549314964567504,0.0
12.854316,0.057853076656537696,0.0
12.858896,0.047759069752748136,0.0
12.863484,0.035602616432931826,0.0
12.868076,0.025367216722556877,0.0
12.872652,0.016031251459829785,0.0
12.877247999999998,0.007961274787187557,0.0
12.881832,0.0016901670098410301,0.0
12.886423999999998,0.002100862600906195,0.0
12.891016,0.007638862093378692,0.0
12.895592,0.01587516492879474,0.0
12.900192,0.028975194144887063,0.0
12.904784,0.042852473094481563,0.0
12.909368,0.05979460952945663,0.0
12.913964,0.07763618041207955,0.0
12.918551999999998,0.09559993600884814,0.0
12.923148,0.11536256050091244,0.0
12.927724,0.13602461944062458,0.0
12.932324,0.15590942864683455,0.0
12.936912,0.1718299459200161,0.0
12.941516,0.18660665931725848,0.0
12.9461,0.20124197990791542,0.0
12.9507,0.21677673494622024,0.0
12.955292,0.2308983833241061,0.0
12.959879999999998,0.24591946614963978,0.0
12.964468,0.261962168136967,0.0
12.969064,0.2762060012289985,0.0
12.973652,0.2905720190351757,0.0
12.978244,0.30516319817720455,0.0
12.982836,0.3148906509385571,0.0
12.98742,0.3170560739762898,0.0
12.992007999999998,0.31051566341446346,0.0
12.9966,0.3043418069950741,0.0
13.001196,0.2931820394808629,0.0
13.00578,0.2812450222331495,0.0
13.010372,0.26714258194770335,0.0
13.01496,0.24944240387166589,0.0
13.019552,0.23006554161447834,0.0
13.024148,0.21018073240826834,0.0
13.028736,0.19426021513508684,0.0
13.033328,0.1811352525628061,0.0
13.037916,0.16711085554287747,0.0
13.042504,0.15131252298384157,0.0
13.0471,0.13719087460595575,0.0
13.05168,0.12216979178042202,0.0
13.056283999999998,0.1061270897930948,0.0
13.060876,0.09263557307837704,0.0
13.06548,0.08106510997310064,0.0
13.070068,0.06477803855748208,0.0
13.074660000000002,0.05153089127105565,0.0
13.07924,0.04609014313654039,0.0
13.083832,0.044613686935053555,0.0
13.088428,0.043015046019421035,0.0
13.093028,0.044236893160877755,0.0
13.09762,0.04341550197874742,0.0
13.102211999999998,0.047457837177293356,0.0
13.10682,0.055264236329204526,0.0
13.111415999999998,0.0685555250642591,0.0
13.116015999999998,0.09417983291364258,0.0
13.120612,0.1313848435000413,0.0
13.125208,0.17484302494238463,0.006577303995733233
13.129804,0.23274653862746053,0.013224457163935357
13.134388,0.30212777842784566,0.02011988430123293
13.138976,0.38145717823272407,0.02721655566343736
13.143564,0.47138980306145234,0.034480810331682966
13.148164,0.5711484031805282,0.0418952557805099
13.152748,0.6801028469267837,0.04940815738970049
13.15734,0.7960627779062974,0.05704249695138492
13.161928,0.9288529002383795,0.06451754842749621
13.166508,1.0689178125881997,0.0720583192679416
13.1711,1.2162325815995696,0.07962602966818537
13.175688,1.371452272291846,0.08732660617470071
13.180276,1.5329002004838783,0.09516003613100203
13.184872,1.704296288680404,0.10300324921475312
13.18946,1.890259893833808,0.11080378088483854
13.194056,2.083228986220471,0.118652668430951
13.198652,2.282870913514845,0.12652660310133093
13.203248,2.484355851153143,0.1344282833428804
13.207844,2.673615260666808,0.1425256994973501
13.212432,2.857922660902541,0.15056597464893465
13.217036,3.0397658875918823,0.15195826203628077
13.221623999999998,3.2089287491168976,0.1533973395660181
13.226223999999998,3.375549393830004,0.15451510076282046
13.230808,3.5395056370170566,0.15538397469994308
13.235408,3.6988322836199856,0.15603582775704464
13.239996,3.8545509528005844,0.15646874993603832
13.244596,4.003841156501763,0.15679382243544285
13.24918,4.149934078371677,0.15696421828034782
13.253772,4.283757330668328,0.157375868258811
13.258364,4.415038366153071,0.15767049690046442
13.262956,4.542999935092405,0.15787953936393556
13.267556,4.6699296452382075,0.15789032653969415
13.272148,4.79546094244804,0.15774075155376996
13.276736,4.914808143606745,0.15754079515247008
13.281327999999998,5.0262945645331705,0.15733515386504393
13.285916,5.131474704694324,0.1570761110043697
13.290504,5.234723551614297,0.15670747835058263
13.295092,5.334408562560568,0.15629594009485814
13.299675999999998,5.442344570066704,0.15558359851013612
13.304272,5.541730830504317,0.15496476878813015
13.308848,5.636042896949851,0.15439134839004254
13.313444,5.730833462620228,0.15360910709775394
13.318032,5.812899521677652,0.15292387879551717
13.32262,5.88481719275092,0.15229124861724105
13.327216,5.948429486183954,0.1517247584440726
13.331803999999998,6.005046532015469,0.15123263130716977
13.336392,6.061863805826647,0.15068489243578886
13.340984,6.110131332569304,0.15021254247351293
13.345584,6.159576565004787,0.14959905050139888
13.350176,6.2002276809434544,0.14908190590733467
13.354768,6.23478298372825,0.14861791062806165
13.35936,6.266062961416264,0.14815534613330678
13.363948,6.294967048455142,0.14767444200734092
13.368548,6.324359874350604,0.14717127337082483
13.373136,6.353874884960211,0.14667160818660316
13.377728,6.383223569407042,0.1461425162156823
13.382324,6.406154028006193,0.14572513408096816
13.386924,6.431127724928929,0.1452721182609569
13.391507999999998,6.453036564366288,0.14489452433296532
13.3961,6.4807527060805965,0.14445920415034977
13.4007,6.510966923158188,0.14404750076054362
13.405296,6.542457368457601,0.1437413326300429
13.409896,6.586217483330278,0.14333032087278658
13.414492,6.6366062916620345,0.1429021874144462
13.41908,6.694112532309456,0.14242738670717453
13.423676,6.758203324967332,0.14190012343290243
13.428264,6.817841086835597,0.14147996007112207
13.432852,6.887905507933201,0.1409438566339885
13.437428,6.958258439907723,0.14044640843644637
13.442024,7.0310653057969,0.13992091040330143
13.446616,7.107469909476666,0.139357122367478
13.451208,7.183263589585703,0.13884422639946348
13.455808,7.26020107357068,0.13832171375956442
13.460396,7.32982089726033,0.13790125595076605
13.464987999999998,7.392489614797087,0.13755863108717914
13.469572,7.453603832866841,0.1372307280025813
13.474163999999998,7.517250028116763,0.13683980733797702
13.478756,7.576110540251527,0.13648657623217783
13.483344,7.634271845918306,0.13610182201128873
13.487932,7.6880140226123626,0.13572841191060186
13.492528,7.738236504781345,0.13535311042330464
13.497115999999998,7.7901695729483675,0.1348886214622754
13.501712,7.830243667133194,0.13453187353666257
13.5063,7.868308424811323,0.13413290874410222
13.510896,7.901543357925665,0.13372805930116194
13.515484,7.927905228152634,0.1333496319511184
13.520084,7.957898737987083,0.13285369423069643
13.524664,7.978443066305361,0.13240701705329366
13.529264,7.9948126350792075,0.13195374181789077
13.53386,8.015835462622329,0.13137317574009
13.538456,8.027697619526197,0.13085570872101673
13.543048,8.033952702132778,0.13032818371642244
13.547643999999998,8.034400482462406,0.1298412518614044
13.552232,8.036969544381138,0.12927885943327722
13.556828,8.039738834279532,0.12866406427924307
13.561416,8.038866244938708,0.12804940615733376
13.566012,8.033985222216227,0.1274552695515742
13.570592,8.02869350390268,0.12684395068393856
13.57518,8.01686137502731,0.12630809762154346
13.579768,8.006417419456167,0.12573682547388457
13.58436,7.998138886922757,0.12512852008539327
13.588956,7.983442128541668,0.12458851952950283
13.593544,7.975041411294113,0.12398591546347418
13.598144,7.964353086294681,0.12342654247999345
13.602723999999998,7.95305383772452,0.12289827248874322
13.607304,7.9440863383548646,0.122363071626571
13.6119,7.931320873214955,0.12191133827557768
13.616488,7.921175668152471,0.12147608245023045
13.621084,7.914672342329207,0.12104400930908761
13.625671999999998,7.903760127164962,0.12072701514747629
13.63026,7.901475702334757,0.12034674827687832
13.634864,7.902344417887188,0.11999439976728428
13.639456,7.904401078764186,0.1196569231231062
13.644047999999998,7.909977434166259,0.1193312105990432
13.648628,7.921893972150495,0.11898722594236011
13.653228,7.941050127164543,0.11861868844459547
13.657816,7.9640925308461,0.11824382476119015
13.662408,7.9937194865381125,0.11784390895634159
13.666996,8.03017536366887,0.11740214694064277
13.671596,8.07105036977235,0.11697109122642317
13.676192,8.11413494036219,0.11654845602776812
13.680784,8.161760824638897,0.11612511306980983
13.685364,8.212984446706198,0.11568229518203828
13.68996,8.269360306031093,0.11521394157073396
13.694548,8.333708890670673,0.11469641204455795
13.699144,8.398590355615463,0.11419436123207383
13.703732,8.466292308617344,0.1136671390291851
13.708327999999998,8.536814749676312,0.11311944405887908
13.712916,8.606804310430071,0.11256843700045559
13.717496,8.676383175592765,0.11200213328714528
13.722092,8.746084225469604,0.11144175761749947
13.726684,8.819993936707764,0.11083378947434824
13.731279999999998,8.89786793987895,0.11018915747481674
13.735868,8.973532378563778,0.10954855583325204
13.740468,9.046087818314595,0.10892024727729203
13.745048,9.11643369357905,0.10830067544949837
13.749628,9.184570004357147,0.10768277138289205
13.754236,9.246899012858291,0.10709527820834472
13.758828,9.307018456873074,0.10651051919718729
13.763428,9.362474402486843,0.10593572090240108
13.76802,9.414821349166603,0.10536838292292439
13.772624,9.46646908937838,0.10477007810522926
13.77722,9.510144104275472,0.10422148131894153
13.781807999999998,9.546990197733818,0.1037040202661139
13.786412,9.57635230473406,0.10321552074127942
13.791,9.604526466409736,0.10271420222485947
13.795596,9.634210986103788,0.10218679058314109
13.800183999999998,9.659109822682682,0.10166760378669276
13.804783999999998,9.682576344508718,0.10114635824554426
13.809376,9.710251527696071,0.10058418164668492
13.813968,9.732652288911684,0.10004934601899633
13.818552,9.750267367012139,0.0995229700384029
13.823148,9.760809154245555,0.09903090883043036
13.82774,9.77081806117376,0.09853025671425479
13.832335999999998,9.77992753365432,0.098035687838109
13.836916,9.784662018610785,0.09756069625263217
13.841511999999998,9.791439741890837,0.09706858912416898
13.846111999999998,9.801937387675626,0.09655678387373506
13.8507,9.80973673011747,0.09605864540673352
13.855292,9.819334941454612,0.09555377942669732
13.85988,9.831631456134694,0.095038657615965
13.864468,9.844460851119988,0.09453658282318878
13.869063999999998,9.86101016861002,0.09401309288239217
13.873644,9.881401593318934,0.09346378039746192
13.878228,9.9016708333137,0.09291990622339132
13.882815999999998,9.921817888594328,0.0923822794926177
13.887391999999998,9.93914445581786,0.09186486388599929
13.891976,9.958924956956047,0.09134596947710867
13.896572,9.975640600608852,0.09085286801012069
13.901156,9.984794214538038,0.09040647458777348
13.905744,9.995746697362517,0.0899522931138923
13.910336,10.008009310225711,0.08951065155444361
13.914924,10.026035083917229,0.08903268189347387
13.919528,10.044060857608748,0.08855643129273941
13.924119999999998,10.06143156628091,0.08807540440917336
13.928724,10.080723328562513,0.08758298862921432
13.9333,10.098094037234677,0.08710503440483922
13.9379,10.106103847287923,0.08667661611782021
13.942488,10.117056330112407,0.08622891870433305
13.947088,10.125310509593945,0.0857930127957033
13.951667999999998,10.12726864794195,0.08538133139617508
13.956268,10.125751233213508,0.08497894539504992
13.96086,10.123456568751564,0.08457606129319283
13.965452,10.119240850680177,0.08418466359473069
13.970044,10.118745055113527,0.08377696481343654
13.974636,10.117594194527522,0.08336339310169989
13.979228,10.113745030598574,0.082958510701733
13.98382,10.108341367202621,0.08255097103286187
13.988408,10.107801430187347,0.08211450621927162
13.993,10.109060362067364,0.0816700538803696
13.997588,10.109786413642173,0.08121517411527063
14.00218,10.107036912140536,0.08076728161165722
14.006768,10.10122255315352,0.08034256369415735
14.011347999999998,10.096429813328294,0.07991117486717793
14.01594,10.090737639055423,0.07948184569160037
14.020528,10.084023845620756,0.07905971267255553
14.02512,10.076288433024295,0.07864464310589542
14.029716,10.075215615703808,0.07819543396966014
14.034299999999998,10.072343929488023,0.07775214035092655
14.038899999999998,10.069716612700528,0.07729955835247625
14.043488,10.07260808731307,0.07682667093286451
14.048096,10.077298430820903,0.07634852668271522
14.052688,10.081744404900448,0.07588014204746318
14.057275999999998,10.08619037897999,0.07541166524752589
14.061872,10.082829953907623,0.07498488099808465
14.066468,10.081268397730552,0.07455374712575455
14.071072,10.085347817667659,0.07410015670869166
14.07566,10.092125540947707,0.07364096288477329
14.080264,10.09800382978011,0.07318628121205795
14.084844,10.1059253569361,0.07271834105098345
14.089444,10.116178633292595,0.07225856335002422
14.094032,10.130929081887333,0.0717887607381786
14.098631999999998,10.146578964929715,0.07131738048483276
14.10322,10.161740109115517,0.0708656102884815
14.10782,10.183197294434848,0.07040263226681893
14.112412,10.205431729487689,0.06994290692529503
14.117007999999998,10.230608837311761,0.06947070637211428
14.121596,10.254764325974042,0.06900692141851297
14.126188,10.283294802160414,0.06854139075466008
14.130788,10.312358158652,0.06808838685516524
14.13538,10.340399895981792,0.06764459114072292
14.13996,10.367297829435643,0.06721191195169042
14.144544,10.395217382051289,0.06677519133031871
14.149131999999998,10.427756291619321,0.06632926143979001
14.153728,10.47038920809114,0.06583165261386992
14.158316,10.513677189582316,0.06534465161379872
14.162907999999998,10.553778128873965,0.06488252592417508
14.167504,10.590936395394381,0.06443561660926116
14.172092,10.628094661914798,0.06399192676644612
14.176683999999998,10.668850666225804,0.06354689457692038
14.181272,10.708951605517456,0.06309831843748896
14.185864,10.74725367591381,0.06265514779090185
14.190448,10.789520038243193,0.06219875822128111
14.195035999999998,10.830231901105572,0.06173833043168465
14.199624,10.865180603139628,0.06130037558842881
14.204216,10.902172543497269,0.06085477984901103
14.208804,10.93724343024547,0.06041815259021838
14.213408,10.973868816460675,0.05998961549943076
14.218,11.002032738504612,0.059582933518081735
14.222592,11.028275606939106,0.059182500970792785
14.22718,11.054640660087749,0.05878035500053146
14.23178,11.08431494015006,0.058357675086247646
14.23636,11.112068166602935,0.05794206094691991
14.240948,11.133158797779833,0.05754576496340972
14.245548,11.146198660376529,0.05718532470687631
14.250148,11.157561838792079,0.056823882411320706
14.254728,11.170968255531212,0.05645447689543062
14.259324,11.186417910593935,0.056076821944836375
14.263912,11.200601577066571,0.05571256957301754
14.268508,11.20992151715853,0.05536469603219894
14.273104,11.213600481136313,0.05502767388682485
14.2777,11.21740162982824,0.05468736573908346
14.28228,11.216339052139492,0.05436251018616371
14.286872,11.215032105022452,0.054045012307826774
14.29146,11.211926289010117,0.053727647785782325
14.296052,11.204733996350607,0.053427569242876734
14.300648,11.193577411758069,0.053139808360483216
14.305236,11.174980982156058,0.052862186542262324
14.309828,11.158427790877633,0.052574083093426004
14.314419999999998,11.141874599599207,0.05228490685862076
14.319012,11.119313878064167,0.05201620080582975
14.3236,11.08768076878713,0.051780184988991056
14.328176,11.054248790614796,0.051543397212062414
14.332788,11.020816812442463,0.051304935531223436
14.337376,10.985341595946544,0.05107302379054504
14.341964,10.943981033908155,0.05085682094989984
14.34656,10.893137388536703,0.05065727366309929
14.351147999999998,10.835264593746844,0.05048145866181765
14.355744,10.77162863812866,0.05031762287794211
14.360332,10.704394944719885,0.05015258343259424
14.364936,10.63859356606397,0.04999700062375534
14.369516,10.566540287723145,0.04986896189508298
14.37412,10.487702229392205,0.04975654585019464
14.378699999999998,10.403223194947088,0.04965148539491712
14.383299999999998,10.315679303016589,0.04955763394556894
14.387888,10.225314923028998,0.0494668861054485
14.392484,10.130086816660732,0.04938831313905156
14.397075999999998,10.036002514168405,0.0492988908013655
14.401672,9.941551657533642,0.04921990719310482
14.40626,9.844035943413497,0.049152540337659326
14.410856,9.745376425417415,0.049093429468322736
14.415451999999998,9.652235698821366,0.04902845788282999
14.420048,9.556807364473437,0.04897923901453703
14.424636,9.462933529592515,0.048936794860722374
14.429224,9.369836944445092,0.048898000140632704
14.433812,9.27866141290711,0.04885296493927348
14.438392,9.190184184712074,0.04880637567697582
14.44298,9.098886468459947,0.048764487986265107
14.447572,9.00758875220782,0.04872219732637433
14.452168,8.914902862651463,0.04869753836217512
14.456748,8.821195353933314,0.04867709715787446
14.46134,8.725688976319866,0.04865766650987649
14.465927999999998,8.631082033154069,0.048637988150568925
14.470508,8.539173393331213,0.04861686162258734
14.475116,8.449307991831946,0.04858436286611029
14.4797,8.353679429504355,0.048567731911915914
14.484296,8.265735081614528,0.04852867100163927
14.488892,8.177424179582264,0.04850318869007456
14.493476,8.085393355045264,0.048482360226288226
14.498079999999998,7.988620988841733,0.048473549822502904
14.502672,7.893114611228288,0.04844767900851765
14.507264,7.791312192481307,0.04842055936304915
14.51184,7.688732524000824,0.04838687837940687
14.516431999999998,7.576791956901425,0.04837101164902949
14.521012,7.459332598401994,0.04836199754782346
14.525612,7.335987894360093,0.04837702024783541
14.5302,7.206880029489868,0.04841230916953548
14.534792,7.08149208712438,0.04844302371539055
14.539388,6.953528026130093,0.04846745605947136
14.543972,6.82070023875513,0.048519169748961054
14.548556,6.682231475265987,0.0485894731213738
14.553148,6.542863277329198,0.04866538326430158
14.557724,6.399775156887672,0.04875387378468237
14.562316,6.251046060331968,0.048861260187918226
14.566896,6.095532183786147,0.0490043547608615
14.571488,5.944104783887499,0.049120802118627904
14.576072,5.782294866208143,0.04927210956381438
14.580656,5.615088341842899,0.049431489288301766
14.585248,5.448126186905947,0.04957410115412615
14.589832,5.28435107416852,0.04968671499506159
14.594408,5.114812800602769,0.04983110520266097
14.599008,4.942331854265783,0.050003777472695306
14.6036,4.765109366262266,0.05020789154190626
14.608184,4.588131247687042,0.05041298930084162
14.61278,4.415239605758992,0.050573774741476625
14.617376,4.24181508352573,0.0507176281428809
14.621972,4.070311614901911,0.05087536112826382
14.62656,3.8953325932016445,0.05102848129015827
14.631152,3.7193319523395854,0.05120524673031526
14.635739999999998,3.549705395876578,0.05127459552302989
14.640339999999998,3.3822442624513043,0.05131383730048268
14.64492,3.215804748187824,0.051353024525922
14.64952,3.0561500139144613,0.05130896061725872
14.654112,2.8964952796410977,0.05128918958426504
14.658704,2.7435031406437074,0.05122039164646284
14.663291999999998,2.59206550111332,0.051172664978340374
14.667884,2.4470460874306137,0.05111426742326094
14.67248,2.307667649862086,0.050981886734618065
14.677072,2.1670232237034734,0.050914023844134584
14.68166,2.028055481726011,0.050825897992381935
14.686248,1.891786043091492,0.04826994029420607
14.690832,1.76091321114286,0.045691655236761636
14.695424,1.6345375514324676,0.04308814062611359
14.700012,1.5193216592362861,0.040470599067040314
14.704588,1.405538081792964,0.03789027211593286
14.70918,1.3006266641119741,0.035312429991462384
14.71376,1.2032772761546042,0.032705197303228024
14.718352,1.1110801254548301,0.03010179021698366
14.722943999999998,1.0248124617461536,0.027480748735639052
14.727524,0.9389554936285428,0.02493436001234196
14.732124,0.8573513283208797,0.022399251738748002
14.736708,0.785108061632132,0.01985275363471598
14.741288,0.7150743594297452,0.017376397883738195
14.74588,0.6572220439033631,0.014862033261547364
