Time,Force,Position
14.693267999999996,0.03438865778232742,0.0
14.697856000000002,0.047223789668759716,0.0
14.702455999999998,0.05903730239339849,0.0
14.707035999999995,0.06868539208030455,0.0
14.711624,0.07718967789127142,0.0
14.716208000000002,0.08479452925459044,0.0
14.720804,0.09329881506555729,0.0
14.725395999999996,0.10204747030481551,0.0
14.729984000000002,0.11001887581057154,0.0
14.73458,0.11733521629697104,0.0
14.739168,0.12080944956448783,0.0
14.743760000000002,0.12338424838435674,0.0
14.748343999999996,0.12338424838435676,0.0
14.752935999999998,0.12321924203051189,0.0
14.75754,0.12035593233372348,0.0
14.762127999999995,0.11454994986570018,0.0
14.76672,0.11633539620758405,0.0
14.771312000000002,0.13076730589690483,0.0
14.775911999999998,0.15130526837183614,0.0
14.780516,0.18359025974655646,0.0
14.785103999999995,0.21478582832570448,0.011385617125270782
14.789707999999996,0.24987788520410226,0.022815816703206822
14.7943,0.2990045787341673,0.03321047556346665
14.798904,0.36355408222013047,0.042853488506082775
14.803492,0.4435705371106196,0.05203369299590221
14.808091999999997,0.5371328897961933,0.060966165434945034
14.812683999999996,0.6406434024862606,0.06980778689392989
14.817279999999997,0.7564338243813276,0.07850567549729337
14.821867999999997,0.8867917632332729,0.08698413643625628
14.826467999999998,1.0272641882524853,0.09554081248662674
14.83106,1.1878229216286087,0.10385771689766579
14.835656,1.360905933638024,0.11214043021558437
14.840252,1.548188588652951,0.1203931969992823
14.844843999999997,1.7472182725676666,0.1286054245162129
14.849447999999995,1.9586059089529007,0.13671543030661765
14.854039999999998,2.179687096282598,0.1446602344329879
14.858632,2.400206004220796,0.1524672107977538
14.863223999999995,2.610410198012064,0.16026771305587845
14.867815999999998,2.8168400882182274,0.16795437524242168
14.8724,3.014099068153401,0.17559186468158627
14.876987999999995,3.2093045701332477,0.17183341929086457
14.881588,3.4016793444242666,0.16800895704970825
14.886176,3.5778540590258863,0.16532532494688176
14.890768,3.7422037014621994,0.16338776501281146
14.895364,3.8952950538553064,0.16181971443802023
14.899952,4.033574519863244,0.1605727625454938
14.904551999999995,4.163582510047838,0.15936903952594086
14.909132,4.284663959389732,0.15823231309212127
14.913723999999997,4.389911903184664,0.15737550151228724
14.91832,4.486722044993478,0.15641010490747148
14.922903999999996,4.566510735930762,0.15569244772826304
14.927492,4.636595636291841,0.15495981315331409
14.932088,4.699142169114454,0.1541393593731021
14.936676,4.750063857751423,0.15334861104078512
14.941268,4.792469701136756,0.15256755805630465
14.945859999999996,4.8273474166153605,0.1518854689718616
14.950452,4.856706340693932,0.15134390865920164
14.955039999999997,4.883322819980933,0.15080093912658307
14.95964,4.903110377829185,0.150385187248058
14.964219999999996,4.917745698419842,0.15006059183627463
14.96882,4.931026747523159,0.14967493888736763
14.973416,4.9407881021014015,0.149295930625856
14.978007999999996,4.955246856897544,0.14874105233053855
14.982588,4.967862601349767,0.14816619449191148
14.987184,4.974304489382598,0.14771018908997946
14.991771999999996,4.982745474290386,0.1471333503497767
14.996367999999997,4.987300210530665,0.14659520536731607
15.000948,4.987069263655785,0.14611390778336972
15.005531999999995,4.9923129667323085,0.14545710280181592
15.01012,4.997145974217769,0.14477753078103683
15.014708,5.003489339721606,0.14402656920972357
15.019295999999995,5.006845891005578,0.1432933997980772
15.023888,5.002884781994222,0.14271051801562867
15.028480000000002,4.997491358230007,0.14212807913131387
15.033068,4.986945697208195,0.1416276637741835
15.037655999999998,4.972025048662289,0.14119935860068228
15.042235999999995,4.958003834564033,0.1407520729289285
15.046824,4.947824727684658,0.14021496275761489
15.05142,4.9362133060524265,0.13967464968011575
15.056004,4.925990057724425,0.13907008460272058
15.060607999999997,4.909881463853953,0.1386083701937286
15.065204,4.895571738878777,0.1381112880183533
15.069787999999996,4.8819170789229585,0.1376189808939487
15.074383999999997,4.867240799805344,0.13715150695047967
15.078964,4.85706169292597,0.13659840173306265
15.08356,4.851135388856545,0.13598716255225352
15.088147999999997,4.845086900072975,0.13538315283206437
15.092743999999996,4.837894607413465,0.13481277538939798
15.097336,4.827637457268574,0.134324783208846
15.10194,4.81803537214304,0.13384222219171354
15.106527999999996,4.805124060103833,0.13345802050124567
15.111128,4.7926234436556925,0.13309875799985743
15.115719999999996,4.783720564998144,0.13267419868753297
15.120311999999998,4.779314858578834,0.13217174369705875
15.124904,4.775808586607171,0.13165161691717875
15.129495999999996,4.777454551893104,0.13106096642136827
15.134084,4.782698254969629,0.13041309643326834
15.13868,4.784510546418337,0.12987678749365786
15.143268,4.792130140143996,0.12927874874354742
15.147852,4.801059863908369,0.12869269095832586
15.15244,4.8164078135204225,0.12798795346270692
15.157035999999998,4.829834709523035,0.12732623865519527
15.161628,4.842117801649708,0.1267069837218749
15.166216,4.855955393243386,0.12607830857786184
15.170811999999998,4.868282626818687,0.1255198516865736
15.175396,4.875746134013313,0.12506996450434668
15.179988000000002,4.885419205694297,0.12461880717195548
15.184576,4.9020433835281745,0.12407960745688566
15.189167999999995,4.918301007219615,0.12357304268772383
15.193759999999996,4.932271023159174,0.12313680541076275
15.198347999999996,4.951637645784625,0.12261797504590442
15.202936,4.974602006200665,0.12204925177173517
15.207532,5.0018191694266525,0.12144435895355374
15.212123999999996,5.025727105738969,0.12093726164753711
15.216715999999998,5.052499671557003,0.12044245919307658
15.221311999999998,5.079027867946745,0.119978084079037
15.225907999999995,5.103512826012899,0.11956668368258383
15.230495999999995,5.129918837688496,0.11912106040041989
15.235096,5.154281611040506,0.11872514453840204
15.239683999999995,5.179421634126017,0.11832851712765646
15.244284,5.204317287783238,0.11795731232505909
15.248872,5.235386797859848,0.11752069455494912
15.253464,5.266334123222312,0.11709708202916425
15.258047999999995,5.29883594805178,0.11667190931925892
15.262644000000002,5.333381011204835,0.11620758826858606
15.267247999999997,5.370502192986687,0.11572032725445328
15.271844000000002,5.410932601682214,0.11516278087473121
15.276432,5.445844218977707,0.11468911968993781
15.281023999999997,5.482554705168496,0.114196345219153
15.285615999999996,5.523107298578165,0.1136443408620509
15.290203999999996,5.562760457540189,0.1131132042604052
15.294792,5.602291431788066,0.11260296770539377
15.299371999999998,5.637447418511848,0.11214525936831635
15.303967999999998,5.67182615550213,0.11168697266515883
15.30856,5.702318643824901,0.11123775861600765
15.313151999999995,5.728558329337724,0.11082420275092442
15.317743999999998,5.754920199564693,0.11040561687534241
15.322336,5.780627004772305,0.10998262669613672
15.326927999999995,5.807066918264791,0.10951166534132445
15.331516,5.834117755328005,0.10900238561844659
15.336100000000002,5.8589590279048585,0.10849080424436097
15.340691999999995,5.87517251014767,0.10805282435115966
15.345300000000002,5.890075862351769,0.10760078330689266
15.349891999999995,5.903014019497797,0.10712776282731974
15.354495999999996,5.91362042744332,0.10665921163149655
15.359091999999997,5.9209956517406885,0.10620248825633992
15.363679999999995,5.9248953229616115,0.10577787961861153
15.368271999999996,5.929283733039116,0.10531894015325088
15.372852000000002,5.9326063825062,0.1048299641656845
15.377448,5.933719467486924,0.1043368245011907
15.382036,5.932378618552994,0.10385378859325473
15.386635999999996,5.928828205132703,0.10336554036228238
15.391216,5.921680053921821,0.10290797533247377
15.395807999999995,5.918085499052902,0.10236923487157577
15.400391999999997,5.917555801669367,0.10178154581072434
15.404987999999996,5.9203353311994995,0.10112930809857708
15.409576,5.924503034033865,0.10044138718195603
15.414172,5.929692356030023,0.09974018076540216
15.418763999999996,5.9319390052549466,0.09907846502782067
15.423355999999998,5.933941285051578,0.09843603124108868
15.427935999999995,5.941340171534097,0.09775508367266614
15.432531999999997,5.9511929919312685,0.09706393432770187
15.43712,5.964765734833176,0.09634091068898284
15.441716,5.979648607773798,0.09563709817113261
15.446307999999997,5.994287111286128,0.09494861809745044
15.450899999999995,6.00970286453196,0.09425903584552542
15.455492,6.025651498083002,0.0935896883462118
15.460071999999997,6.046097303872284,0.09289256781234899
15.464655999999998,6.066054370804985,0.09222979354574364
15.469248,6.085522698881102,0.09160039798407497
15.473832000000002,6.108833134176102,0.09093484580715844
15.478435999999997,6.133453699509815,0.09029219959655478
15.483027999999996,6.164492490691208,0.08959833135341366
15.487635999999997,6.194553804159435,0.08897379990302651
15.492227999999995,6.224781443790437,0.08839506431154222
15.496831999999998,6.252110552098831,0.0878986207974366
15.501424,6.27204395684638,0.0875105668917011
15.506011999999998,6.293409676346789,0.0871378415235347
15.510607999999998,6.321071436980731,0.08672903390095456
15.515203999999995,6.349266077919885,0.0863404761044583
15.519804,6.372719177192508,0.08600052612912824
15.524395999999996,6.400425079275078,0.08565063448666131
15.528996,6.424699569729831,0.08536392846468069
15.533575999999996,6.450117864060522,0.08506066646665436
15.538176,6.481954384238896,0.08471907281725072
15.542763999999998,6.516489207760213,0.0843645539418499
15.547364000000002,6.549880227405589,0.08403093998088536
15.55196,6.579306955117938,0.08374316965817195
15.556556,6.609266563135499,0.08347254520180925
15.561147999999996,6.643190463086087,0.08316591705439616
15.565739999999998,6.675970559160737,0.08288429382544198
15.570332,6.7070739710542355,0.08260738790388067
15.574928,6.737155763785941,0.08234649935569907
15.579524,6.764128557583638,0.08207698808550741
15.58412,6.791467905523772,0.08179028694074383
15.588707999999995,6.820439796196429,0.08145870997039793
15.593295999999995,6.858361889896935,0.08103969748746095
15.597884,6.892031180787492,0.08063163679183791
15.60248,6.920181680278018,0.08026088157313895
15.607071999999995,6.9461226152821824,0.07987804740532654
15.611668000000002,6.969243062229258,0.07951350922577255
15.616259999999995,6.989376694956469,0.07913608400675846
15.620852,7.010243435968555,0.07871988242802479
15.625448,7.030577296675431,0.07829231471471916
15.630035999999995,7.042038997619973,0.07790005109343756
15.634628,7.052845633545158,0.0775013039787703
15.639224,7.061320520269838,0.07709308631860115
15.643811999999995,7.065420419470424,0.07669481617448613
15.648407999999996,7.06587843943179,0.07626824655780853
15.652996000000002,7.0609398527072695,0.07586541529877036
15.657587999999995,7.048561420973274,0.07550308308790238
15.662171999999998,7.034628489772276,0.07513370055179688
15.666764,7.0135000829900935,0.07479130495410492
15.671368,6.994537099245644,0.07442005873639111
15.675947999999998,6.971321312691248,0.07405170076846351
15.680548000000002,6.949004960584499,0.07367906159540091
15.685131999999996,6.921292001791862,0.07332581640276692
15.689723999999998,6.891902358818075,0.07296917739961116
15.694316,6.860713846948993,0.07261690689608222
15.698915999999995,6.828503715918116,0.07227186149714977
15.703503999999995,6.801401680696208,0.07187583172454512
15.708100000000002,6.772378591864858,0.07149010689646344
15.71268,6.738613961366977,0.07112942904477804
15.717275999999998,6.700640669507777,0.07081152420262206
15.721871999999998,6.667286734600962,0.07046849614704316
15.726467999999995,6.635076603570086,0.0701077417905386
15.73106,6.607730198919888,0.06971080034631305
15.735647999999998,6.587168574259805,0.0692656336678679
15.740235999999996,6.572536436590822,0.0688199196673428
15.744819999999995,6.557782114207692,0.06837819976911971
15.749407999999995,6.548013702919385,0.06789267083272148
15.753983999999996,6.540166345240518,0.06739408420236033
15.758579999999997,6.542945874770652,0.06682795791731032
15.763168,6.544337230996556,0.06629095071300369
15.767759999999996,6.551003009194201,0.06574743956467938
15.772343999999997,6.555992103210696,0.06520338783656952
15.776927999999998,6.562125001103129,0.064643248004833
15.78152,6.5745539401291,0.06406868321450813
15.786108,6.591069355802243,0.06345971819700388
15.790695999999995,6.611549063408414,0.06282551690123717
15.795299999999996,6.628963913529205,0.06222039079375076
15.799887999999996,6.647278198097643,0.06161304706529745
15.804483999999997,6.67458682714256,0.0609891518756144
15.809064,6.705981932834652,0.060332408551752044
15.813663999999996,6.735089430774865,0.05970775627668406
15.818252,6.761254255943844,0.05910585129499582
15.822851999999996,6.786275277236884,0.05852450021200638
15.827439999999996,6.811051929101631,0.05796255975200183
15.832035999999995,6.829410355118699,0.05741751506369379
15.836632000000002,6.848546030869269,0.056876565795844526
15.841228,6.8720566941439305,0.05634037030370543
15.845819999999996,6.897121856885598,0.05581836636072203
15.850403999999996,6.916057304656505,0.055346361519247156
15.854991999999996,6.939079229074585,0.05484883985360034
15.859587999999995,6.955316373502547,0.05438344238503526
15.864179999999998,6.969920975197987,0.05395525083922462
15.868764,6.985835706932141,0.05355171822805893
15.873351999999995,6.999829385056853,0.05315959556253257
15.877947999999996,7.012434889877335,0.05279472396098573
15.882536000000002,7.022752786945938,0.0524578586627687
15.887127999999995,7.032826314586249,0.05213287432294236
15.891715999999995,7.042533288084124,0.051826032707127434
15.896304,7.043001547677229,0.051537513610823156
15.900895999999996,7.037462277013719,0.05128138617002956
15.905484,7.030124137454914,0.05102494095337656
15.910075999999997,7.02049839014423,0.050792655669655164
15.914671999999996,7.002944058967488,0.05059937718382442
15.919252,6.980403816695925,0.05043229955681554
15.923843999999995,6.957619204996069,0.05027572728513597
15.928439999999997,6.93471240858207,0.05012448827308548
15.933028,6.89950204077792,0.05000820753107828
15.937632,6.856607458536004,0.04991907445517336
15.94222,6.8087269651992655,0.049856820643829895
15.946824,6.751896268834677,0.04984029655903969
15.951411999999998,6.694410507450732,0.04980996454774371
15.956004,6.6374134849233695,0.04975215721239024
15.960583999999995,6.576574355177124,0.049707442800676765
15.965179999999997,6.508051010993114,0.04969014276546526
15.969772,6.43094401792369,0.049702641620372745
15.974371999999995,6.3453755606829985,0.0497381978085847
15.978963999999998,6.25608718093757,0.04978156455893861
15.983556,6.163078878687404,0.04983283928309479
15.988135999999995,6.0682717075419434,0.04988401347874964
15.992731999999997,5.975507774720069,0.04991881022224552
15.997332,5.880944973002898,0.04995260895347315
16.001928,5.781762814333343,0.04999765894487869
16.006515999999998,5.683724459539727,0.05003137903477355
16.011108,5.580045128631934,0.05008717147377007
16.015699999999995,5.477387416885932,0.050134283390770175
16.020283999999997,5.3694552831681905,0.05017198042712811
16.024871999999995,5.266142506402832,0.05020302298528627
16.029463999999997,5.162052479903973,0.05022935864422904
16.034059999999997,5.056285769223963,0.05025510897160494
16.03864,4.9506412432581,0.05027561633802923
16.043231999999996,4.842831294254504,0.05032436575695187
16.04782,4.731956487765526,0.050397654313909204
16.052411999999997,4.617606128200104,0.05046385166897953
16.057007999999996,4.506198441405917,0.050511821346791316
16.061596,4.399654480992405,0.05053251022057692
16.066199999999995,4.299650931140719,0.05053094960742359
16.070788,4.1969490779460905,0.05053269283677508
16.075392,4.096290463075048,0.05050797937000625
16.079983999999996,4.0000068357281,0.05048958396974652
16.084576,3.9015577853434187,0.050503441240430845
16.089168,3.8041303541205314,0.05049861904344274
16.093747999999998,3.7122217142976766,0.05048317615492679
16.09834,3.6268534850366487,0.050436339116316564
16.102919999999997,3.5454495477086487,0.05035434601245384
16.10752,3.466743913723592,0.05026563704409615
16.112108,3.3902478442248967,0.050223379341860025
16.116704,3.3147733938879944,0.05016541516350485
16.121296,3.2418750621798904,0.05012107802123983
16.125892,3.172818837690669,0.0500479649391496
16.13048,3.104417678220804,0.05000652482386654
16.135075999999998,3.0379375723603808,0.04995283691121106
16.139663999999996,2.9735007048235444,0.049862418240607276
16.144259999999996,2.9142160745443038,0.04979655653222878
16.148843999999997,2.8530103906556223,0.04974374965964009
16.153431999999995,2.792581956500442,0.049702485768842376
16.15802,2.732930772078764,0.049673032273744644
16.162608,2.6768773254476774,0.04964130900663153
16.1672,2.618658455778859,0.049658883790707334
16.171791999999996,2.5565974788911574,0.0497261438207116
16.176387999999996,2.494536502003456,0.04980827479611193
16.180976,2.4309651670973773,0.04999999157022982
16.185575999999998,2.364695528848356,0.05020635320248049
16.190156,2.2908638608757146,0.05049518175926155
16.194747999999997,2.2206299306936645,0.05077204292636808
16.199343999999996,2.14577664355923,0.05108474407283952
16.203932000000002,2.0703904761195844,0.05135829903187552
16.208528,1.9948821239657932,0.051660450669074334
16.213116,1.9206397604020864,0.05189080778300577
16.217703999999998,1.8508945690766192,0.05209600606036863
16.222299999999997,1.7831926160747391,0.05227803857503598
16.226892,1.7181889664158025,0.05246531223092348
16.231488,1.6490988401096915,0.052805831591191114
16.236075999999997,1.5747342918318392,0.053186228606766056
16.240676,1.5028236774686397,0.05369749765858948
16.245264,1.4318124975530873,0.05120727825855628
16.249863999999995,1.3543830917898547,0.048716309891411146
16.254452,1.2795298046554198,0.046222218417694715
16.259059999999998,1.2076191902922195,0.04370312432595688
16.263652,1.1397950525761937,0.04113317604332455
16.268248,1.0729925340219615,0.03853155599677967
16.272832,1.0092548729531097,0.03584561142219465
16.277423999999996,0.9464166463319057,0.0331438644969735
16.282024,0.8853772886059974,0.030388471635460396
16.286615999999995,0.8212730733947088,0.02765747012166259
16.291207999999997,0.7560250543074808,0.02490512835719695
16.2958,0.6943747730108442,0.022161132101195805
16.300379999999997,0.6315806878382684,0.0194023337758678
16.304972,0.5711535734920176,0.01669819769299652
16.309551999999996,0.5097048399839732,0.014033193773585551
16.314147999999996,0.45095440981887225,0.011355975061060746
16.31874,0.3940028485490671,0.00866997012681614
16.323327999999997,0.3435916978410882,0.005863700465637647
16.327923999999996,0.2994765882666442,0.0029993130356970143
16.332504,0.25830415146343527,0.0
16.337083999999997,0.21893058355552195,0.0
16.341679999999997,0.18687467594293714,0.0
16.346267999999995,0.1558403874921458,0.0
16.350876,0.12648278322250453,0.0
16.355463999999998,0.09867967841986762,0.0
16.360051999999996,0.0744743114078221,0.0
16.364647999999995,0.0520678132910723,0.0
16.369236,0.033259052964913896,0.0
16.373832,0.019069649591140426,0.0
16.37842,0.008722353436249707,0.0
16.383024,0.004016033395537435,0.0
16.387603999999996,8.696308832734208e-05,0.0
16.392204,0.0,0.0
16.396788,0.0,0.0
16.401396,0.0,0.0
16.405983999999997,0.0,0.0
16.410584,0.0,0.0
16.415175999999995,0.0,0.0
16.419772000000002,0.0,0.0
16.42436,0.0,0.0
16.428956,0.0,0.0
16.433555999999996,0.0,0.0
16.438151999999995,0.0,0.0
16.44274,0.0,0.0
16.447328,0.0,0.0
