Time,Force,Position
15.099728,0.14710101477408874,0.0
15.104323999999998,0.13912828945940375,0.0
15.108915999999995,0.12911232582113172,0.0
15.113508,0.11284446249795291,0.0
15.118091999999995,0.0962233827115475,0.0
15.122684,0.08391981132139707,0.0
15.127275999999998,0.07239348966474883,0.0
15.131864,0.06393202549348113,0.0
15.136451999999998,0.056247811055715635,0.0
15.141064,0.05138408467503936,0.0
15.145651999999998,0.05216133440854154,0.0
15.15026,0.05281639942789804,0.0
15.154851999999998,0.04705323859957392,0.0
15.15944,0.04844141190380446,0.0
15.164032,0.053671692426917744,0.0
15.168623999999998,0.052894442693415575,0.0
15.173223999999998,0.053926301486947874,0.0
15.177816,0.0698141881142779,0.0
15.182416,0.0987150922314818,0.0
15.186995999999995,0.13564310274373764,0.0
15.191595999999995,0.18268559942326057,0.008498695220737063
15.196188,0.23661139862189623,0.01709464297043682
15.200788,0.29778705448208165,0.025937684297347885
15.205371999999995,0.37299734699393444,0.034544448647314714
15.209971999999995,0.4600193739918834,0.04294380325076082
15.214568,0.5535714870457185,0.05143931602488719
15.219164,0.6584599334082774,0.05980465108960672
15.223755999999998,0.7725192900418274,0.06820339057756107
15.228355999999998,0.8976706105558099,0.07654547057540136
15.232951999999996,1.0327700910742856,0.08483988114282788
15.237547999999997,1.1779399163114006,0.09309362995524309
15.242136,1.3331800862671543,0.1013627802683801
15.246731999999998,1.5067076956845242,0.10946100523858965
15.25132,1.6812332620785366,0.11769719335839608
15.255907999999998,1.863663750153455,0.1259471446036555
15.260496,2.0694456320503285,0.1338867762353348
15.265092,2.2816796416117726,0.14167358480348566
15.269683999999998,2.4808123507860858,0.14939406526423002
15.274275999999997,2.6698747152417606,0.15705836507295412
15.278872,2.8575725685783553,0.1645598795165429
15.283459999999998,3.035644674604265,0.16350249254212237
15.288059999999998,3.2026248167497418,0.16241266460262674
15.292635999999998,3.3659528400242604,0.16099485229708543
15.29722,3.516634399951342,0.15982132897632123
15.301811999999998,3.655490887713117,0.15890317111474125
15.306403999999995,3.78746407295578,0.1578249299986152
15.310992,3.9137419010038967,0.15674926468498912
15.315587999999998,4.0344465565716146,0.155565965725198
15.320176,4.1479013554777815,0.15435621573543912
15.324772,4.255005732170048,0.15309649931306019
15.329348,4.3519175794295295,0.15187130983536107
15.333944,4.442601189189254,0.15055342270238664
15.338535999999998,4.519127977583166,0.14942184796656224
15.343135999999998,4.590325962924969,0.14813023221672378
15.347715999999998,4.656195145214664,0.14673490397775446
15.352315999999998,4.704231725082436,0.14567533880259842
15.3569,4.746338817959111,0.1447525248122672
15.361496,4.78890074787548,0.14392119904613257
15.366083999999995,4.834816046154147,0.14306462343528875
15.37068,4.8766448677856395,0.1423509724052743
15.375276,4.923015003104002,0.14162977379122968
15.379876,4.977480048451194,0.14076476065996937
15.384467999999998,5.031578539655949,0.1399542268369664
15.389059999999995,5.089685464242361,0.13910986951213006
15.393652,5.1546993535330365,0.13811791743740864
15.398235999999995,5.217181265643543,0.13722560210825382
15.402828,5.272878397763931,0.13650066963312624
15.407419999999998,5.32461123795129,0.13587699737401437
15.412015999999998,5.37327922065327,0.13534140884466542
15.416608,5.420436845336872,0.1348874620068224
15.4212,5.473113261420509,0.13435154627452023
15.425791999999998,5.526689111951792,0.1338237137466699
15.430387999999995,5.582430385520808,0.1332450244954308
15.434971999999998,5.640092712699265,0.1326420815117497
15.439556,5.69391293265884,0.13212595953750847
15.444147999999998,5.752963433141528,0.13150086734134328
15.448728,5.812502672480799,0.13085119146134103
15.453315999999996,5.873552269838447,0.13014699401834534
15.457919999999998,5.92830582606256,0.12954286095519435
15.462504,5.981382698105523,0.12895858867634932
15.467108,6.032250005662127,0.12839442429259013
15.471699999999998,6.078209445389424,0.1278830783426321
15.476295999999998,6.1231031245063,0.12735412126430792
15.480884,6.164232739669811,0.12683772565991475
15.48548,6.198655618108722,0.12639205906564707
15.49006,6.236876462317888,0.1258421367108032
15.494664,6.278650902869016,0.1252024134543414
15.499243999999996,6.323323874742751,0.12447122471224994
15.503836,6.367053270720211,0.12370664957447738
15.508432,6.404686853543798,0.122957430692739
15.513023999999998,6.434059200175783,0.12227860653455701
15.517619999999996,6.455581006207227,0.12168362711379624
15.522212,6.472561498551804,0.12109833772333815
15.526791999999997,6.485000677209513,0.12052387555548259
15.531384,6.493797976628001,0.11994343106320689
15.535964,6.492168616817153,0.11946435056783386
15.540564,6.483954704995851,0.11902641800754103
15.545151999999998,6.470055675611741,0.1186183513394587
15.549743999999995,6.452514766988411,0.11820221794027352
15.554336,6.431209794411716,0.11778674280008941
15.558923999999998,6.398945282300471,0.11745479620189346
15.563516,6.360995652626423,0.11715219187580549
15.568103999999998,6.316339286227772,0.11689686980359204
15.572688,6.2704949745045555,0.1166160546923655
15.577275999999998,6.221830174724249,0.11637201477026526
15.58186,6.1681353224004924,0.1161569020002238
15.586447999999995,6.1092882328191385,0.11598103973817948
15.591044,6.046965590161339,0.11582723426182077
15.595631999999998,5.9828440786082435,0.1156886086134025
15.600223999999995,5.9207658053787355,0.1155075683335413
15.60482,5.860242031616233,0.1153179503705444
15.609423999999995,5.802905300053254,0.1150594917832287
15.614012,5.743158776024253,0.11486212080330412
15.618607999999998,5.684966751462255,0.11465319447310496
15.623196,5.629106476100767,0.1144359365760819
15.627796,5.581463295482252,0.11411339692122918
15.632383999999998,5.541015590444923,0.11370514035273922
15.636979999999998,5.507518991560484,0.11323117407192901
15.641564,5.482772367724233,0.112673735105909
15.646155999999998,5.465754099774374,0.11205347879712378
15.650764,5.462271489987862,0.11133682219456319
15.655355999999998,5.466272866659453,0.11057509565467619
15.659944,5.479557098684441,0.10975301769263472
15.664535999999998,5.496361025234504,0.10895385559371466
15.669124,5.5170512004520775,0.10814708787786276
15.67372,5.538196212709344,0.10741223450456677
15.678311999999998,5.561961485044036,0.10670446938848485
15.682896,5.588224832742011,0.10603934550749532
15.687483999999998,5.618374429107495,0.10537156611176929
15.692068,5.653964773607494,0.10470794061826416
15.696651999999997,5.691764682593855,0.10405536301698343
15.70124,5.732062666943497,0.10345008677069564
15.705831999999996,5.781887876074826,0.10277297901643989
15.71042,5.831757226654784,0.10215098904429463
15.714996,5.886656629778192,0.10151060070109932
15.719607999999996,5.937758067131346,0.10098028533621622
15.724192,5.985960973161893,0.10055068406950325
15.728803999999997,6.03445239006936,0.10016537780230644
15.733391999999998,6.0805340145108016,0.09984639677125191
15.737979999999997,6.125471835076304,0.09956146459526259
15.742576,6.164890864241776,0.09933705005727715
15.747168,6.205087143140748,0.09912022877492269
15.751763999999998,6.24054188037319,0.09896049926979139
15.756339999999998,6.279960909538659,0.09875589134604659
15.760939999999998,6.321667546456009,0.09851091055263529
15.76552,6.3696260830582645,0.09817525902313848
15.77012,6.421016031288338,0.09777815521354805
15.774711999999996,6.470318599746195,0.09736612803979576
15.779307999999997,6.519987722346491,0.09693814549183705
15.783891999999998,6.565404042136837,0.09653553188163538
15.788483999999997,6.613230154393209,0.09609250705977472
15.793083999999997,6.6619115596486,0.09560728393594939
15.797676,6.705152216769475,0.09512432526278
15.802272,6.750269786051164,0.09458389492216668
15.806863999999996,6.789580053055901,0.09406321292837735
15.811456,6.8289683633261555,0.09349221992060577
15.816039999999996,6.867779651842571,0.09286497937317022
15.820619999999998,6.902171811386264,0.09222260407798619
15.825215999999998,6.932922091690737,0.09156178135297066
15.829808,6.957498515575822,0.09093482760768479
15.834387999999995,6.979987559688691,0.09028899473802213
15.838984,6.996669301524609,0.08965837447340452
15.843567999999998,7.011508033016602,0.08899501113870431
15.848152,7.014776301403318,0.08839825234613233
15.852739999999995,7.014935570856025,0.08779864935144266
15.857328,7.007244299708193,0.08723498118632747
15.861923999999998,6.994400791302767,0.08668903925545247
15.866504,6.9820460217539235,0.08611416113791166
15.871091999999996,6.96351739578569,0.08556587479738331
15.875695999999998,6.942779205331095,0.08500275225891757
15.880288,6.911125616790581,0.08450307408406882
15.884884,6.86651339184056,0.08408949306157704
15.889471999999998,6.822800601338186,0.08366610957403049
15.894071999999998,6.773446834721634,0.08328139620348857
15.89866,6.722294199209787,0.08290181366817274
15.90326,6.668198890926704,0.0825462690123696
15.907847999999998,6.614636462948833,0.08220135319074988
15.912447999999998,6.5604631114002325,0.08188669364251974
15.917032,6.506944824870989,0.0815760391540408
15.921627999999998,6.458168080008275,0.08122485816862432
15.926216,6.413766322669657,0.08085376173272757
15.930808,6.367976392026807,0.08051175304095019
15.935399999999998,6.324151656442027,0.08019494044975448
15.939995999999995,6.2871558422959914,0.07986033800823829
15.944584,6.251347973474523,0.07954940176166814
15.949179999999998,6.222124656663511,0.07923666930451037
15.953768,6.195765969358217,0.07894721520293688
15.958351999999998,6.17227191155864,0.07868183133432592
15.96294,6.156506209645455,0.07839860473985377
15.967536,6.14552619084743,0.07812499940463992
15.972127999999998,6.145627896298097,0.07783176889599956
15.976716,6.163840475415867,0.07744828252924629
15.981308,6.186716552934651,0.07708822116374686
15.985895999999997,6.215155563302096,0.07674211923562997
15.990488,6.251200744841788,0.07639035926760683
15.995084,6.295873716715523,0.07602286768267505
15.999671999999997,6.342511883647327,0.07568883742470181
16.004284,6.397489330036254,0.07531373295617852
16.008871999999997,6.459173513149779,0.07494199319363481
16.013479999999998,6.523555999606248,0.07456916467998229
16.018072,6.587449747206135,0.07422960001472957
16.022675999999997,6.663402696767881,0.07383218719312695
16.027272,6.743852818567866,0.0734237729481681
16.031859999999998,6.827245613139085,0.07300006209400953
16.036464,6.911293472729662,0.0725908428482705
16.041055999999998,6.99276521369144,0.07219205758822925
16.045659999999998,7.080122300195688,0.07175880612506666
16.050244,7.166702136966436,0.07132952687593212
16.054848,7.250950224536675,0.07089900561202839
16.059427999999997,7.33172275903047,0.07047825681988423
16.064024,7.409630664018547,0.07003964898831205
16.068607999999998,7.482386331749028,0.06962096207685507
16.073207999999997,7.550234131650205,0.06920111433623674
16.077787999999998,7.618159974816899,0.06874186316322414
16.082379999999997,7.683099003763729,0.06827056140077908
16.086972,7.742475099861899,0.06778812491945736
16.091555999999997,7.800252555044437,0.06726489848197395
16.096135999999998,7.848014046588702,0.06677869582735736
16.100728,7.889313170836657,0.06628090741567991
16.105303999999997,7.925215688398728,0.06580036401730241
16.109892,7.960052445350375,0.06529302963723624
16.114476,7.983074369768455,0.06482287597098116
16.119068,8.001432795785522,0.0643347153132243
16.123659999999997,8.014638984544995,0.06384921130832485
16.128239999999998,8.026002162960541,0.06333183194660766
16.13282,8.033356907994433,0.0628002391062768
16.137411999999998,8.028119570761252,0.06229298120486547
16.142,8.018507246003981,0.06178790816966449
16.1466,8.00631880261791,0.061281506070641756
16.151183999999997,7.993597478926628,0.060758251657538044
16.155772,7.977156232730612,0.06024517334990587
16.160368,7.953519510953409,0.05974179542580029
16.164959999999997,7.926407236099762,0.059235276413970035
16.169563999999998,7.890711312360702,0.05875913800966543
16.174139999999998,7.845410120574434,0.058319057555866534
16.178739999999998,7.800231113502312,0.05786907562449245
16.183324,7.750965629783017,0.05744173667347789
16.187924,7.7033768302448715,0.05701375372119139
16.192508,7.654399857402496,0.05660510284116175
16.197108,7.602480211788885,0.05620630796168325
16.2017,7.551093446480484,0.055821081522748145
16.206291999999998,7.5016277347815254,0.05542354154457089
16.210884,7.448730611454749,0.05505864867423689
16.215476,7.398531791470917,0.05468737152421866
16.220076,7.347844232630502,0.05433500413781575
16.224667999999998,7.302064541619391,0.05399776781427976
16.229256,7.261559272580022,0.053657056349575384
16.233836,7.222075622702445,0.05330616283589838
16.238424,7.184024287577727,0.052968853105574205
16.243011999999997,7.147405267205868,0.052645302301575825
16.247604,7.110419692691573,0.05233582242539981
16.252187999999997,7.075154943807055,0.05206870943018689
16.25678,7.045042432180133,0.05180781120956739
16.26136,7.02506806890563,0.05152794210200831
16.265936,7.02033994979251,0.05119868715008276
16.270532,7.0127132993567844,0.050921723738780324
16.275115999999997,7.008440017283357,0.0506536666501374
16.279704,7.0059656041052305,0.05038428798752622
16.284295999999998,7.007088928717692,0.05011305501631847
16.288895999999998,7.013486675301894,0.04984474144001401
16.293488,7.014121261057773,0.04959499314475245
16.298067999999997,7.014267107957068,0.04936816786689943
16.302671999999998,7.0169890734851625,0.04914521229823174
16.307256,7.0144807584901425,0.04895905664667177
16.311856,7.007885966847951,0.04879667064890071
16.31644,6.995772383805723,0.048640944219546615
16.32104,6.980349573849826,0.048515370008213196
16.325632,6.965581828913285,0.0484008032207557
16.330227999999998,6.948893030367302,0.048291964567045556
16.334816,6.931304797373673,0.04818252246340203
16.339412,6.916659237151276,0.04805961916810378
16.344003999999998,6.9037684043755485,0.04789265468629636
16.348588,6.88499222605735,0.04774997873493096
16.353188,6.858531833301386,0.04763133401567735
16.357771999999997,6.81927913029869,0.04756663680117176
16.362351999999998,6.78321346949552,0.04747695957193214
16.366936,6.744449505349405,0.04738600173125281
16.371523999999997,6.698123511479672,0.047311822164609926
16.376112,6.646156541495759,0.04724835381972733
16.380699999999997,6.5917356375971945,0.047169632312981935
16.385288,6.538458537574569,0.04707606549716309
16.389884,6.4815836997613525,0.04698058302363532
16.394468,6.419312255262249,0.04688272038618071
16.399055999999998,6.355486311296141,0.04676945034840662
16.403651999999997,6.292926355920119,0.04663369942772335
16.40824,6.228323162220509,0.04650902260281928
16.412844,6.164453076805772,0.046339419635315404
16.417431999999998,6.09571926501036,0.04618679214405827
16.42202,6.022366096262563,0.04603657056397426
16.426612,5.93965202889585,0.045900746359569304
16.431212,5.8493759318055165,0.0457789255879665
16.435807999999998,5.7514156202774185,0.04567656772507186
16.440399999999997,5.644460964272842,0.04556803897513331
16.444996,5.532231886296524,0.045443000167464574
16.449583999999998,5.420613731890934,0.04527092233854691
16.454172,5.298857429132927,0.0451004739884948
16.458759999999998,5.168761846917796,0.04493440610827942
16.463355999999997,5.039810068578607,0.044743382315326194
16.46794,4.903296260515796,0.04457200496716293
16.472531999999998,4.757054999691633,0.04444447044254188
16.477124,4.605950012486794,0.044333838623734294
16.481716,4.453290525814951,0.044184775837739255
16.48632,4.300997593285544,0.04398035150921696
16.490916,4.148582476041992,0.043772267238612404
16.495503999999997,3.9922030668654123,0.043578003287153534
16.5001,3.8341469735076816,0.04335811372693271
16.504687999999998,3.672659468522133,0.043187921437103136
16.509272,3.509373094641289,0.0430096400444576
16.513855999999997,3.346086720760445,0.04281280317559726
16.518448,3.19011800717493,0.042603656013288575
16.523031999999997,3.0369697816465036,0.04235713667232753
16.527611999999998,2.8865198594610213,0.04208938327846341
16.532204,2.745064281752017,0.04182787132202617
16.536792,2.6088831260147547,0.041562766853930906
16.541379999999997,2.4701699930973224,0.041374212567614276
16.545987999999998,2.3350545979704815,0.04115454162058406
16.550576,2.2084006670149083,0.04084784373713365
16.555163999999998,2.0862439082975746,0.04050868451226737
16.559744,1.9724264290373625,0.04014824320972907
16.564331999999997,1.8642499258913292,0.03973930464141793
16.568924,1.7596711605358868,0.039309761239177086
16.573504,1.658445763542745,0.03717025861832644
16.578104,1.5613509846454052,0.03508853627126035
16.582691999999998,1.464256205748065,0.03301999650828167
16.587287999999997,1.371003534069608,0.030954112971800236
16.591876,1.28224803462939,0.02890900453129293
16.596476,1.1983562615698486,0.026846708029899212
16.601067999999998,1.11830659572919,0.024788068489564268
16.605659999999997,1.0390341796220333,0.022751932871613006
16.610243999999998,0.9579628946195812,0.02072637918299779
16.614835999999997,0.8792233588176355,0.01874309823163574
16.619439999999997,0.8020383224826939,0.01678692591609976
16.624035999999997,0.7268965244713396,0.01482511821461679
16.628628,0.6525319761934875,0.01288415961769592
16.633219999999998,0.5846431328911544,0.010901740313178795
16.637808,0.5230503307223564,0.00896190916675626
16.6424,0.4639114624682106,0.0071119135729490815
16.646987999999997,0.40644927839521483,0.005314361703338575
16.651584,0.3549371454509959,0.0035195001994061327
16.656176,0.31266372641154694,0.0017503823878284165
16.660763999999997,0.27411022987683503,0.0
16.665356,0.2387879169902775,0.0
16.669932,0.2032212346754286,0.0
16.674528,0.1757494623894104,0.0
16.679119999999998,0.15150887375154654,0.0
16.683708,0.133808695675509,0.0
16.688315999999997,0.11892900565656067,0.0
16.692904,0.1093237376093538,0.0
16.697491999999997,0.10511507624803404,0.0
16.70208,0.10450415267730569,0.0
16.706675999999998,0.10119492576363377,0.0
16.711271999999997,0.10184999078299029,0.0
16.715847999999998,0.10585842416464686,0.0
16.720451999999998,0.11256516088924698,0.0
16.725028,0.12317871041903693,0.0
16.729616,0.13493606382476608,0.0
16.734208,0.14783722110643444,0.0
16.738808,0.16049400895981145,0.0
16.743399999999998,0.1670785609702659,0.0
16.747992,0.16712270241889404,0.0
16.752568,0.16884352804867223,0.0
16.757164,0.17195252698268096,0.0
16.761743999999997,0.17992525229736595,0.0
16.766327999999998,0.18327862065966596,0.0
16.770908,0.18483312012667036,0.0
16.775488,0.18254551237479197,0.0
16.780071999999997,0.17911410074697443,0.0
16.784675999999997,0.17094114745262626,0.0
16.789268,0.1649336171960108,0.0
16.793855999999998,0.16162439028233885,0.0
16.79844,0.1658771930922868,0.0
16.803023999999997,0.16886400731214982,0.0
16.807608,0.17131794122680202,0.0
16.812208,0.17479349430324773,0.0
16.816796,0.17671454791268915,0.0
16.821384,0.1782690473796935,0.0
16.825968,0.17675868936131728,0.0
16.83056,0.17753593909481946,0.0
16.835155999999998,0.18485359939014798,0.0
16.839744,0.19985547412324195,0.0
16.84434,0.21432446855112508,0.0
16.848927999999997,0.22777184381721471,0.0
16.853527999999997,0.2367220468450651,0.0
16.858116,0.24272957710168055,0.0
16.862716,0.2546224529007658,0.0
16.867299999999997,0.26177378703332044,0.0
16.871892,0.2667596981281424,0.0
16.876483999999998,0.27763095476543415,0.0
