Time,Force,Position
14.059764,0.18014159279549002,0.0
14.06436,0.14212473296721112,0.0
14.068948,0.10860504537717147,0.0
14.073544000000002,0.07958253002537106,0.0
14.07814,0.053258318016514226,0.0
14.082728,0.03335233185533802,0.0
14.087324,0.020108940970133788,0.0
14.091916,0.00878660369437093,0.0
14.096516,0.004004676980434374,0.0
14.101104,0.0,0.0
14.105704,0.0019172972082191772,0.0
14.110284,0.004856213578231877,0.0
14.114884,0.006118445767094545,0.0
14.119476,0.0063590587941636904,0.0
14.124076,0.007621290983026358,0.0
14.12866,0.008883523171889026,0.0
14.133256,0.010267940074897366,0.0
14.13784,0.010630737816112184,0.0
14.142432,0.010630737816112183,0.0
14.147036,0.010630737816112183,0.0
14.151632,0.010630737816112183,0.0
14.15622,0.010630737816112183,0.0
14.160804,0.010630737816112183,0.0
14.165392,0.010630737816112183,0.0
14.169988,0.010630737816112183,0.0
14.174576000000002,0.010630737816112183,0.0
14.179172,0.010630737816112184,0.0
14.183764,0.010630737816112184,0.0
14.188352000000002,0.010630737816112184,0.0
14.192944,0.010630737816112184,0.0
14.197524,0.008713440607893008,0.0
14.202116,0.005774524237880308,0.0
14.206712,0.004512292049017639,0.0
14.2113,0.004271679021948494,0.0
14.215896,0.0030094468330858254,0.0
14.220484,0.007547577598280227,0.0
14.225072,0.02035718418681791,0.0
14.229676,0.047856492446379476,0.0
14.234264,0.08758781206109054,0.0
14.23886,0.136367857232647,0.010994731324854222
14.243436,0.19742781160920336,0.021357622951294414
14.248036,0.2719114790666987,0.031128222016868184
14.252624,0.3595744901768418,0.040554569898966546
14.257224,0.4669572555014589,0.04927513986667132
14.261816,0.5829000075263387,0.058124695010693686
14.266412,0.7102232343085705,0.06692370377711868
14.271,0.8489269358481543,0.07568046070701387
14.275592,0.9997883618785923,0.08438267602012807
14.280184000000002,1.1670603152098324,0.09290443452325177
14.28478,1.3471450580512832,0.10139733954413357
14.289384000000002,1.5399204056887996,0.10987992756997524
14.293976,1.7511495189507047,0.11815801177024482
14.298568,1.9792778983699952,0.1262849958714543
14.303160000000002,2.221396772992324,0.13423659623643927
14.307748,2.4683013307298127,0.14212295663098243
14.312332,2.7096940363901623,0.15004524664036054
14.31692,2.9442917224286567,0.15800775818049353
14.321504,3.1674308904442814,0.1659546480204083
14.3261,3.3816876590658342,0.173877498676097
14.330688,3.595523492464586,0.17064805185425946
14.335287999999998,3.7969572319441895,0.16806091588495864
14.339864,3.9862773883815685,0.16607110491605787
14.344452,4.162051647023864,0.16445686764884726
14.349048,4.317739597309247,0.1635798181017926
14.353636000000002,4.468220929256669,0.16252096745256006
14.358244,4.6101422745038265,0.1614484091940166
14.362832,4.741704764155427,0.1603902209474062
14.367436,4.859432845135023,0.15941186450528289
14.372032,4.959440268775104,0.15860874348889384
14.37662,5.045324772866262,0.15782920313076615
14.381212,5.119129595732081,0.1570085455573137
14.385804,5.175991010991888,0.15632370779336013
14.390396,5.213499226179658,0.15582219586383828
14.394984,5.237750054449264,0.1554345397497931
14.399588,5.256027254279141,0.15509579862010672
14.404176,5.273971801783472,0.15466672852035207
14.408776,5.291173001371189,0.15412597788519009
14.41336,5.302278387805037,0.15363539520354316
14.41796,5.304711842456213,0.15324016553102618
14.42254,5.296674496429423,0.15298208170610997
14.427136,5.2896146281158,0.1526390669481315
14.431736,5.280545423295477,0.15223089101082196
14.436328,5.271143566149606,0.15173093281909814
14.440920000000002,5.260387437516394,0.15116671326001865
14.445512,5.247499787662338,0.15054924076290455
14.4501,5.227372520778472,0.15001350078642792
14.454684,5.203603374655386,0.14948865206993375
14.459272,5.177869033474232,0.1489497881606309
14.463864,5.151479627273719,0.1484030594735583
14.46846,5.128399447986879,0.14774476892437538
14.473052,5.101965900337737,0.1471300769909169
14.477644000000002,5.0693584962692055,0.1466227944776215
14.482224,5.040182503828491,0.14599310260227683
14.486816,5.01178376112128,0.14535178934859358
14.491404,4.983385018414068,0.14470530066388762
14.495992,4.952943037383268,0.14410866438771627
14.5006,4.922378871638323,0.14351614266404644
14.505188,4.896311878131619,0.14283327386494152
14.509784,4.880138663549039,0.14195890301756658
14.514372000000002,4.863354525395732,0.1411312510169815
14.51896,4.845060029224048,0.14037223152389078
14.523556,4.827586924234495,0.1396623181670804
14.528148000000002,4.807992537655838,0.1390730865599211
14.532752,4.789341726973456,0.1385221322049081
14.53734,4.769591253863762,0.13806603169497278
14.541936,4.756958213069734,0.13754318301493132
14.546512,4.750420985429578,0.1369842179159951
14.551100000000002,4.749979570943294,0.13638857010117347
14.555684,4.752280601248582,0.13580122222175045
14.560276000000002,4.753237599698269,0.1353366312006426
14.564868,4.76106766103533,0.13483537808630736
14.56946,4.7778140235833515,0.134242074246923
14.574048,4.794893038456923,0.133750820419758
14.578648,4.812016194779122,0.13332410698755573
14.583236,4.835357348969337,0.13286381012969029
14.587832,4.86683755463701,0.13233189377178028
14.59242,4.897995347610876,0.13189261608734515
14.597004000000002,4.93369445427161,0.1314488745727239
14.601592,4.96469616071444,0.13116326715763152
14.606184,5.0013829847200775,0.13082751828852163
14.610776,5.042200426821518,0.13045580153265632
14.615364,5.089069540628203,0.1300176664451678
14.61996,5.146076802787304,0.12941607748067857
14.62454,5.2090135519375025,0.12875851605393202
14.629131999999998,5.272238811964621,0.1281352791936839
14.63372,5.335874767582804,0.12755093110435398
14.638308,5.399877277343426,0.12695934704360476
14.642904,5.465267960408277,0.12633433418661935
14.647488,5.533601316244363,0.1256648159968028
14.652080000000002,5.6023012262228855,0.12497118648475801
14.656676,5.666870518105608,0.12432205466058109
14.661276,5.729108060787822,0.12369822484344728
14.665868,5.79399976536435,0.1229996138429887
14.670456,5.856559720740374,0.12231135907253737
14.675048,5.913678927981883,0.12165621177384811
14.679636,5.963314148765288,0.12107270894294299
14.684232000000002,6.017402400338305,0.12039303478908181
14.68882,6.068626022405603,0.11972424934529555
14.69342,6.125568663852599,0.11892727198124918
14.698012,6.181445544689173,0.1181143422004993
14.702604,6.23535723046768,0.11729742175637536
14.707184000000002,6.281662745073936,0.11655231741485325
14.711776,6.31856321961265,0.11589815703839987
14.716368,6.349123511569199,0.11527369760018057
14.720960000000002,6.381027835381351,0.11456532966698252
14.725548,6.407980149915569,0.11383937793616003
14.730136000000002,6.426060304687455,0.11320048194246655
14.734724,6.440132026077685,0.11258295116105788
14.73932,6.451461302676343,0.11195392623906313
14.743912000000002,6.459559395626846,0.1113368754173241
14.748504,6.467857716557013,0.11065931777545976
14.7531,6.471492539086167,0.1099880413173183
14.757676,6.469197874624222,0.10935735375908967
14.762272,6.467514133733007,0.10868663714922855
14.766852,6.462354839765346,0.10803845908233567
14.771440000000002,6.458339349673623,0.1073637742488292
14.776048,6.443897200352564,0.10676814202873514
14.780636,6.422259575450322,0.10623833335532717
14.785224,6.390850356338098,0.10579121143599159
14.789812,6.3518349660536275,0.10538447762492024
14.7944,6.307422969083268,0.10502396678753655
14.798992000000002,6.262478091807699,0.10464385599861808
14.803572,6.219332083427423,0.10424207258424104
14.808168000000002,6.172466152542414,0.10387795398446314
14.812756,6.120980864705018,0.10355707536131786
14.817356,6.070028457172834,0.10324648981630981
14.821943999999998,6.02189653769774,0.10289998776933953
14.82654,5.973520248794353,0.10256430967036559
14.831124,5.918892060206059,0.10233297856682073
14.835719999999998,5.869005413284296,0.10203664876028301
14.840312,5.821083961420602,0.10175731461495265
14.844908,5.779091996548008,0.10144007332882354
14.849504,5.738654531142416,0.10111848859576743
14.854104,5.6988721307561825,0.10080053014415762
14.858696000000002,5.664241967627543,0.10044833750083848
14.863288,5.629611804498906,0.10009190139172623
14.867876,5.6010333130755106,0.09969299969320988
14.872468,5.580671916395092,0.09921311814344408
14.877047999999998,5.566650702296837,0.09872646808436392
14.88164,5.5628117779996265,0.09818775911373884
14.886232,5.565679590427017,0.09762016345445562
14.890812,5.57153421707427,0.09706304200093503
14.895408,5.580620027369678,0.09650422712335849
14.899996000000002,5.60217573521801,0.09585499402828877
14.904592,5.628394941467355,0.09521127060702722
14.909184,5.657845331364854,0.09456565840948625
14.913772000000002,5.696045696310541,0.09387387911257034
14.918368,5.736333441028443,0.09320501385369714
14.922956,5.787658768546411,0.09243789222618014
14.927548000000002,5.840049856674799,0.0917209587800436
14.932132,5.889376087317808,0.09105274887206374
14.936724000000002,5.9374363293707315,0.09042663417843738
14.94132,5.9884833856435185,0.08981896795239581
14.945908,6.03994113750737,0.0892408870909602
14.950508,6.091931769676433,0.08868642114247756
14.955088,6.146787031351213,0.08815931827909211
14.959688,6.204629107245856,0.08765384934899148
14.964276000000002,6.262881878731565,0.08718688031975633
14.968876000000002,6.321379019645565,0.08671128448698052
14.973468,6.376034053340682,0.08628252235832085
14.97806,6.429789652588152,0.08586631400069746
14.982648,6.4827680021021195,0.08545146331260976
14.987244,6.531904244397204,0.08507679308402194
14.991832,6.571801772787517,0.08477809959437173
14.996424,6.612965289767917,0.08445782251938613
15.001012,6.655516980052545,0.0841108701083927
15.005608,6.692794248365434,0.08379531950544994
15.010192,6.730682440249051,0.08344908487670864
15.014780000000002,6.76035353738969,0.08315678074196961
15.019368,6.7839729628250875,0.08288472677810886
15.02396,6.8078367576887775,0.0825983860363271
15.028556000000002,6.8274477497425154,0.08232209508815568
15.033136,6.842273058681098,0.08203972882012862
15.037728,6.855543868152674,0.08175316059218729
15.042316,6.865583493976097,0.08146471619788635
15.046904,6.870715251970216,0.08117623169854667
15.0515,6.874003999620409,0.08085593780342187
15.05608,6.87009727168942,0.08057088835187087
15.060676,6.864513859577281,0.08028845035073538
15.065268,6.858764121302369,0.07997009146925045
15.069848,6.8508048185410955,0.07963772997655663
15.07444,6.843212069922259,0.07928512714500097
15.07902,6.839050732931243,0.0788807161380234
15.083616,6.835133765368514,0.07846097419531395
15.088196,6.824676387243961,0.07808227972585381
15.092796,6.809233098024586,0.07775019714402415
15.09738,6.790069886300472,0.07743924114676977
15.101972,6.766409502338122,0.07714607470891675
15.106564,6.7474906600423,0.07681929725211892
15.111160000000002,6.731392305803568,0.07647289980182405
15.115748,6.716315570726628,0.07611522652360418
15.120344,6.702793335116694,0.07576161190004642
15.124932,6.691847218135558,0.07540194435005139
15.129528,6.680246036135066,0.07503092060438418
15.134116,6.672486961353456,0.07463168082447326
15.138708,6.668203439648291,0.07422388370545996
15.143296,6.658689637420013,0.07387287279711077
15.147892,6.652240692677117,0.07348861650973951
15.152484,6.643748509610633,0.07312402505810077
15.157072,6.63272434936398,0.07280615232405609
15.16166,6.620312015813096,0.07251752078815296
15.166244,6.608432562567422,0.07224569192538875
15.170840000000002,6.591322828798634,0.072030390755863
15.175428,6.578954636696379,0.07178457160337501
15.180016000000002,6.571327986260654,0.07150797595861011
15.184608,6.568565062205604,0.0711955211925466
15.189196,6.569399875941146,0.07086977259832634
15.1938,6.574609677200781,0.07053534535799473
15.198384,6.5757330018132425,0.07024055518899869
15.202976,6.577877945587498,0.06993694073310745
15.207568000000002,6.581044508523547,0.0696246995617487
15.212148,6.589074797840271,0.0692800861266923
15.216752,6.601724444109381,0.06891864318520974
15.221332,6.617605274026646,0.06856707154200377
15.225928,6.632220115353825,0.06824081315261059
15.230512,6.64695714139515,0.06791001963815409
15.235112,6.668478947426593,0.06753580093904832
15.239696,6.69155525292504,0.06717123309897573
15.244292000000002,6.71961746951831,0.06677088710038118
15.248888,6.752543412492255,0.06634073755539445
15.253484,6.791232516294524,0.06588034962053821
15.25808,6.831842673706235,0.0654140750052973
15.26268,6.8783381766604155,0.06491033273011304
15.267272000000002,6.919725583805628,0.06445305008668328
15.271864,6.964832913455579,0.0639884032784844
15.276452,7.008918623943735,0.06353908344580918
15.281036,7.055169757469624,0.0630732402072581
15.285624,7.098600402938424,0.06262250987161569
15.29022,7.147139144216193,0.062134459760045245
15.294812,7.195555700779815,0.06165754360113071
15.2994,7.244627322362794,0.06119618539858278
15.303996,7.287036348669799,0.060768226937012004
15.308584,7.324703833310275,0.06036616850508742
15.313176,7.362493502664897,0.05996158257866056
15.317764,7.401304791181312,0.05955312355171111
15.32234,7.442037133307168,0.05914078843520565
15.326952,7.480848421823583,0.05874219260168857
15.33154,7.521702948663585,0.058333686972867074
15.336128,7.560636421894146,0.05793919205913452
15.340712,7.597893210943557,0.05754604706124254
15.345300000000002,7.63143007748823,0.05716766342077462
15.349896,7.661247021528166,0.05680187561514597
15.354484,7.6864446086157185,0.05644935573112882
15.359084,7.7129081842933545,0.056078231773473236
15.363672,7.732176284389808,0.055717791470809956
15.368272,7.74784664669567,0.05536220717357512
15.372852000000002,7.75967490178265,0.05502342936768839
15.377452000000002,7.773424210479071,0.054678145918131554
15.382044,7.782187608080671,0.054360284484970336
15.386636,7.789029952072829,0.05405000728819767
15.391216,7.791375123826747,0.05374330104397913
15.395808,7.798706206675486,0.05341112258509778
15.400412,7.801540117285987,0.05308065087394708
15.405008,7.798322356191246,0.05274258994578155
15.409592,7.7906074228582645,0.0524071590222545
15.414180000000002,7.773531590906367,0.05209223855157794
15.418768,7.750814782840291,0.051789808203060964
15.423348,7.720658129764741,0.05150088569617855
15.427944,7.6829394469655705,0.05122947105284379
15.432536,7.638680353604576,0.050969147597807775
15.437128,7.586737045805814,0.05073184602214844
15.441716,7.5292749466070195,0.050499287452242386
15.446308000000002,7.470546858818141,0.05028199881512107
15.450896,7.4098977174198195,0.05006803519868901
15.455492,7.345939349107826,0.0498809720880768
15.460076,7.274174581643923,0.0497233685555935
15.464664,7.1994671414087845,0.04957549599795806
15.469252,7.11449936810708,0.0494455651368933
15.473848,7.026955476176582,0.049306985851217414
15.478436,6.931971739236607,0.04917974084567521
15.483028,6.835189133401338,0.049048307903074934
15.487608000000002,6.725858586747626,0.048960401239102364
15.492212,6.61550642093212,0.04887504045488865
15.4968,6.50670875458362,0.04879533704567639
15.5014,6.391781373264359,0.048755964674951864
15.50598,6.277509056964453,0.04872988660049417
15.51058,6.164258359826341,0.04869275507012633
15.515168,6.046921186041056,0.04868440913910927
15.519760000000002,5.93101632700863,0.04869929987889116
15.524344,5.815766532995558,0.048726604125146504
15.52894,5.704481030915517,0.04872997048669357
15.533528,5.595116582444917,0.0487212874274013
15.538124,5.4821543961837245,0.04871315510186983
15.542712000000002,5.3673933410272365,0.04869871780245261
15.547296,5.2508334169754525,0.04868780798836946
15.551888000000002,5.139137219304345,0.0486530822623951
15.556476,5.022699479966707,0.04863561351119936
15.561064000000002,4.913701585638543,0.048595789151907896
15.565668,4.798818345767909,0.04859191443588394
15.570248,4.68855446284966,0.04857625874893959
15.574836,4.579967264112561,0.04856324678354258
15.579432,4.479064279813229,0.048511110032790176
15.584012,4.37689530692381,0.04848969489668021
15.5886,4.268840988491922,0.048509401639412905
15.593208,4.165894765869002,0.04847925456677743
15.597796,4.0652361509979595,0.04840014896321773
15.602392000000002,3.9625342978033307,0.04833569821373037
15.60698,3.865839974865317,0.04821041501089341
15.611568000000002,3.768612771622094,0.04804929668339487
15.616172,3.667543461159987,0.04791196205596157
15.62076,3.561610424317203,0.047803503036164784
15.625352,3.4524903452748936,0.04774378217072378
15.62994,3.3464351237179644,0.047628303114610526
15.634536,3.238214479123303,0.04754558496630333
15.639128,3.135101930337609,0.04737314903785441
15.643724,3.0319893815519148,0.047183738195459124
15.648308,2.9287546480520743,0.04701189341083451
15.652908,2.818735134562117,0.04689540164386038
15.6575,2.7180765196910754,0.04673078248150994
15.662096000000002,2.6136979823152973,0.04656442231416822
15.666688,2.50367846882534,0.04642158461628731
15.67128,2.3895724786882084,0.04635369482258161
15.675872000000002,2.278653530750603,0.04618787387602616
15.680464,2.1755409819649087,0.0458897158756422
15.685052,2.0714068140174215,0.045558238690182
15.68964,1.9628196152803228,0.045389544996757854
15.69422,1.8541102318290785,0.04524498689167103
15.698816,1.7402927525688665,0.04292566559187736
15.703399999999998,1.6244320349850672,0.04062388064256365
15.707988,1.5161333471248881,0.038297095519886436
15.71258,1.4134756353788878,0.03595848500592591
15.717168,1.3135162269758305,0.03358856517273894
15.721748000000002,1.2120464605543975,0.031273536572689165
15.726336,1.1142966166377009,0.028944342876034538
15.730924000000002,1.0128709916648957,0.02669448137936414
15.73552,0.9112009972637989,0.024471251080351756
15.740108,0.8164417239681879,0.022219319943137195
15.744708,0.7307952234619787,0.01993314887196748
15.749300000000002,0.6451524793569918,0.017672440263916487
15.753892,0.5667052108331877,0.015424420843473523
15.758484,0.49647503705236,0.01316427120223458
15.76308,0.43278527383335863,0.010852662509297412
15.767676000000002,0.37244887897665724,0.008615289327363464
15.772264,0.3126453644251667,0.006484347593937466
15.77686,0.2572168373977697,0.004412326971937749
15.781448,0.20947252480813827,0.002217594424737914
15.786052000000002,0.1672470036185396,0.0
15.79064,0.13246132743841513,0.0
15.795232,0.10499331155361907,0.0
15.799824,0.07830254540232522,0.0
15.80442,0.05418789787982925,0.0
15.809008,0.03481479202386388,0.0
15.813604000000002,0.020183227834429107,0.0
15.818192,0.008249966987937894,0.0
15.822784,0.0022020516839164742,0.0
15.827364,0.000773493332279983,0.0
15.831956000000002,0.000773493332279983,0.0
15.836544,0.0,0.0
15.841136,0.0,0.0
15.84572,0.0,0.0
15.850308000000002,0.0,0.0
15.854908000000002,0.0,0.0
15.859496,0.0,0.0
15.864088,0.0,0.0
15.868676,0.0,0.0
15.873264,0.0,0.0
15.877868,0.0,0.0
15.882456,0.0,0.0
15.887052,0.0,0.0
15.891648,0.0,0.0
15.896236000000002,0.0,0.0
15.900836000000002,0.0,0.0
15.905436000000002,0.0,0.0
15.91004,0.0,0.0
15.91462,0.0,0.0
15.919212000000002,0.0,0.0
15.923804,0.0,0.0
15.928404,0.0,0.0
15.932992,0.0,0.0
15.937596,0.0,0.0
15.942188000000002,0.0,0.0
15.946784,0.0,0.0
15.951368,0.0,0.0
15.955964000000002,0.0,0.0
15.960568,0.0,0.0
15.965164,0.0,0.0
15.96976,0.0,0.0
15.97436,0.0,0.0
