Time,Force,Position
19.060144000000008,0.06196666562107118,0.0
19.064732000000006,0.05547216477358085,0.0
19.069328,0.04909984864023619,0.0
19.073908000000003,0.04362696695453939,0.0
19.078488000000007,0.03623303165940121,0.0
19.083079999999995,0.02679585804067599,0.0
19.087676,0.01850248829788996,0.0
19.09226,0.011352922431043123,0.0
19.096872000000005,0.007268214049576857,0.0
19.101460000000003,0.00318350566811059,0.0
19.10605600000001,0.00012041644843784658,0.0
19.110640000000004,0.00012041644843784658,0.0
19.115228,0.0,0.0
19.11982400000001,0.0,0.0
19.124424000000005,0.0,0.0
19.129016000000007,0.0,0.0
19.133596,0.0,0.0
19.138196000000008,0.0,0.0
19.14278400000001,0.0,0.0
19.147384,0.0,0.0
19.151972,0.0,0.0
19.156572,0.0,0.0
19.161164,0.0,0.0
19.165756,0.0,0.0
19.170348000000004,0.0,0.0
19.174944,0.0,0.0
19.17953200000001,0.0,0.0
19.184132000000005,0.0,0.0
19.188728,0.0072685676593194914,0.0
19.193324000000004,0.030414782314230237,0.0
19.197916000000006,0.06666229735627113,0.0
19.202504000000005,0.11973103529017928,0.009786043480101786
19.207080000000005,0.18393587855314808,0.01939916582781262
19.211672000000007,0.2622194999164124,0.028570417448101217
19.21626400000001,0.3525386610563853,0.037627107123960814
19.22086,0.4548933619730667,0.046596176751107464
19.225452000000004,0.5717375365811087,0.055395359576821734
19.230036,0.7001285121092766,0.06423839800856025
19.234628,0.8437862110623073,0.07293567463464498
19.239216,1.003976622030286,0.08142715365051544
19.243808,1.179023060832062,0.0897961379043084
19.248408,1.370602211648786,0.09802137352788119
19.252996,1.578591889766312,0.10613911403398349
19.25758400000001,1.799027803251613,0.11429475923299268
19.262172000000007,2.038694732094805,0.12228540374703167
19.26676400000001,2.295549437972301,0.13019521954409813
19.271356,2.5654171613396706,0.13804094746510068
19.275952000000004,2.84485625093736,0.14577501331259968
19.280556000000004,3.119480706790382,0.15347748598329422
19.28513600000001,3.377860961505376,0.16120916660681417
19.289732,3.622729220242174,0.16891885745575025
19.29432,3.8473007030106596,0.16690144611919677
19.298919999999995,4.061268960755295,0.16506924134343662
19.303508000000008,4.262057874847283,0.16366156185091518
19.30809600000001,4.456574409990886,0.16223785875978106
19.312676,4.639177590071927,0.16089218676641842
19.317272000000003,4.805981166422894,0.15971101748238672
19.32186,4.961193800405108,0.15843514624349733
19.326452000000003,5.099951765637891,0.1572897215839075
19.33104400000001,5.218046400759923,0.1564040156379843
19.335628,5.320874312457092,0.15561837207719081
19.340216,5.406225936243038,0.15494123798279594
19.34481600000001,5.473079652955967,0.15437262986757092
19.349404000000007,5.52948623117608,0.15366088764073169
19.354,5.560199426741994,0.15318827896025916
19.358592,5.568161912424941,0.15285661191381233
19.363184000000004,5.565110477492974,0.1524796316976353
19.367784,5.548723612377323,0.15223911861343709
19.372372,5.527262553269593,0.15201716421325667
19.376964,5.505591026550461,0.15169674289969015
19.38154800000001,5.48477479283035,0.1513013048261761
19.386128,5.466202025413487,0.15077335649143198
19.390732,5.445619921489929,0.1501796234179379
19.39532,5.421518123041296,0.14958677365205392
19.399908,5.385968046201532,0.14919135170397524
19.404504000000003,5.346653905408402,0.1488176122587873
19.409092,5.307828503471854,0.14839714044646696
19.413684000000003,5.269003101535307,0.1479685278352368
19.418264000000008,5.2286232001317545,0.14754840190982962
19.422864000000004,5.1923297753753745,0.14701467647799596
19.427452,5.156158535333141,0.1464656657048093
19.432052,5.118599121986677,0.1459708165343523
19.436636000000007,5.083982381411447,0.1453973793825588
19.44122800000001,5.044257545027249,0.1449538725717996
19.44582,5.013282683691239,0.14435729630782218
19.450408,4.987704429041116,0.14365126128995956
19.45499600000001,4.958450393334884,0.14307738756302288
19.459592,4.932838236867872,0.14248983689547862
19.46418,4.910990144354225,0.14187616908237524
19.46878000000001,4.887798019984976,0.14137687008007563
19.473372,4.867881220712509,0.1408960336342774
19.47795600000001,4.850995377108533,0.14045582870922246
19.48254800000001,4.837262673887195,0.14004744301956548
19.487144,4.82704966519093,0.13963942478796904
19.491732,4.823299023790974,0.13915927497853545
19.496324,4.827687433868476,0.1385886404291275
19.500916000000004,4.837394407366351,0.13799450127321544
19.505496000000008,4.849599456227506,0.13743549042201314
19.510092,4.865079830185443,0.13689903962069022
19.514672000000004,4.882036660344868,0.13642330412744222
19.519260000000003,4.900592131419924,0.13599632460971584
19.52385600000001,4.925732154505436,0.13549858673071605
19.528444000000007,4.949772515163637,0.13509808906741413
19.53303200000001,4.983217915889382,0.13457571092851972
19.537624000000008,5.01821781608213,0.13405990298556655
19.542216,5.057636845247601,0.13354731477494
19.546816000000007,5.099387623613578,0.1330176642675044
19.551412,5.146002128360231,0.1323959446570413
19.556016,5.195970001469185,0.1317528240804961
19.560604,5.250557231530523,0.13102915968016188
19.56520400000001,5.299381300763537,0.13042528383521104
19.569792000000007,5.345262697225316,0.12988408618684563
19.574392000000003,5.391388463115387,0.12933177835850368
19.57898,5.440212532348401,0.12874866131622656
19.58358,5.491324209333293,0.1281106082976292
19.58816400000001,5.540881386851181,0.12750043218284499
19.59276,5.588106815168562,0.12691873459718217
19.597348,5.6332448637137285,0.12633571815488584
19.601944000000003,5.685778615819742,0.1256044736520804
19.606548000000004,5.740311464800713,0.12479420540499485
19.611144,5.796066160923141,0.12390602376180092
19.615724,5.848056793092203,0.12303810025976461
19.620312,5.900536164117848,0.12213474131438988
19.624892000000003,5.947208232866542,0.12129713003288105
19.629472000000007,5.991426367700583,0.12049148846139397
19.63406400000001,6.0309810041336105,0.11970979555660574
19.638652000000008,6.072412552727451,0.11885815967200378
19.64324000000001,6.109713483225491,0.11804897952872193
19.647828000000004,6.140185492284784,0.11730315354395418
19.652424,6.167792871838359,0.11655498431455671
19.65701200000001,6.200219836323983,0.11568726217801047
19.661592,6.237466385741655,0.11470485248220821
19.666204000000008,6.2736471745489055,0.11370276889210991
19.670784,6.305042280240997,0.11272571585421241
19.675392,6.334105636732581,0.1117640233465711
19.679976,6.357117321518923,0.1108534799137184
19.684568,6.370890292400496,0.11004530100106852
19.689164000000005,6.385929251872152,0.109208218634298
19.693752000000003,6.388131759648447,0.10852020881010888
19.69834400000001,6.384571106596417,0.10791081946929125
19.702924,6.375247292716065,0.10737709634255777
19.70752,6.364124609940417,0.10685949081605622
19.712108,6.354390100468998,0.1063020003393294
19.716712,6.34015841875934,0.10578423318048093
19.721304000000003,6.31926414177371,0.10534808280955714
19.7259,6.298247680073935,0.10491794039440705
19.73048,6.2744107303170695,0.10451946827399841
19.735076000000007,6.250329411131915,0.10413501104068597
19.739672,6.226125907232612,0.1037559576473497
19.744268000000005,6.203599087514461,0.10336560667054843
19.748856000000004,6.176619237006698,0.10306154453750943
19.753452,6.144409105975824,0.10284224865040469
19.75804000000001,6.1097891824789246,0.102675234424414
19.762628000000007,6.075946508715525,0.10250508792329055
19.767216000000005,6.041615096095546,0.10236323190194808
19.771812,6.01190304042795,0.10217151782796982
19.776404,5.988731395322182,0.10190778503118199
19.78098,5.961473273569238,0.10170528571629989
19.78557600000001,5.939489573788037,0.10146134921209199
19.790164000000004,5.91738368929269,0.10122383227677212
19.794756000000007,5.9045165187021125,0.10088997354489328
19.799344000000005,5.896390889778065,0.10050101807956771
19.803936000000007,5.888798141159229,0.10012950323838493
19.808540000000008,5.88995536758858,0.099699397807923
19.813124,5.8966313854179635,0.09921248009722669
19.81772000000001,5.904084652980849,0.09872616470440482
19.822312,5.9119486161348,0.09826464982770401
19.82690000000001,5.922755252059986,0.09776942083535538
19.831496,5.939857929118706,0.09722551313582459
19.836084,5.955328063444904,0.09673823749139951
19.84068000000001,5.972597066666401,0.0962354240795426
19.84526,5.9914205693549,0.09573279123029656
19.849860000000007,6.01269800595805,0.09522414219383914
19.854448000000005,6.037861691228714,0.09472349443699717
19.859048,6.062781007071084,0.09423942094951195
19.863640000000004,6.087744464362083,0.093807309778463
19.868236,6.1186374086441795,0.09335634459800254
19.872820000000004,6.1555820246315225,0.09287511396128723
19.877412000000007,6.195757824267016,0.09239613468596997
19.882012000000003,6.242884730055402,0.09188252294845588
19.886604000000005,6.283759736158882,0.09147044796970215
19.891204,6.321736210939755,0.09114441627453444
19.89580000000001,6.357058523826312,0.09088459267007457
19.900388000000007,6.385718241436898,0.09069338542887845
19.904976000000005,6.418752946571576,0.09048278898690727
19.909564000000003,6.457062073677997,0.09024839077232828
19.914159999999995,6.496803515537276,0.09002476657599373
19.918752,6.532746991626301,0.08988654688602044
19.923344,6.566769414105884,0.08977132159314093
19.927936000000003,6.604633943804349,0.08962084380262403
19.932528000000005,6.643275723236317,0.08947275863672047
19.937128,6.688580097944257,0.08926964959705098
19.941716,6.734661722385701,0.0890694479303041
19.946308,6.776246174588903,0.08889766378791977
19.950896,6.817586257363816,0.08873892374492244
19.955484,6.857371840671724,0.08857744464754794
19.960080000000005,6.893926240331476,0.08842228568118017
19.964664,6.927904521362433,0.08827893353154094
19.969252,6.957385630155148,0.08816302246165215
19.973848000000004,6.983513370585563,0.0880569579370806
19.978436,7.00935260013906,0.08792233056950148
19.98303200000001,7.034003884367991,0.0877640546045311
19.987616000000003,7.06167588463367,0.08752985922092293
19.99221200000001,7.092290557670586,0.08726638815777822
19.996796000000003,7.1175086240216165,0.08703606829448825
20.001396,7.130911857839078,0.0868775722364864
20.005980000000008,7.1432493310461185,0.08669005589465906
20.010580000000004,7.155787032232821,0.08644746221296613
20.015164,7.167914037828458,0.08618546430083592
20.019760000000005,7.172967752557059,0.08595617589552416
20.02436,7.177732956408741,0.08569953474675497
20.028952000000004,7.169783893279206,0.08551627419652347
20.03354,7.1599918198057475,0.0853011777527239
20.03813600000001,7.149256170436014,0.0850483126526534
20.042724000000007,7.138720749045943,0.08474041245027947
20.04732,7.128263370921389,0.08438391061587001
20.051908,7.1125315708250945,0.08404702305998442
20.056504000000004,7.09651125985188,0.08368160395724214
20.061092,7.080324622715891,0.08327968236586765
20.065684000000005,7.062705670827044,0.08286631464514571
20.070276000000007,7.045208903652343,0.08244492336391947
20.07486,7.027956505905933,0.08200903976451933
20.079452000000003,7.003142078435902,0.08162424561472614
20.084032000000008,6.9764846406219485,0.08120426611845133
20.088624,6.948761442197573,0.080750182417066
20.09322,6.9299884468010475,0.0802093736780963
20.097808,6.9046750408426965,0.07970621158338517
20.10242000000001,6.87527515823717,0.07924243205321424
20.107004000000003,6.8402342995174665,0.07881338367691917
20.111604,6.8100571671784405,0.07834079561656802
20.116200000000006,6.780779469287061,0.07786255642651047
20.120788000000005,6.759185985833445,0.0773212963991572
20.125380000000007,6.735549264056245,0.07679778026536524
20.129976,6.714366476193696,0.0762731209602375
20.134568,6.694616003084008,0.07575986022088181
20.139156,6.675154040851236,0.07527475253776737
20.143756,6.659289816409056,0.07477216747673053
20.148336,6.642403972805083,0.07427848014166147
20.152936,6.625928824792176,0.07380582369104664
20.157532000000003,6.609331492065122,0.07333806924122818
20.162132,6.591712540176275,0.07287819504465545
20.166716000000008,6.5742157730015744,0.07240969858442636
20.171308,6.565835535017498,0.07190026211848409
20.175908000000007,6.559298307377343,0.07142767584729931
20.180504,6.55472627479526,0.07098433871111466
20.185092,6.550032057499031,0.07055040296596828
20.189688000000004,6.555475988555219,0.0700691480330257
20.194276,6.569625753210966,0.06952867595573789
20.198864,6.591215362876188,0.0689521995312215
20.203452,6.613704406989056,0.06837872483546126
20.208032000000003,6.634028028064193,0.06783272883588067
20.212624000000005,6.653862910282747,0.06731695935599027
20.217212000000004,6.68011601834898,0.06678029549299683
20.221808,6.708290180024656,0.06623699267845089
20.226388,6.73736377614798,0.06569668606209898
20.230984000000007,6.769502229756684,0.06513609152183517
20.235572000000005,6.80523842115598,0.06457326804583148
20.240160000000003,6.845471784793515,0.0640067600202461
20.244755999999995,6.89159049397352,0.06341014849585981
20.249348,6.938364268172881,0.06282630502431781
20.253936,6.9888579648769795,0.062232139691006494
20.25852400000001,7.042827214657525,0.06164354967613861
20.26312,7.097163018580505,0.06104982280524578
20.267716000000007,7.15390861496951,0.060429731557221145
20.272312,7.214862872719836,0.059780625226500066
20.276912,7.274673326594221,0.05915404277622605
20.281492,7.333173650429894,0.058518934155526135
20.286096,7.38795405176083,0.05790475225176381
20.290684,7.440691214768179,0.057312297255003
20.29528400000001,7.4886868361089975,0.056740537840144004
20.299872000000008,7.537049011592252,0.056153078961946226
20.304456,7.586022110646235,0.05554248998522303
20.30905200000001,7.630375852747834,0.05494914792841419
20.313648,7.671664737364051,0.054379491715730845
20.318236,7.706413211418443,0.053827496555438635
20.322832000000005,7.735276339930365,0.05330585137877393
20.32743600000001,7.754900754537515,0.05280338881808306
20.332036,7.765042085811606,0.052330574119111795
20.336628000000005,7.764800899304988,0.051887766996192165
20.341220000000007,7.764026832493159,0.051428420766846956
20.34581200000001,7.762475515947828,0.050966178911459194
20.350396000000003,7.755405408002464,0.050512561875971494
20.354984,7.7377084128481,0.050095294174082414
20.35958000000001,7.709384530484735,0.04971257182283079
20.364164,7.671577564788309,0.04935288435691372
20.368744000000007,7.626985819101765,0.04901446841532344
20.37334,7.573199500959081,0.048725076132373306
20.377920000000003,7.514549456435717,0.04844921868773908
20.38251200000001,7.447560132455234,0.0481817697090466
20.387108,7.379549189312957,0.047915458925424446
20.391696,7.308351203971153,0.04766798948468443
20.396292000000003,7.228858080620856,0.04746906420087531
20.40088800000001,7.142335807852151,0.04730235996853885
20.405488000000005,7.050416928397556,0.04713060444712479
20.410072,6.957354245067023,0.046966949711366654
20.41466,6.8604494545176085,0.046811455605028196
20.419256000000004,6.76444409841584,0.04665008644397085
20.423844000000003,6.6672949384381335,0.04649836454940265
20.42844000000001,6.5718224626415775,0.046348378946491096
20.433028000000007,6.468543587693109,0.046222662492306256
20.437632000000008,6.353616206373847,0.04613595305969609
20.44222000000001,6.235623967569206,0.04606380196907042
20.446824000000007,6.11546630572683,0.04601112442684862
20.45141600000001,5.998251316655689,0.045940318177601636
20.456012,5.879115273975109,0.045869403191615116
20.460595999999995,5.757158743237437,0.0458037236561134
20.465192,5.638922135004504,0.04573159753421537
20.46978,5.516599050124396,0.045686824668423276
20.474372,5.394931030263645,0.04565630282385871
20.47896,5.2694209031840105,0.045635282954971976
20.483548,5.1399464841713485,0.045638723694763975
20.488132000000007,5.008917565691682,0.0456266368557976
20.49272000000001,4.880054070249747,0.04558859230665749
20.497312000000008,4.751723455113024,0.045574095781494746
20.501904,4.623515024690446,0.04554551943237665
20.506500000000003,4.494284975106075,0.045526112286278626
20.511088,4.361745698608032,0.04555723487136185
20.515676,4.230350225985928,0.04556652712644909
20.520256000000003,4.0971558844685285,0.04556640655666051
20.52484800000001,3.968336530475223,0.04558160525697438
20.529444,3.8461797717578894,0.04556759187840486
20.534032,3.7219797747169685,0.04558073998312963
20.53864,3.601744069609076,0.04556051591362101
20.543228,3.481263995072892,0.04555476109546249
20.547816,3.362094050575421,0.045609622113561926
20.552412000000004,3.2475434630303353,0.04565757154984401
20.557,3.1295173224088035,0.045682156529572096
20.561604000000003,3.0161105387396563,0.04570906109236596
20.566196000000005,2.9055242431275987,0.04572619316368251
20.570792,2.799557304467926,0.04572290597057585
20.575372,2.6966552232936336,0.045673760891834406
20.579968000000008,2.598128129643435,0.04564656308714012
20.584552,2.5012777201743868,0.04562828399408117
20.589152,2.4063483643147796,0.045595586773082064
20.593748000000005,2.3148945615316183,0.04557539799972759
20.598336000000003,2.2262612468055454,0.04553902657485257
20.602916000000008,2.1437576470502346,0.04537847644206167
20.607512,2.0617869276001346,0.045279289998283935
20.612116,1.980471273169391,0.04521653393901037
20.616712000000007,1.896457315395704,0.0451577769219321
20.621300000000005,1.809500684850782,0.045136666037278506
20.625892000000007,1.728307215134184,0.0450425912330641
20.63048000000001,1.6487904295987363,0.044957098942927834
20.635068000000004,1.5663309712920535,0.04269118352971296
20.639656,1.4851375015754553,0.040377426463540644
20.64424,1.4029224126970639,0.03806641890195121
20.648832,1.324182876895118,0.035780417924845036
20.653412000000003,1.2474865794167593,0.0334779744390142
20.658012,1.1698908474907528,0.031179073390305886
20.662596000000008,1.0920507461364548,0.028904779546024637
20.667188,1.0169089481251006,0.026659430904991968
20.671772000000004,0.9456092573326289,0.02439668610309883
20.676360000000003,0.8741873818260115,0.02213979001386387
20.680972,0.8036649407670421,0.01988926706410482
20.68556000000001,0.7301998269368378,0.017642149891559808
20.690148000000008,0.6582892125736378,0.015404272054174266
20.694744,0.5857694429054175,0.013256158285034798
20.699332,0.5179912149037277,0.011063840710548358
20.703924,0.45483234385442284,0.008853505568460996
20.708516000000003,0.3980916986527985,0.006627630851281053
20.713111999999995,0.3477692792988547,0.004382252659664995
20.717692,0.299123544126061,0.0021851952340454796
20.722292,0.2531761122962109,0.0
20.72688000000001,0.21466852547583493,0.0
20.731480000000005,0.1806581108936982,0.0
20.736064,0.1512670532639464,0.0
20.740656,0.1245742989771382,0.0
20.745244,0.09955822887148003,0.0
20.74984000000001,0.07903933100406108,0.0
20.754428000000004,0.06134092119373136,0.0
20.759024,0.045319195564551676,0.0
20.76361200000001,0.02917528522122633,0.0
20.768200000000007,0.01675129738263806,0.0
20.772776000000007,0.007025612886993339,0.0
20.777372,0.0020414700578792206,0.0
20.781964,0.0,0.0
20.786556000000004,0.0,0.0
20.791152,0.0,0.0
20.79574000000001,0.0,0.0
20.800336,0.0,0.0
20.804924,0.0,0.0
20.809512,0.0,0.0
20.814116,0.0,0.0
20.818704,0.0,0.0
20.823316000000005,0.0,0.0
20.827904000000004,0.0,0.0
20.832492,7.627499980969476e-05,0.0
20.83708800000001,0.00027473471376506057,0.0
20.84168,0.0023942480371618013,0.0
20.846280000000007,0.0034921421987650176,0.0
20.850871999999995,0.005489470808016086,0.0
20.855464,0.008508418579060678,0.0
20.860056,0.013326235245400973,0.0
20.864656,0.016100813588154222,0.0
20.86924400000001,0.021695879987996693,0.0
20.873844000000005,0.025492077492543466,0.0
20.878428,0.030187709444738083,0.0
20.883028,0.0360271452728719,0.0
20.887624,0.04186658110100572,0.0
20.89222000000001,0.04590714803384383,0.0
20.896812,0.04778229192894923,0.0
20.901408000000004,0.047782291928949235,0.0
20.905996,0.047782291928949235,0.0
20.910596,0.047782291928949235,0.0
20.915188,0.047782291928949235,0.0
20.919788,0.047782291928949235,0.0
20.92438,0.04770601692913954,0.0
20.928964000000008,0.047507557215184175,0.0
