Time,Force,Position
19.33332,0.168141383663661,0.0
19.3379,0.16381053758819553,0.0
19.342496,0.15612632315043004,0.0
19.347084,0.14333401290369693,0.0
19.351684,0.12849846433337675,0.0
19.356276,0.1203255110390286,0.0
19.360872,0.11779353385885886,0.0
19.36546,0.11742697971642184,0.0
19.370056,0.12041379393628487,0.0
19.37466,0.1304297575745569,0.0
19.379252,0.1442878284317117,0.0
19.383844,0.16300962566954277,0.0
19.388432,0.18365247651681518,0.0
19.39302,0.20429532736408762,0.0
19.397616,0.2240211483840627,0.0
19.4022,0.23787921924121744,0.0
19.406796,0.2527589092601658,0.0
19.411388,0.26481811122202487,0.0
19.41598,0.27610006345038174,0.0
19.420572,0.2860718856400256,0.0
19.425164,0.29694314227731733,0.0
19.429756,0.303727922267435,0.0
19.434348,0.3129666361722049,0.0
19.438928,0.3223275347911204,0.0
19.443524,0.335408355914773,0.0
19.448112,0.341704397048308,0.0
19.4527,0.3464459387148386,0.0
19.457296,0.34800043818184295,0.0
19.461888,0.34644593871483853,0.0
19.466488,0.34068277788651447,0.0
19.471072,0.3365963012393404,0.0
19.475668,0.32789046763978136,0.0
19.480256,0.31329928849775246,0.0
19.484852,0.29883029406986933,0.0
19.489436,0.2852607340896341,0.0
19.494028,0.27066955494760525,0.0
19.498620000000003,0.24992211476583673,0.0
19.503216,0.23007410903171602,0.0
19.507796,0.2112477224593888,0.0
19.512392,0.19307640090641812,0.0
19.516984,0.17848522176438927,0.0
19.521576,0.16311679288885825,0.0
19.52616,0.14633364464011808,0.0
19.530748000000003,0.1314715500008193,0.0
19.535336,0.11491517580072101,0.0
19.539928,0.1001752658755679,0.0
19.544516,0.08519098652212344,0.0
19.549112,0.0723721302064117,0.0
19.553704,0.06110777335770432,0.0
19.558292,0.050087785937288284,0.0
19.562876000000003,0.03726892962157654,0.0
19.567464,0.026886411840867496,0.0
19.572052,0.024310293212069612,0.0
19.576648,0.022755793745065252,0.0
19.58124,0.019280240668619514,0.0
19.585844,0.021323478992206563,0.0
19.590432,0.026580305584298476,0.0
19.59502,0.03657867384292098,0.0
19.599616,0.046577042101543495,0.0
19.604216,0.05567597591251816,0.0
19.60882,0.06029533286490309,0.0
19.6134,0.06773517787437723,0.0
19.617996,0.07274763503817781,0.0
19.622584,0.08135782999256978,0.0
19.627176,0.08410027478414149,0.0
19.631764,0.09246610031024212,0.0
19.636364,0.10226424058920143,0.0
19.640964,0.1112512293177692,0.0
19.645564,0.12498999934460638,0.0
19.650148,0.1460566692985108,0.0
19.654744,0.17342962001768894,0.0
19.659332,0.2074930010242274,0.0
19.663924,0.24271042553844385,0.0
19.668516,0.2822689357598645,0.00866393511811581
19.673116,0.3318095078026678,0.017124621251014743
19.677704,0.3886338383239102,0.02521067194449894
19.682288,0.45303043820051125,0.03317594288587555
19.686876,0.520013396337649,0.041182302129178255
19.691476,0.5979219921924455,0.04899172945103622
19.696068,0.6853239110120417,0.056709724857271604
19.700664,0.7786214150058468,0.0646130944779095
19.705256,0.8771594391545038,0.07251356366171606
19.709844,0.9887443826099239,0.08019435088931477
19.714444,1.1046704117725485,0.08780733665482021
19.719032,1.236752359175945,0.09529793027252137
19.723628,1.3689667309252258,0.1028816052111084
19.72822,1.5078097961335892,0.11039531837338605
19.732808,1.6549479993504466,0.11773088367228157
19.737404,1.8001549093261238,0.12496568295765773
19.741992,1.9357021701742272,0.13223238830794787
19.74658,2.063510835504198,0.13950356064537395
19.751176,2.182192732011806,0.14681431523127925
19.755768,2.2985767811357967,0.15404022350215266
19.760364000000003,2.4109082554295025,0.15261519839839222
19.764952,2.5226185665207415,0.15119116562805165
19.769556,2.625368434952392,0.15014176829712583
19.774144,2.718747165133387,0.14923873597893675
19.778736,2.803121311206165,0.14833010070316602
19.783328,2.8750153200942803,0.147637910408917
19.787928,2.939869939932248,0.1470176389702136
19.79252,3.005002831015396,0.1461166076630154
19.797116000000003,3.066694070838988,0.14514467653869276
19.801708,3.1171372602511123,0.14446434462426705
19.806304,3.158620007003647,0.14389273614548584
19.810892000000003,3.188033312162584,0.1434781474002888
19.815488,3.212039771003895,0.1429381005601363
19.820076,3.2264307221662607,0.1424866260210462
19.824672,3.233459871584669,0.1421969791515727
19.82926,3.2368912832124868,0.14201745206059443
19.833848,3.246374366545549,0.1416891370575185
19.838436,3.2556130804503187,0.1413899160026166
19.843028,3.265751228802736,0.1410600427817382
19.847616,3.2706149551834125,0.14087530385141242
19.852204,3.2717146176107232,0.1407229918160939
19.856792,3.262920501113907,0.14086446094488178
19.86138,3.2551480037788854,0.1409612619601419
19.865976,3.246720441424508,0.14105300588151173
19.870564,3.239436682946069,0.14108495752844044
19.875152,3.2352177819530104,0.14098421058831953
19.879752,3.2253137633971454,0.14098745302701474
19.884328,3.2126673000497084,0.14097124018399507
19.88892,3.1966674683399714,0.14102107319446147
19.893504,3.1820558099344654,0.1409815876409794
19.898096,3.1678107056713953,0.14089328991411987
19.902700000000003,3.154465035855974,0.14077994546624362
19.907288,3.1402199315929047,0.14069101978864007
19.911896,3.128550945958633,0.14053890813336373
19.916484,3.117004145038507,0.14036823549459898
19.921084,3.1052129746900903,0.14023247556298757
19.925672,3.0881473823699315,0.1402326617534081
19.930272,3.0746795278403645,0.140127651125068
19.934864,3.0631327269202386,0.13995258945267436
19.939464,3.052485360447761,0.139752446793142
19.944048,3.044414112604081,0.1394893675199275
19.948644,3.041617286732142,0.13908251872166708
19.953236,3.038043211126701,0.13868590269027117
19.957832,3.0360236349882643,0.1382687584921364
19.96242,3.0355585583168327,0.13783344579527426
19.967012,3.0314177005892917,0.1376141967613496
19.9716,3.0321847106910544,0.1373017631830638
19.976188,3.030541928326794,0.13713026145640794
19.980764,3.02955421098189,0.13696651413022184
19.985364,3.0304875472464277,0.13673404556363652
19.989956,3.033097567692115,0.13646726078195193
19.994548,3.037506457033098,0.13614924364148578
19.999132000000003,3.0434698458410847,0.1358147538448878
20.003724,3.048533800201424,0.1355081627155298
20.008316,3.050532897076384,0.13532727984247112
20.012896,3.055474666722577,0.13503561844133927
20.017484,3.063403250588634,0.1347263061599715
20.022088,3.0714540191688364,0.13440794451467264
20.02668,3.0775837341395973,0.1341578599257606
20.031268,3.0889878710820997,0.13378015506092988
20.035864,3.1030903113675463,0.13333762202730634
20.040452,3.118214370814785,0.13286777131975847
20.045048,3.1319502569577944,0.13248436042322095
20.04964,3.146707762262597,0.1320643012931997
20.054232,3.1603214636914605,0.13170209626387622
20.058824,3.1772443920339954,0.13118543094989887
20.063412,3.1932678859288837,0.130692732856628
20.068,3.209291379823771,0.13019488832926518
20.0726,3.224293254556865,0.12973369203538604
20.077192,3.236108087090433,0.12941134298840587
20.081788000000003,3.2498439732334425,0.12903616411959618
20.08638,3.2626804249288033,0.128687355570105
20.090976,3.2747396268906623,0.12834771868545794
20.095564,3.2866766441383755,0.12802475858649082
20.10016,3.3033552030526203,0.12755489161211755
20.104748,3.321055381128658,0.1270623887067312
20.109344,3.3358909296989783,0.12656307491197413
20.113924,3.3477838054980635,0.12616408227207107
20.118508,3.361475550192444,0.12572347193986683
20.1231,3.370914492076877,0.12536504727490613
20.127692,3.379576184227808,0.12502111450696712
20.132284,3.3836185194263533,0.12479490198549943
20.136876,3.388926843214984,0.12450187335752105
20.141472,3.393335732555967,0.12423070239499816
20.14606,3.397211741591739,0.12393364904464416
20.150656,3.401987185075159,0.12362109205150128
20.155244,3.40533031380572,0.12330121428126913
20.159824,3.412515549755165,0.12287609857953778
20.164436,3.420722404866402,0.12241433464432275
20.169024,3.433915171072462,0.12180114730258788
20.17362,3.443143645345493,0.1213143482327865
20.178204,3.45417098851382,0.1207944502677616
20.182796,3.4629107239302686,0.12036655274947461
20.187392000000003,3.471650459346717,0.11993865523118762
20.191992,3.4796129450296633,0.11952119229553543
20.196588,3.4801355857031355,0.11928108593165819
20.201168000000003,3.484133779453053,0.11898192976012607
20.205768,3.4909524612600595,0.1186142644034204
20.210356,3.4985483928005694,0.11824716160226509
20.214952,3.508476073541585,0.11787084704100032
20.219536,3.5164827006731594,0.11754858971510183
20.224136,3.5255109469665267,0.1171908569768679
20.228732,3.537115311888693,0.11679906861536435
20.233324,3.5503963609920084,0.11639028445017388
20.237920000000003,3.5661313440099764,0.11596082972694102
20.242516,3.5806003384378604,0.11559633195462637
20.247112,3.600343754837484,0.11515065374705333
20.251708,3.6181661176276676,0.11476175736963949
20.256296,3.6390533379032313,0.11429205208487697
20.260892,3.6553212012264096,0.11392236393164935
20.265472000000003,3.6745317373208235,0.11348111876498404
20.27006,3.69284283896759,0.11306223148312075
20.274648,3.7135637330803797,0.11254178925035463
20.27924,3.7364500502309026,0.11195819187746317
20.283836,3.757170944343693,0.11144549505612916
20.288428,3.787130552361252,0.1107566509629701
20.293024000000003,3.8149247373410797,0.11014421929713046
20.297612,3.840020618977963,0.10958114594207019
20.302204,3.8634398164336963,0.1090399603845612
20.306796,3.8846494494030686,0.10849458472870734
20.311384,3.9035714746205628,0.10802446248450383
20.315992,3.9260912376286488,0.10750182438225551
20.320572,3.9453798169885803,0.10700440675653115
20.32516,3.961192843272066,0.10655149706259288
20.329756,3.9741853814984625,0.10615447345985873
20.334348,3.984846170524352,0.10576049464618806
20.33896,3.9890887337025607,0.1054785345443742
20.343548,3.991410243271328,0.10523725043725414
20.348144,3.9943868178594526,0.1050125539091632
20.352724,3.9991622613428723,0.10476170786815013
20.357328000000003,4.001117216769203,0.10456363255560537
20.361916,4.0001294994242995,0.10442944905895041
20.366516,4.001062835688837,0.10425772398789468
20.371096,3.998686945039702,0.10418631963518156
20.375688,3.998354292714154,0.10406472955713092
20.380284,3.9934022834362217,0.10401884297537616
20.384880000000003,3.9885724588724343,0.10396099126871518
20.38946,3.9852971337756515,0.10390238688384862
20.394056,3.981899623964723,0.1038557937433457
20.398652,3.977113940849564,0.10387026330493486
20.40324,3.974738050200429,0.1037986540557509
20.407828,3.968764421760703,0.10377719900199574
20.412416,3.965366911949775,0.10372990160415915
20.416996,3.9646677054817907,0.10364551699546326
20.421596,3.9645794225845346,0.10350005907093353
20.42618,3.9670672583160767,0.10332970272424231
20.430764000000003,3.974174451000003,0.10308521935957572
20.435352,3.9814038283980757,0.10282723298148239
20.439932,3.9822149799484676,0.10266874650424912
20.444524,3.9794283937082677,0.10255903144789875
20.449108000000003,3.975986742448711,0.10243651886287992
20.453696,3.975732133388681,0.10222698318059065
20.458292,3.9752331549003594,0.10204391462711017
20.462876,3.9790650224875033,0.1017413299325849
20.467464,3.9841628786647316,0.10139455736267919
20.472068,3.990282354003754,0.1010260396689298
20.476656,3.9967683834852132,0.10062265635800875
20.481252,4.001822098213814,0.10020663098007147
20.485840000000003,4.006220747923058,0.09977761295432978
20.490436000000003,4.016382558460626,0.09924789000754444
20.495016,4.029364857055284,0.0986800180159999
20.499616000000003,4.045167643707031,0.09807098853140331
20.504208,4.056228888692247,0.09753924571398151
20.508808,4.068433937553403,0.09697993661363533
20.513392000000003,4.0829707356150635,0.09642802473920835
20.517976000000004,4.09570866478143,0.0958979818091292
20.52258,4.105992660033144,0.09537908608354768
20.527172,4.116154470570713,0.09486937600179084
20.53176,4.129258953879516,0.09430226011859986
20.536356,4.146982794140704,0.09367191909987037
20.540944000000003,4.16728275303069,0.09302244697816582
20.545532,4.187338342492385,0.09240294827026957
20.55012,4.204817813325281,0.09180599187257438
20.554716,4.218332992225151,0.09128881408923128
20.559304000000004,4.225962825582549,0.09087443791545058
20.563904,4.232693224492299,0.09047193662720676
20.568496000000003,4.240323057849698,0.09006296806317891
20.573084,4.249873944816539,0.08962606503582018
20.577676000000004,4.261101515964528,0.08918336663626525
20.582264,4.266688110998339,0.0888198701835457
20.58686,4.26753316436562,0.0885243401866652
20.591444000000003,4.265679914389957,0.0882557425792956
20.596032,4.266524967757238,0.0879593474377419
20.600632000000004,4.265326782800932,0.0877038747384254
20.605212,4.263229163396978,0.08745842246948206
20.609808,4.262275347868962,0.08718232263291523
20.614400000000003,4.267861942902774,0.0868321301540323
20.618992,4.275736145688464,0.08642407114298593
20.623584,4.281811479578859,0.08603097788653974
20.628164,4.2850663254121635,0.08567355032988196
20.632764,4.289464975121407,0.08529040300087966
20.637352,4.292186940649502,0.08491220766263023
20.641952000000003,4.292865667854009,0.08456751364691252
20.64654,4.293666579772662,0.08421096038233503
20.65114,4.2992090333578465,0.08379287076720918
20.655732,4.302830433333587,0.08339958352695037
20.660328,4.3051858447192455,0.08304762917964721
20.664916,4.306519636943108,0.08271528126573917
20.669508,4.309363787185347,0.08232581590643424
20.674100000000003,4.314495545179466,0.08187874933780094
20.678692,4.323469410392467,0.08138371175268416
20.683272,4.330400037281881,0.08092010320178945
20.687856000000004,4.336919968580229,0.0804207182268439
20.692444,4.341641030983283,0.0799335004937281
20.69704,4.3455848436528335,0.07944427687218193
20.701632000000004,4.346341614122858,0.07901584201766983
20.70622,4.338392550993324,0.07870371179588036
20.710812000000004,4.329055314559559,0.0784406011007718
20.7154,4.32625848868762,0.07811289601484293
20.719992,4.324483281977475,0.07776788514048703
20.724576,4.317844348886654,0.07748480628280702
20.729164000000004,4.313004284691128,0.07718922623688032
20.733756,4.315970619647514,0.07679503194070071
20.738344,4.320735823499194,0.07638984293416252
20.742936,4.324479408189083,0.07600234759631018
20.74752,4.329000242612472,0.07561709539223405
20.752112000000004,4.334787065625947,0.07519649249977578
20.756708000000003,4.340573888639422,0.07477690958813833
20.761284000000003,4.341785496149139,0.07446310453391301
20.765888000000004,4.344795972554153,0.074140924896019
20.770476,4.344863776187932,0.0738560300438657
20.775076,4.349795306202387,0.07351445649381759
20.77966,4.3561591509697015,0.07319433220302646
20.784260000000003,4.366365102955898,0.07283496008749522
20.788844000000005,4.373872751599151,0.07248922202460222
20.793436,4.389186799394315,0.0720563335082735
20.798036000000003,4.406421900798921,0.07159956833038786
20.802632000000003,4.424800806079465,0.07111969309070264
20.807232,4.434473877760451,0.07073644910649282
20.811828,4.4441469494414365,0.07035451801364438
20.816424,4.4607269858266845,0.06989279551142137
20.821020000000004,4.474608718868991,0.06944549244721566
20.825608000000003,4.482605106368826,0.06907042992162364
20.830192000000004,4.489824244135159,0.06869182777614927
20.83478,4.497165566615638,0.06830412635807412
20.839372000000004,4.511291669086234,0.06785507301651836
20.843968000000004,4.523374533233244,0.06743493526345838
20.848556,4.533414159056667,0.06704089805818589
20.853152,4.545741392631968,0.06659810586638425
20.85774,4.5548815840077435,0.06620825827103013
20.862332,4.566065013707106,0.06579274357534053
20.86692,4.575449574511172,0.06538822304345193
20.871508,4.5840568855817345,0.0649793055888594
20.876104,4.594340880833449,0.064579905828434
20.880684,4.6109209172186985,0.06416016339827743
20.88528,4.6217377927756225,0.06379278924683288
20.889876,4.636396775551431,0.06339774011462687
20.894464,4.650278508593735,0.06299908446999429
20.89906,4.669023968016717,0.06255584355336308
20.903656,4.688791046601492,0.06210390350976252
20.908248,4.702550594929652,0.06171857766861713
20.912836,4.721706749943698,0.06132085787332506
20.917428,4.741762339405393,0.0609206625361035
20.922016,4.760551940277003,0.060551137532998935
20.926616000000003,4.780363160310406,0.060173137072918985
20.931200000000004,4.790813481724893,0.05984925924382208
20.935796000000003,4.8033070414629675,0.05950398769506044
20.940388,4.819764893134071,0.05912389739722047
20.944984,4.83916541757641,0.058724474686112
20.949572000000003,4.862530233951777,0.058293283560253345
20.954164,4.882830192841762,0.05789548834067411
20.958756,4.90366303203696,0.05752472545846101
20.963348000000003,4.926416924841598,0.05714540787712781
20.96794,4.943774210960348,0.05677993515804012
20.972524,4.955734890393212,0.056427211691360224
20.977112,4.968961558416161,0.056047606029250074
20.981708000000005,4.978712673362663,0.055668721791273135
20.986304000000004,4.990262657204463,0.055290232634510085
20.990892,5.000135956865112,0.05490707124562893
20.995484000000005,5.010786506259263,0.054534729805808896
21.000072000000003,5.024379728424649,0.05414187809710473
21.004668,5.031554724742355,0.053766597637449655
21.009256,5.038851905774205,0.053383481703806024
21.013844,5.046271271520201,0.052990677220726215
21.01844,5.053568452552052,0.05260885636254799
21.023028000000004,5.061765068031551,0.05222164298341426
21.02762,5.069961683511051,0.05183725994428554
21.032212,5.076115060666961,0.051473557194871226
21.0368,5.076383092280404,0.05114826820414273
21.041396,5.072931201389109,0.05083519124358372
21.045992,5.072299798554902,0.050511539208538556
21.050588000000005,5.069214461806045,0.05017223406088559
21.055176000000003,5.06126539867651,0.04985995608357129
21.059768,5.051395281937534,0.04955349047100043
21.064356000000004,5.043079664665563,0.04926193395388218
21.068960000000004,5.031088266337484,0.04903837337814113
21.073548,5.016609032277863,0.048926883074239313
21.078148,5.002873146134853,0.048953780596812886
