Time,Force,Position
19.65878,0.1276696865623329,0.0
19.66338,0.14098153943506642,0.0
19.667968,0.15365166496765387,0.0
19.672564,0.16235749856721288,0.0
19.677156,0.16427855217665424,0.0
19.681752,0.1622353138530672,0.0
19.68634,0.1588039022252496,0.0
19.690936,0.15537249059743202,0.0
19.695524,0.15373994786491016,0.0
19.70012,0.15811493538900376,0.0
19.704708,0.16416660709424738,0.0
19.709296,0.16204532550514278,0.0
19.713872,0.1569505673753856,0.0
19.718468,0.14699208286495213,0.0
19.72306,0.13817740223045788,0.0
19.727652,0.13756647865972954,0.0
19.732248,0.13527887090785115,0.0
19.736828,0.13299126315597276,0.0
19.74142,0.1323803395852444,0.0
19.746008,0.1275607546531963,0.0
19.750596,0.11799962805461758,0.0
19.755192,0.10484076366544746,0.0
19.759776,0.09119316041969465,0.0
19.764388,0.07865855728046332,0.0
19.768976,0.06816719246481903,0.0
19.773564,0.06167092335162089,0.0
19.77816,0.0552968389525684,0.0
19.782752,0.04982218900116378,0.0
19.787348,0.04242648544031776,0.0
19.791936,0.0341313474318239,0.0
19.796536,0.03352042386109554,0.0
19.801124,0.0380175960993348,0.0
19.805724,0.04855310236360724,0.0
19.810312,0.057167555018438315,0.0
19.81492,0.06733650714027374,0.0
19.819504,0.07608648218846091,0.0
19.824096,0.08189378446541319,0.0
19.828688,0.0857800331329241,0.0
19.833288,0.09068790096222852,0.0
19.837884,0.09866062627691351,0.0
19.84248,0.11047545881048125,0.0
19.847068,0.11844818412516624,0.0
19.851664,0.12498859468699254,0.0
19.856252,0.13491317738053663,0.0
19.860836,0.14279452175049367,0.0
19.865424,0.14668077041800456,0.0
19.870024,0.14684709658077838,0.0
19.874612,0.14611398829590436,0.0
19.879204,0.1476684877629087,0.0
19.8838,0.14832355278226522,0.0
19.888388,0.14423707613509112,0.0
19.892976,0.14297108754500626,0.0
19.897564,0.13912898032612353,0.0
19.90216,0.1372079267166821,0.0
19.906756,0.13397674306852772,0.0
19.911344,0.12972394025857983,0.0
19.91594,0.13009049440101683,0.0
19.920528,0.13442134047648227,0.0
19.925116,0.1346657099047736,0.0
19.929712,0.13871828473505834,0.0
19.934304,0.14416927250131237,0.0
19.938912,0.16025738710830562,0.0
19.943492,0.18535008582351611,0.0
19.948088,0.2177706844657939,0.00697022121827869
19.952676,0.26364889800590013,0.013631714301742884
19.95728,0.32016423838674546,0.020268049025023167
19.961868,0.39295768172250845,0.026613601709195602
19.966472,0.47344557912777574,0.033047476540914875
19.971064,0.5603619420124625,0.03962499772323905
19.975652,0.6535845856624228,0.04638086244779592
19.980232,0.7543794986677419,0.053202247162091675
19.984824,0.858005139361889,0.060116808193302326
19.989424,0.9679370608213098,0.06713665741281008
19.99402,1.085563436350235,0.07417354651493425
19.998612,1.2099848315010164,0.08121682639877423
20.003204,1.3419784960071566,0.08831240032122474
20.007792,1.482443864316303,0.09535115818030925
20.012388,1.6254955908859863,0.10250827053879358
20.016976,1.781472052048287,0.10958722180086482
20.021564,1.935238948724227,0.1166930105072861
20.026148,2.0891619319312023,0.12369083382587605
20.030736,2.2391103835734096,0.1306021646771301
20.035336,2.3819753047168413,0.13746017710206704
20.039924,2.5117050236562535,0.13739520881954218
20.04452,2.6310419851832187,0.13760028179711198
20.049104,2.740274700174654,0.13791538639375844
20.053692,2.837604299735267,0.13852825693163903
20.058284,2.926995075798083,0.1390835982636844
20.062872,3.0113897011343393,0.13946305241255752
20.067464,3.0912769146006167,0.13960242185233357
20.072048,3.1607713706544467,0.13976172353335412
20.07664,3.219750884581683,0.13995673667718853
20.081244,3.2712803138677065,0.14007165751755682
20.085824,3.31499310437008,0.14018543761186228
20.090424,3.353343190003456,0.14025821464096486
20.095004,3.383588125976262,0.14027221489355937
20.099604,3.4020079897837614,0.14036175737686815
20.104192,3.417064245597223,0.14023557915423435
20.108796,3.4254476665029734,0.14006902506763338
20.113376,3.4314551967595883,0.13984505787776147
20.117976,3.429612186415664,0.13980862697356763
20.122564,3.42302763440521,0.13992347903474112
20.12716,3.4155436479471075,0.1400599694866681
20.131748,3.411413029851305,0.14013341398232043
20.136344,3.402540870088972,0.14036202547584575
20.140936,3.395545622487453,0.14044100298112688
20.14552,3.386096440971281,0.1405641352831123
20.150108,3.3781576174734855,0.14058212452382995
20.154688,3.3680092294893287,0.14060899201097335
20.159284,3.3591268300952573,0.14055983716230985
20.163876,3.357151395405449,0.14026992755064305
20.168472,3.3600396870963163,0.13981345796463615
20.17306,3.3649712171107717,0.1392794967004564
20.17766,3.3703914859818096,0.138684557806616
20.182248,3.369515713719312,0.13825035624284338
20.18684,3.3704388103521095,0.13776919162995876
20.191428,3.3712397222707633,0.13729899985422603
20.196016,3.3671769078087395,0.13699557086002256
20.200612,3.3574731172325385,0.13686623845546836
20.2052,3.346747707494542,0.13677558366931916
20.209788,3.340519469994786,0.13656505671271577
20.214384,3.3365788402469083,0.13624162060801365
20.218976,3.332638210499031,0.13591790502452
20.22358,3.3249776582464157,0.13570587854665883
20.228176,3.3214035826409747,0.1353283226091544
20.232772,3.314398095407716,0.13512264983574446
20.237356,3.3066153584409554,0.13492584018928555
20.241956,3.297811002312401,0.13476938537471456
20.246536,3.288640092041411,0.13466221304178055
20.251136,3.2735838362279495,0.1347724071080444
20.25572,3.2523978654437276,0.13512804551640864
20.260316,3.230434644926004,0.13548587418455235
20.264908,3.2096152282842185,0.13577173037203533
20.269504,3.1913719302712322,0.1359906135442843
20.274104,3.181712281143658,0.1359349500884046
20.278696,3.1682105247972014,0.136005626318669
20.2833,3.157407071793688,0.13600542223215095
20.287896,3.151100791028415,0.13588772795719212
20.292484,3.1474928136060836,0.13569811813655777
20.297072,3.1446620859172563,0.1355004063564394
20.30166,3.141953542942574,0.13528704576880093
20.30624,3.143864356920276,0.13494659335567266
20.310836,3.1455308014696874,0.13463810045689956
20.315424,3.153982026009216,0.1341092518371255
20.320016,3.160267827511012,0.13367081837432138
20.324604,3.1737049631453624,0.13296869975144554
20.329196,3.1918836404462447,0.13212382630389352
20.333784,3.208796329157041,0.13134668500016028
20.338364,3.226730637029631,0.13052888043205685
20.34298,3.247241063531019,0.1296462163363017
20.347564,3.270161282498431,0.12862924292544164
20.352172,3.292182067018196,0.1276372413499394
20.35676,3.3117930590719356,0.12678425825754103
20.361364,3.326662509459145,0.12608176896665332
20.365956,3.3367904181798242,0.1255322018362808
20.370548,3.351537683852888,0.12485625634738869
20.375144,3.3653855150783043,0.12420669308761426
20.379736,3.3766572276749223,0.1236093999673198
20.384336,3.385763517233807,0.12309711187305378
20.38892,3.394214741773337,0.12257425690947554
20.393516,3.4007449127034244,0.12211190502897716
20.398108,3.399346499767455,0.12191616474572489
20.402708,3.396027033222044,0.12177793914447553
20.407292,3.3923410125341964,0.12168613990193432
20.411896,3.3942959679605273,0.12144295033764514
20.416488,3.392941696473186,0.12133705741890272
20.421084,3.388400382786319,0.12134821786700765
20.425668,3.385902307423038,0.1212913410910092
20.430264,3.3871241545644954,0.12114504863722438
20.43486,3.387690936686595,0.12098770344457907
20.43946,3.3898122182757,0.120823891360055
20.444048,3.3933658146176633,0.12066716331068454
20.448644,3.393199488454889,0.1205975517577202
20.453236,3.393810412025618,0.12052309704576306
20.457832,3.396220204491642,0.12041054262066193
20.46242,3.398629996957665,0.12029997578064754
20.46702,3.4010397894236895,0.12018969193889327
20.471604,3.4054928202133,0.1200140472638799
20.476196,3.4122334587547893,0.11974107704382268
20.480784,3.4195069776014897,0.11949300190803876
20.485372,3.4284571806293407,0.1192228825760071
20.489968,3.4383068181048384,0.1189254148338972
20.494556,3.450077509189778,0.11857043240978442
20.499144,3.457106658608188,0.11834439738209672
20.50374,3.4601715160935687,0.11824306006508074
20.508324,3.460293700807714,0.11822814083777414
20.512912,3.4643801774548884,0.11809337205317448
20.5175,3.46462454688318,0.11806355504006669
20.522092,3.4621706129685275,0.1180894699203853
20.526696,3.460616113501523,0.11809695165422282
20.531276,3.4531762684920486,0.11827609182034181
20.53588,3.4468802273585135,0.11840491415001485
20.54046,3.4491678351103916,0.11830993018143332
20.545056,3.456074799814655,0.11811105146672433
20.54964,3.4636368295382747,0.117925649836535
20.554236,3.4702994248142467,0.11776098650245861
20.55882,3.473897162604838,0.11769000633184513
20.563412,3.478149965414786,0.11763180196809192
20.568004,3.486899940462973,0.11749244347117146
20.5726,3.5006358266059823,0.11722131545847647
20.577188,3.5151489624824936,0.11695092472855242
20.58178,3.534648009453827,0.11654716330242579
20.586368,3.5559459253204553,0.11611515861023809
20.590952,3.5801865139583198,0.11560578173358248
20.59554,3.606470340919771,0.11504199031633301
20.600132,3.6358190253666027,0.11438530678278515
20.604728,3.661203417880406,0.11383991254494852
20.609328,3.6923509712225324,0.11315959202825228
20.61392,3.7212109168127814,0.1125652491256629
20.618508,3.749948677688885,0.11198564873954019
20.623108,3.7887804454687775,0.11113655224542149
20.627688,3.8256911596392285,0.11034119965206918
20.632284,3.8570830824096474,0.10966817972929489
20.636868,3.8823011487606762,0.10909066315737394
20.641456,3.905842530930556,0.10853326863511012
20.646052,3.9283622939386413,0.10800663269103149
20.65064,3.9595878905462865,0.1072927466435263
20.655228,3.985949760773255,0.10668646468122506
20.659832,4.006548470171899,0.10621408905278368
20.66442,4.017664096237482,0.10593423274261218
20.669024,4.0255485386549115,0.10567253834976212
20.67362,4.033555165786486,0.10540529072797741
20.678212,4.043849400669939,0.10506993053732479
20.682796,4.054143635553391,0.10473754743000079
20.687396,4.063782805417487,0.104398385158592
20.691984,4.073544159995729,0.10405053073251924
20.696584,4.090090294564088,0.10357798736474567
20.701176,4.106758613846593,0.10310573585355601
20.705772,4.124937291147475,0.10256306990540895
20.710368,4.146180825933737,0.10195875449484779
20.71496,4.158474157692148,0.10154271257089215
20.719556,4.173177281916583,0.10105331843723744
20.724152,4.18980145975046,0.10053279055221591
20.728752,4.215131471183896,0.09987084869048574
20.733348,4.240705852045624,0.09918826756633017
20.73794,4.264481364012055,0.0985226727595606
20.74254,4.285558572635543,0.09790903955830624
20.747128,4.3106000731920595,0.09721783503224339
20.751716,4.336008127891014,0.0964902865671224
20.756304,4.369100397027733,0.0956335057402258
20.7609,4.406689838402691,0.0947324516767478
20.765492,4.440559357272913,0.09389397547776152
20.770084,4.467644096153018,0.09317459128351263
20.774676,4.492030531690177,0.09248403560364045
20.779268,4.513474294456103,0.0918454135414728
20.78386,4.535040241936174,0.09120304646390436
20.788452,4.54916634440677,0.09066481107219233
20.79304,4.560349774106132,0.09018037441285567
20.797624,4.571288834377203,0.08971862830363786
20.802212,4.579407406591184,0.08929821731667126
20.806804,4.592634074614132,0.08878291015696889
20.811396,4.600630462113967,0.08837308695841292
20.815992,4.604784742394921,0.08801664133470154
20.820596,4.59729051630508,0.08783391028679939
20.825188,4.587875236605797,0.08767740267392063
20.829784,4.581769183820187,0.08744286159021965
20.834372,4.570022154920397,0.08727756023118431
20.838964,4.559541114610695,0.0870725102118627
20.843552,4.549060074300989,0.08686626267349293
20.848152,4.53563636122005,0.08670360490802392
20.85274,4.517593291186727,0.08658846423649964
20.85734,4.499428036439257,0.08648262882379164
20.861936,4.480607716672431,0.08636356675973408
20.866528,4.46076577774381,0.08626299184151139
20.871124,4.4427227077104865,0.08614600590627228
20.87572,4.419815911296486,0.08609971396583116
20.880308,4.396009680434838,0.08606201903958836
20.884904,4.3714261998396875,0.08602019705778668
20.889492,4.346065469511036,0.08597414515746209
20.894092,4.320460369754092,0.08594840759730041
20.898684,4.289747174188181,0.08601476801204265
20.903268,4.261077216945856,0.08604604171103865
20.907856,4.236249366922414,0.08602293191785665
20.912452,4.220005165784387,0.08588315398232724
20.917044,4.205926387684091,0.08569254948331802
20.921628,4.190337251565419,0.08556299213774499
20.926216,4.174625930732602,0.08544423767853761
20.930804,4.157892990737991,0.08534144550603158
20.935392,4.144102723514614,0.08519170295660768
20.939984,4.131578444881323,0.08500062297822865
20.944572,4.1201979701239715,0.0847787873822702
20.94918,4.106896441757178,0.08458158727857759
20.953772,4.100790388971567,0.08432407500684631
20.95838,4.103512354499662,0.08393797893714589
20.962968,4.105457070294254,0.08354786369172935
20.967572,4.114186566078963,0.08306464949361951
20.972164,4.125736549920762,0.08254672620198095
20.976752,4.134466045705472,0.08205620966264889
20.981348,4.144994410385477,0.08155299550000683
20.985944,4.1531910258649765,0.08103546767951517
20.990536,4.166251367725151,0.08044823350422661
20.995116,4.183153816804208,0.07981605378051772
20.999716,4.198379581702116,0.07918981833336312
21.004308,4.208741620219348,0.07863338586162064
21.008912,4.220780342917729,0.07808046204663864
21.013504,4.231264566149106,0.07751705017826342
21.018104,4.246612515761159,0.0768886203945498
21.0227,4.259017792601978,0.07630188483802046
21.027292,4.2710565153003595,0.0757554803594377
21.031876,4.281707064694511,0.07526097788122851
21.036472,4.290969440784432,0.07481266414824532
21.04106,4.306117162416822,0.07428720767319973
21.045656,4.316767711810972,0.07379678322205029
21.050244,4.317446439015479,0.07345061908282455
21.054832,4.318902415953489,0.07310906509797419
21.05942,4.314350862634883,0.07285322068117031
21.064,4.310698743763925,0.07259236831880785
21.068592,4.313587035454793,0.0722731257998056
21.07318,4.314432088822073,0.0719855793640913
21.077776,4.317731076104006,0.07170199866583127
21.082356,4.320252813652436,0.071415734574922
21.08694,4.320975682305573,0.07114239579856585
21.091532,4.326195723196947,0.07084826098740346
21.09612,4.333581187126054,0.07051360831178843
21.100716,4.337901793569781,0.07022453780552808
21.105304,4.3458201378040995,0.06991851194661632
21.109904,4.349774190105388,0.06966107956740017
21.1145,4.355527111301973,0.06939415824511168
21.119088,4.3587039138697605,0.06913110763602494
21.123684,4.362002901151694,0.06885809066243179
21.12826,4.36746731147136,0.06854508897907642
21.132864,4.368723060429707,0.06830113801766277
21.137444,4.374720351054584,0.0680194767206741
21.142044,4.388646225545516,0.06764674872819308
21.146624,4.40563695752183,0.0672375188768882
21.151216,4.429534654202408,0.06675489165700674
21.155812,4.454453970044778,0.06626555081537121
21.160408,4.477452232277708,0.06580086054789813
21.164996,4.5064580247672525,0.06527544233164193
21.169592,4.537384870866241,0.06473857104741515
21.17418,4.569088966698727,0.06421564415879671
21.178776,4.59592933615054,0.06373556263779916
21.183368,4.617128729488174,0.06329721349540673
21.187956,4.640904241454606,0.06286527839530813
21.192536,4.6668451764587715,0.06240145838261253
21.197124,4.690209992834138,0.06194067816787049
21.201716,4.715740232247237,0.061446297874152594
21.206308,4.743069340555632,0.06095010128566296
21.210904,4.769254644988088,0.06047320819868839
21.215492,4.79580650356298,0.05997163156306082
21.220076,4.825301034909109,0.059451586104829306
21.224664,4.857327543435407,0.05887439232924717
21.229256,4.8824470872574395,0.05836258199043253
21.23386,4.902825089412944,0.05788636922436375
21.238452,4.91833936518777,0.057450679515639105
21.243044,4.928212664848418,0.05704811998875586
21.247624,4.937064345347274,0.05665992642834306
21.252212,4.942073918627246,0.05629532916798127
21.256816,4.938255473593514,0.05599975092100721
21.261408,4.93365977882628,0.05569850544216959
21.266012,4.925466346268454,0.055402919680463535
21.270592,4.924957128148394,0.05506116429637906
21.275192,4.927268398085423,0.05470627166517641
21.279772,4.924960311070067,0.05436751041062066
