Time,Force,Position
19.53992,0.19598573194112565,0.0
19.544508,0.18307123698024688,0.0
19.549104,0.168113503695781,0.0
19.553696,0.15049349890389951,0.0
19.558288,0.13185187495022446,0.0
19.562876,0.11296588156825813,0.0
19.567476,0.09854102858900313,0.0
19.572064,0.08885771727627874,0.0
19.576668,0.0823614481630806,0.0
19.581256,0.07557666817296294,0.0
19.585856,0.07263399540172803,0.0
19.59044,0.07761990649654998,0.0
19.595036,0.08411617560974813,0.0
19.599616,0.092777867760679,0.0
19.604212,0.10287187466446854,0.0
19.6088,0.11452038103526246,0.0
19.613396,0.1301331793390848,0.0
19.617984,0.147011966232992,0.0
19.622572,0.16094808035566432,0.0
19.62716,0.1742291294589801,0.0
19.63176,0.18951738505035504,0.0
19.636348,0.20112174997252086,0.0
19.64094,0.21861146043715637,0.0
19.645536,0.2387634424092076,0.0
19.650124,0.25585056689587826,0.0
19.654716,0.27089445305896187,0.0
19.659296,0.28045557965754064,0.0
19.663888,0.2833541109801474,0.0
19.668496,0.28216616565558006,0.0
19.673084,0.28048948147443004,0.0
19.677696,0.27611449395033644,0.0
19.682284,0.26495472643612517,0.0
19.686872,0.2580477617318618,0.0
19.691468,0.2538391003705421,0.0
19.696056,0.2460327012186309,0.0
19.700652,0.2373268676190719,0.0
19.705232,0.22441237265819317,0.0
19.709828,0.21227512743081653,0.0
19.714416,0.1991162630416464,0.0
19.719008,0.18763408283362631,0.0
19.7236,0.1788502059685498,0.0
19.728192,0.17264244773227114,0.0
19.732776,0.16067152866766835,0.0
19.737368,0.1488227943172112,0.0
19.741956,0.1420821557757217,0.0
19.746552,0.1400830589007628,0.0
19.751152,0.14462437258763022,0.0
19.755744,0.14838843654099546,0.0
19.760336,0.15341848908444555,0.0
19.76492,0.16163558382742188,0.0
19.769504,0.1712849933232569,0.0
19.7741,0.18105658753323758,0.0
19.778692,0.18363270616203548,0.0
19.783284,0.18044566396250927,0.0
19.78788,0.1791796753724244,0.0
19.792468,0.17791368678233954,0.0
19.797052,0.17791368678233957,0.0
19.80164,0.1788131212299874,0.0
19.806232,0.18175579400122227,0.0
19.81082,0.18445409734416585,0.0
19.815408,0.1842097279158745,0.0
19.819996,0.1760367746215263,0.0
19.824592,0.17191639615746288,0.0
19.82918,0.16833913763034902,0.0
19.833776,0.17160104017371977,0.0
19.83836,0.176672051244125,0.0
19.842956,0.18727209334630177,0.0
19.847536,0.21263988038502,0.0
19.852136,0.24827824012204036,0.00889732022086396
19.856728,0.2883018270148931,0.017835490639862013
19.861328,0.3331993799201609,0.026906164574897765
19.865916,0.38518046332420464,0.036177697121667636
19.870516,0.45144055280820705,0.04511144083807141
19.8751,0.5276046608480747,0.053996524378177
19.879688,0.612118287976803,0.0627466898446957
19.884276,0.7081684763939184,0.07118991921154495
19.888876,0.812812553328186,0.07955236419627779
19.893468,0.9214311618272208,0.0879611665124228
19.89806,1.0336577477485858,0.09650465496814528
19.902652,1.153578787739455,0.10501734387618995
19.90724,1.2837704004286263,0.11342240518648637
19.911828,1.4300737899099416,0.12163729393919648
19.916424,1.5764993641054024,0.1299189220790868
19.921016,1.7232812528115615,0.1380586672817954
19.925612,1.859870612084936,0.1461927485969441
19.930208,1.9951396016878589,0.15415308682317952
19.9348,2.1197273230014138,0.16217611039980454
19.939396,2.229425114664282,0.17037449606139332
19.943984,2.332083517277003,0.16960838799628974
19.94858,2.4275362046768016,0.16881730964120248
19.953172,2.5186036649207684,0.1678219475835662
19.957764,2.609250189941931,0.16640678295777625
19.962356,2.685984263025572,0.16540433551656794
19.966948,2.756123544467019,0.1643455885843838
19.971544,2.8159922532101644,0.1635046624466225
19.97614,2.865223835112571,0.16298900537449917
19.980732,2.9113803198978574,0.16237644728791029
19.985328,2.9556055114419646,0.1615622469494531
19.98992,2.996222725563741,0.16056721203419538
19.99452,3.0306558436343893,0.15952379923511456
19.999108,3.0523644550920848,0.1586861986375679
20.003708,3.0663786124802734,0.15792980103966797
20.008284,3.082225540580648,0.15692999188351883
20.012892,3.0951297959097874,0.15607206566455148
20.017476,3.1064015085064063,0.15533471219260947
20.022076,3.1106440716846153,0.15491947386458774
20.02666,3.1174627534916226,0.15442429683146852
20.031252,3.133476007754771,0.15349562301803638
20.035844,3.1444592094744697,0.1526992490460441
20.040436,3.1574856495177555,0.15180956561659945
20.045016,3.168591035951599,0.1510021161934708
20.049612,3.17507706543306,0.15038027510301782
20.0542,3.1859380824386125,0.1496236746853955
20.058784,3.193734241958785,0.1490088313768474
20.063372,3.2027963900690426,0.14830462935841848
20.067964,3.210181853998149,0.147636717625967
20.072556,3.2102496576319277,0.14723079465859942
20.077144,3.203532681275589,0.14710291751165847
20.081744,3.197715139366898,0.14694465666048054
20.086328,3.1888327399728262,0.14692435040774296
20.090924,3.189189054483524,0.1465826505484665
20.095512,3.1885237498324295,0.14628912437224573
20.100096,3.182994718800658,0.1461824122011211
20.104704,3.179508926092473,0.14598904856902212
20.109292,3.181908478926758,0.1455710221631407
20.113888,3.18917175814172,0.14496355648295772
20.118484,3.1965572220708274,0.14434127965652854
20.123072,3.1974464168867356,0.14403409457576719
20.127664,3.201156099759734,0.14362950601939184
20.132256,3.201434371004915,0.14340162985320734
20.136848,3.2044109455930396,0.1430962941663318
20.141428,3.2053442818575775,0.14287490744885764
20.146024,3.205133814246175,0.14271335170433738
20.150604,3.2054562269399844,0.14257376027531257
20.1552,3.2083547582625913,0.1423726996487244
20.159796,3.213296527908785,0.14208447453488482
20.164388,3.2220804047738616,0.14165465765408072
20.168984,3.2331518893908164,0.14109457725940613
20.173576,3.240503451503034,0.1406611116510426
20.178164,3.2506755016723408,0.14012744409611685
20.182763999999995,3.250587218775084,0.13994518466587996
20.187356,3.248455697554241,0.13985023930141477
20.191948,3.246446361047543,0.13973797377462338
20.196528,3.2425159709314038,0.13969539886302834
20.201112,3.236664527205823,0.13971929007732253
20.2057,3.229913649032595,0.13976745689103995
20.210296,3.2249616397546625,0.13976304934693867
20.214888,3.2203761846191674,0.13971050705318605
20.219476,3.2175895983789675,0.13960722623533928
20.224076,3.2201554773760264,0.13926809632557655
20.228664,3.2200230530301424,0.13900355494250602
20.233256,3.2234883664748493,0.13864171826762028
20.237848,3.2289969182431433,0.1382031124826488
20.242436,3.2369152624774613,0.13763729994966847
20.247036,3.2431569225306296,0.137108743747709
20.251616,3.2511974514790927,0.1365396511203045
20.256212,3.258338545979909,0.13599773495374048
20.260808,3.272020051042551,0.13528430148723755
20.265408,3.2896658480382217,0.13444005680484625
20.27,3.3044911569768027,0.13367481749275298
20.274588,3.3266341262107124,0.13271119829331282
20.279184,3.3487770954446225,0.13173948709619346
20.283771999999995,3.3716973144120344,0.13076079951060507
20.288364,3.3938402836459445,0.12978918157758298
20.292944,3.4125076998034087,0.12888820434249507
20.29754,3.432196735122666,0.12795666481518347
20.302124,3.451763585727778,0.12705905591128844
20.30672,3.474273109104125,0.12607520352595267
20.311308,3.49486157887103,0.1251605020993984
20.3159,3.5123851911525548,0.1243685208182314
20.3205,3.5306860531675817,0.12356895671125859
20.325092,3.547676785143896,0.12276087537809162
20.32968,3.561847029063121,0.12203277444957909
20.334268,3.571930796335171,0.12143911237823052
20.33886,3.5811151291595746,0.12086555617804257
20.343448,3.5885005930886815,0.1203368540460236
20.348032,3.5975627411989386,0.11978970510782516
20.352632,3.5980412404237825,0.11947355142119565
20.357224,3.5974981204868337,0.1191925188074311
20.361808,3.6000198580352643,0.11881497148820805
20.366404,3.600620541974254,0.11849085724379832
20.370992,3.6040417139703327,0.11810166632473255
20.375584,3.6091395701475615,0.11769442547003016
20.38018,3.61591411050594,0.11726780591279584
20.384768,3.628984691997854,0.11672599769573445
20.389364,3.6447535768327115,0.11614719398780701
20.393952,3.657579788896334,0.11564628703171828
20.39854,3.6663195243127826,0.11526505094788253
20.403128,3.673915455853292,0.11492566407602847
20.407728,3.683310256289097,0.11455736763771646
20.41232,3.693726675886696,0.11416159267335607
20.416908,3.70173330301827,0.11386326657282707
20.421504,3.7124382334927875,0.11351947948624984
20.426084,3.7280068903479817,0.11305560694276282
20.430684,3.743208993060739,0.112629200457679
20.435268,3.7588217913645616,0.11224219183775618
20.439868,3.769570863287708,0.11197311428538277
20.444452,3.7858387266108866,0.11159541347461627
20.449048,3.8036610894010705,0.11122081843029588
20.453656,3.823937386105906,0.11083800308210756
20.458248,3.8415153794677974,0.1104990035514785
20.462848,3.855495635039098,0.11022170890988599
20.46744,3.865755968105661,0.1100171978145112
20.472028,3.875771931743933,0.10984044677665553
20.47662,3.8810463537156745,0.10976569813316453
20.481208,3.878758745963796,0.10984624472949185
20.485796,3.879658180411444,0.10983181664125721
20.490383999999995,3.8855435259539135,0.10969501953298541
20.49498,3.89347210981997,0.10950408388544389
20.499572,3.9005012592383785,0.10933001897779415
20.504164,3.9085520278185815,0.10913245358942146
20.508752,3.9184016652940796,0.10890484776649888
20.513332,3.9253086299983426,0.10874492873835971
20.517924,3.9329928444361086,0.10858771540615016
20.52252,3.944519166092757,0.10835362623412431
20.527108,3.9546131729965457,0.10810893168185393
20.531704,3.9716141446045987,0.10771062127995629
20.536287999999995,3.9820747056508257,0.10742934696327515
20.540876,3.9900813327824003,0.10716677593604823
20.545472,3.9914253646380025,0.10703283421696771
20.55006,3.996489318998343,0.1068346294998471
20.554664,4.006949880044569,0.10656074741454845
20.55926,4.026116274690354,0.10611988475462263
20.563852,4.0455270387644315,0.10565832362407436
20.568436,4.068657725343245,0.10513925528942723
20.573032,4.09652995358859,0.1045277276310931
20.577612,4.1230140085297045,0.10398450672677169
20.582212,4.144512152375996,0.1035534354652641
20.586804,4.167031915384082,0.10310556463488069
20.591391999999995,4.187630624782726,0.10269398143799281
20.595984,4.208107149467224,0.10230179544976689
20.60058,4.232015085779541,0.10181369908505553
20.60518,4.256045206806003,0.10130994470677425
20.609776,4.279298078098962,0.10081691577168718
20.614364,4.300996449924917,0.10033278667268436
20.618952,4.324615875360314,0.09981789478696357
20.62354,4.3434937591291805,0.09938599854007947
20.628132,4.367235369278722,0.09886372620967633
20.63272,4.389833175552325,0.0983743353581229
20.637304,4.417661262349042,0.097764064380375
20.641896,4.44291323051696,0.09717913876548141
20.646488,4.460969723103696,0.0966799856410307
20.651088,4.465823209852634,0.09638295756757127
20.655664,4.468100577972774,0.09610558558568029
20.66026,4.4657585891405285,0.09589099917639858
20.664844,4.462639350574781,0.09567589229946054
20.669436,4.45820998197032,0.0954368943794916
20.674044,4.458766524460682,0.09510479755090932
20.678628,4.4562582094656635,0.09483581935627075
20.68322,4.454771513632439,0.09454555254317301
20.687812,4.4498092647227665,0.09428372034656457
20.692404,4.439494550575835,0.09414663255166929
20.697004,4.433388497790225,0.09391672815737284
20.7016,4.425483576109318,0.09370577086957459
20.706204,4.41541323139068,0.09354496710520481
20.710792,4.404443452224394,0.09339259256881624
20.715392,4.393473673058106,0.09323960697592554
20.71998,4.381360090015881,0.09311660930200054
20.724572,4.367569822792505,0.09300094349242942
20.72916,4.350714698083747,0.09294284784030718
20.733748,4.337457311165582,0.09284736611426705
20.738344,4.327797662038009,0.0927158317911342
20.74294,4.3285205306911445,0.09244165286427863
20.747532,4.331042268239575,0.0921487233039127
20.752127999999995,4.334585624949798,0.09183403581136579
20.756716,4.340949469717112,0.09148507623702312
20.761304,4.344004087570754,0.09121346378774874
20.765892,4.34333878291966,0.09098983038250673
20.770484,4.344061651572795,0.09071387343364785
20.775072,4.342985651330634,0.09045454431299432
20.77966,4.339988597479033,0.09022108726767498
20.784252,4.338624086359953,0.08991113058859114
20.788836,4.330230425822465,0.08972951911102972
20.79342,4.318894092513741,0.08959614960776376
20.798008,4.306780509471514,0.08946030891434262
20.8026,4.292745872819847,0.0893529514925209
20.807184,4.277933986434677,0.0892426331014374
20.811768,4.265409707801386,0.08906804156150312
20.816372,4.258526405282273,0.08881703313765431
20.82096,4.254585775534395,0.08851770814316731
20.825544,4.247169592710071,0.0882423193255919
20.830148,4.245760940142364,0.0878660422419996
20.834728,4.237811877012829,0.08756810548604972
20.839331999999995,4.229862813883294,0.08726971380307057
20.843907999999995,4.224201358505638,0.08691235714936932
20.848512,4.21584159978504,0.0865790982038449
20.8531,4.214755359911139,0.08610812431099538
20.857696,4.214324185056597,0.08565023996847058
20.86228,4.215936248525641,0.0851597849395758
20.866876,4.221512603927714,0.08461047121597971
20.871459999999995,4.234773173767552,0.08396532189387071
20.876052,4.250487677522043,0.08332502204040651
20.880652,4.271310277085501,0.08259487927180433
20.885244,4.296097168581988,0.08180392687446263
20.889832,4.327546655354447,0.08094421082126996
20.894424,4.363982053221727,0.08001745036044806
20.899,4.4049146233272465,0.07906437604989537
20.903596,4.440861282337943,0.07818807736922392
20.908184,4.472188584396256,0.07736153073713727
20.912776,4.499551594521541,0.07659360617997038
20.91736,4.527814039094473,0.07582271300248712
20.921936,4.545327411744258,0.07519438701204219
20.926532,4.569503379670017,0.07449974091882376
20.93112,4.594700966757569,0.07379470360175484
20.935708,4.617488761379096,0.07315488647858774
20.9403,4.641953240181774,0.07252081639340108
20.944887999999995,4.662209057623131,0.07196499663558106
20.949488,4.6820541794734245,0.0713756493103216
20.954064,4.697690639962397,0.07085847743239902
20.958652,4.709362808518342,0.07039251672729878
20.963244,4.716826315712965,0.06999966672699737
20.967824,4.722246584584004,0.06963742360965819
20.972432,4.729465722350337,0.06927121715230633
20.977008,4.735785425669023,0.06891140684037869
20.981608,4.732744230368793,0.06862174405015684
20.986196,4.726515992869037,0.06838295300262028
20.9908,4.722575363121159,0.06810281611760016
20.995392,4.721699590858661,0.06778260518633107
20.999988,4.723399937224962,0.06746049611864134
21.00458,4.729064575524291,0.06709689111258889
21.009172,4.733463225233535,0.06676438051989493
21.01376,4.744646654932897,0.0663685093311673
21.018352,4.748023685480348,0.06604758114973881
21.022932,4.750379096866004,0.0657405799221531
21.027512,4.754899931289395,0.0653997519696
21.0321,4.753901974312751,0.06508681155268474
21.0367,4.757645559002639,0.0647418509068239
21.041288,4.761677654569446,0.06443942461371727
21.04588,4.765831934850399,0.06412552527189251
21.050472,4.774605572083737,0.06378817217460575
21.05506,4.784523013193014,0.06343063093117458
21.059652,4.798526930949465,0.06302904398925895
21.06424,4.810365425668183,0.06266517017575185
21.068828,4.8229811701204035,0.062309841029315735
21.073412,4.842015140420305,0.06192546464604256
21.077995999999995,4.8620707298819985,0.061531628006762304
21.082588,4.873053931601698,0.06123489593926503
21.08718,4.885836002216692,0.060936182111860034
21.09178,4.89796300781233,0.06062395865235905
21.096376,4.910212198122114,0.06030752299878524
21.100968,4.92462681146963,0.059961497575941804
21.105564,4.937242555921851,0.05962292080638561
21.11014,4.955865830630686,0.05922841984538189
21.114736,4.97538853978717,0.05883443728806682
21.119323999999995,4.994789064229508,0.058452791028299686
21.123928,5.019708380071879,0.058051293632465084
21.12852,5.040907773409515,0.057671091495435756
21.13312,5.064516959213172,0.05724784281495283
21.137704,5.0947887402928025,0.05679300616017732
21.142299999999995,5.1214627835818405,0.05634850607792478
21.146892,5.14531633881379,0.05591761895354668
21.151488,5.161730049036264,0.055517376864880244
21.156084,5.178388128687031,0.05510342371531403
21.160684,5.194024589176004,0.05470086196811448
21.16526,5.208761615217329,0.054303038937458824
21.169856,5.220555968487418,0.05392501239846465
21.174448,5.234393560081095,0.05352325512135413
21.17904,5.246310098065331,0.053135041132130564
21.183627999999995,5.257982266621276,0.052764490959305944
21.188212,5.266467392977694,0.05243154739068593
21.192808,5.27278709629638,0.05212573863519167
21.197396,5.277840811024981,0.05184543996141339
21.201988,5.282772341039436,0.05157625844080553
21.206568,5.285660632730305,0.05132506906688388
21.21116,5.2863835013834395,0.051099772777403324
21.215744,5.282408969818672,0.05095053357206846
21.220332,5.281387350656879,0.05095963814993845
21.22492,5.2847951000995455,0.05119821189118026
21.229516,5.290955533965523,0.051648214335636114
