Time,Force,Position
25.50246,4.611396457538313,0.05156084151677178
25.50706,4.6310586477507485,0.05223654203000061
25.511656,4.659236683214816,0.0530972799295012
25.516244,4.692166499977154,0.054093211274169314
25.520840000000007,4.732546401380706,0.055215660606128675
25.52543200000001,4.774613226597146,0.05650269607699984
25.530028,4.825929005350094,0.057895460234477246
25.534604,4.882285076278231,0.059441189010444956
25.539208,4.9427820049339095,0.06113955875245155
25.543788000000006,5.017635982935063,0.06287619210073868
25.548392000000007,5.095442873339191,0.06472635409574713
25.55298400000001,5.175958306718003,0.06669439662325029
25.55758,5.25906009835735,0.06879978514296146
25.562176000000008,5.351044289390769,0.07100703621922405
25.566768,5.452399618674841,0.07327521434256519
25.571364000000003,5.561449402028419,0.07560707758215189
25.57596000000001,5.676516955270351,0.07800000428639593
25.580552,5.800989548579826,0.08035638000296244
25.585148000000004,5.921121056182098,0.08257205336465273
25.589732,6.028283687743124,0.08466364509472454
25.59432,6.127052658766661,0.0865714873400462
25.5989,6.209699613366314,0.08831623835278203
25.603496000000007,6.275857997399648,0.08993871704723434
25.608084000000005,6.329414059534172,0.09146560955444141
25.612672000000003,6.374332091702918,0.09284990138952663
25.61726400000001,6.416863993590789,0.09400887776037983
25.621844,6.444584009093492,0.09507496858737684
25.62644,6.461945169000636,0.09597382916138378
25.631028,6.469724723045725,0.09671266061751521
25.635620000000003,6.46052696766791,0.09741258958998554
25.640228000000008,6.441014498143165,0.09801356168516931
25.644808,6.408366826414401,0.09854803623223243
25.6494,6.367569863576439,0.09895267542639216
25.653988,6.3143708068193325,0.09924423697446967
25.65858,6.247625852267138,0.09944505550073801
25.663172000000003,6.168645129958574,0.09957908896740096
25.667764000000005,6.076162651303554,0.09968669462339867
25.67236,5.974964099417235,0.09975230247491172
25.67694,5.8709009180252,0.09980274268337029
25.68154,5.767693029632183,0.0997981080839814
25.686128,5.66383007621981,0.09979134910045119
25.69072,5.561521622274443,0.09979075945265126
25.695304000000007,5.464731959729107,0.09973282101029317
25.6999,5.369618981364922,0.09967588590760507
25.704484000000008,5.27041952635356,0.09969903654638805
25.70908,5.166644855838446,0.09982859353427773
25.713668,5.067411499010197,0.09997949659168094
25.71826,4.972108532298087,0.1001865300235027
25.722852000000003,4.87726040262567,0.10049142780993987
25.727436,4.790551324430712,0.10077848453666442
25.732028,4.71263636273257,0.10104967857366644
25.736608000000004,4.643759886959534,0.10128802138153499
25.741208,4.580734854912079,0.10156201881428242
25.745788000000005,4.519474789943031,0.10196365335721458
25.750384,4.461534191519393,0.10249132817338641
25.754968000000005,4.40817904823125,0.10310600653887463
25.759552,4.363373652011631,0.10373052258188614
25.76414,4.32225427647986,0.10444873907465135
25.768728,4.284288041330726,0.1052415959644117
25.773324,4.252051065193026,0.10607281597712745
25.777912,4.230284889733292,0.1068594200792316
25.7825,4.214736712141574,0.10764591374967054
25.787096000000005,4.201442240484848,0.10851072316180706
25.791684000000004,4.1944879514102835,0.10936042011839303
25.79628,4.1959170832414685,0.11014896698955946
25.80086800000001,4.2000886598642255,0.11097645746995513
25.805464,4.205936920668133,0.11179257900690068
25.810044000000005,4.210763562310247,0.11263578641441323
25.814644,4.220986810638249,0.11340046165250639
25.819232,4.228511755623306,0.11420780302573313
25.823832,4.231783897798415,0.11505989589953518
25.828428,4.232479921344726,0.11594095915015858
25.83302400000001,4.233009618728265,0.1167638656879809
25.83762,4.237092912453766,0.11746668028195348
25.842212000000004,4.239333195835344,0.11813675361790352
25.84680400000001,4.243694760806025,0.11866987547044576
25.85139600000001,4.245680435127571,0.11914165269891973
25.855984000000007,4.244635153780627,0.11954614229201536
25.86057600000001,4.243012850679844,0.11986048513233362
25.865164000000007,4.23415093054925,0.12023294265608325
25.869748,4.2155954594741925,0.12068466783585134
25.874340000000004,4.19441972832171,0.12110031556910711
25.878936,4.168169803177149,0.12151461622562597
25.883528,4.136723499326363,0.12193325019921651
25.888124000000005,4.0980375784457665,0.1224220617221157
25.892716000000007,4.0570979516301815,0.1228545413273127
25.897307999999995,4.013171510594734,0.12330174124261349
25.901904,3.9674020592153614,0.12372298042982753
25.906492,3.917746359168478,0.12416961391043684
25.911088000000007,3.866780529082882,0.1246199168231914
25.915676000000005,3.813605134510924,0.1250944621212329
25.920264000000003,3.7580979907384613,0.12560422172641256
25.924868000000004,3.7007919780707015,0.12615365123591754
25.929464,3.6419314659359374,0.12671392313539362
25.934068,3.5851141921247605,0.12722639799319843
25.93865600000001,3.5254764302564943,0.1278079367066708
25.943244000000007,3.467393167855233,0.12837149450036955
25.947848000000008,3.413318338835628,0.12889459099674533
25.95243600000001,3.365295181521267,0.1292793736371665
25.957040000000006,3.324223130359797,0.129543068774328
25.96163200000001,3.2887140120469884,0.1297644229145058
25.966232000000005,3.2516945357158034,0.1300900103543056
25.970820000000003,3.224080099452162,0.13024489969793743
25.975424000000004,3.2032945846272662,0.13027635347324895
25.980004000000008,3.19203629458406,0.13012983517671833
25.984604000000004,3.191981913503693,0.12978519938685557
25.989196000000007,3.1994115188814285,0.12933989983618446
25.993792,3.2124040571078245,0.12884529541322493
25.99838800000001,3.2282612248399385,0.12835595123227975
26.002984,3.25004787956315,0.1277707706576739
26.007588,3.2782969015826704,0.12710803091914452
26.012184000000005,3.3105543569838476,0.1263922841232698
26.016788000000005,3.3459208113190333,0.12565410847847042
26.021384,3.387094567931171,0.12484858615803673
26.025964,3.434075626820261,0.12397413987374817
26.030552,3.4841656846433597,0.12307782053750073
26.03514,3.5353215030768803,0.12223585352970583
26.03974000000001,3.5870102018156116,0.12142607478937403
26.044324000000003,3.6329357397260185,0.12079954888350256
26.048919999999995,3.6768180393128387,0.12024447076389695
26.053512,3.7219663274897443,0.11963653463125855
26.05809600000001,3.7732884720860387,0.11890651785210049
26.062696000000003,3.8171707716728593,0.11836197806486808
26.067276000000007,3.858110398488445,0.11791838998403303
26.071872,3.8945528530657905,0.11757920368741531
26.07646,3.917914486519484,0.11754225514129378
26.081052,3.9363682521438736,0.1175586431576408
26.085656,3.9555551260531367,0.11750181792519704
26.090244,3.97445348908548,0.117395974962881
26.094832,3.9911422876314626,0.1172910448560353
26.099428000000003,4.005988075833522,0.11714687987218256
26.10402000000001,4.022344222053957,0.11692634898879702
26.108612000000008,4.038411857397472,0.1166618275934332
26.113208,4.048550005749891,0.11647010772529946
26.117804000000007,4.05390247098715,0.11630897641114155
26.122384,4.056268122004545,0.11614522174210738
26.126988,4.056135697658661,0.11592902445712258
26.131575999999995,4.05146195962591,0.1157138768703663
26.136172,4.046255341287948,0.11547508624285399
26.140764000000004,4.0407602120730655,0.1151880311031948
26.145364,4.031789529781737,0.11494799277100487
26.14994800000001,4.018277533803542,0.11470878005947556
26.154544,4.010118003062606,0.11430770571153445
26.159132,3.998072223654158,0.1139155254409454
26.16372,3.9853713792263545,0.11351200682409951
26.168308,3.9805991186646077,0.11291015861851308
26.172892000000004,3.9740279892075647,0.11233400925542861
26.177484000000007,3.9624709486557,0.11188463275089654
26.182068,3.9500144736561875,0.11144862405400537
26.186651999999995,3.940256301999619,0.11096910604822217
26.191248,3.9311531953624064,0.11050014171913226
26.195832,3.9211506542775454,0.11004640262436424
26.200424,3.909104874869098,0.10964412668482582
26.205020000000005,3.9005346485370964,0.1091988816448209
26.209608000000003,3.891720052776803,0.10877640486570742
26.214192,3.887280444540604,0.10829904328044014
26.218788000000004,3.8858276505242677,0.10782983924242412
26.22338000000001,3.893902081289621,0.10725766956809034
26.227976,3.909049802922011,0.10660293907763674
26.232568,3.9274287082025556,0.10593937614299725
26.237168,3.9491609818454005,0.10525089317874146
26.241764000000003,3.9784994266604934,0.10451545021420255
26.246352,4.008781447371862,0.10385495989761956
26.250964,4.044748585646038,0.1031705866876054
26.25555200000001,4.081370788939569,0.10249755182384808
26.260148,4.119547491700105,0.10184378358302251
26.264736,4.166474169508829,0.10111189028013351
26.269336,4.21879745400344,0.10031769983988881
26.273916,4.274596291574495,0.09950077709388681
26.278516,4.3310501941649076,0.09872329958965192
26.28310400000001,4.390857465117622,0.09794641149614079
26.287704000000005,4.450175997213751,0.09722240028641727
26.2923,4.514113886262266,0.09644978597590319
26.296896000000004,4.573432418358396,0.09573786757062297
26.301476000000008,4.637614676835202,0.09496001080091812
26.306072,4.702940739187947,0.09418172869574086
26.31066,4.764791248464247,0.09343288242770174
26.315252,4.820834455463595,0.09273457502926553
26.319844000000003,4.868904937148258,0.0921169370672689
26.324432,4.915787473508353,0.09148019587097893
26.329024000000004,4.9605826300962335,0.09082642372839353
26.33360400000001,4.992907889131189,0.0902815793460176
26.338196,5.01697191197454,0.08975742173854993
26.342792000000003,5.0380491205980285,0.08922073046576084
26.347384000000005,5.061780491115831,0.0886065277475228
26.351976000000008,5.077783505747241,0.08803437086992529
26.356572,5.081927546396455,0.08751259087085698
26.36116,5.0796092197493605,0.08699319365323582
26.365756000000005,5.071605775539458,0.08647596653512388
26.370352,5.055218910423807,0.08598002936408942
26.374939999999995,5.028894124935401,0.08549801632691374
26.379552000000004,4.997905841045982,0.0849960101759911
26.384132000000008,4.958289766822521,0.08452968407124611
26.38874,4.920428420045728,0.08398092311520923
26.393324000000007,4.874472163240105,0.08348756656451504
26.397904,4.817478323634416,0.08308936542725551
26.402504000000008,4.762239211475395,0.08260478116864095
26.407096,4.704179611259284,0.08213987804496657
26.411692,4.644565511576168,0.0816604134568398
26.41628,4.580576424368958,0.08118969384427108
26.42088,4.516465152447604,0.08071741388979604
26.425472,4.4590164758022235,0.08016046624241539
26.43006800000001,4.406187156109226,0.0795490683569729
26.434656000000004,4.35245840196858,0.07893385079946799
26.439248000000006,4.295664790342553,0.07835590455156755
26.443836000000005,4.246188839011856,0.07771062162188781
26.448428000000007,4.203541809119903,0.07703816472676746
26.453019999999995,4.163226528428458,0.07636854293745211
26.457612,4.130639603623407,0.0756753375037595
26.4622,4.103859981095306,0.07497635641449087
26.466796,4.086485398634751,0.07425357588628419
26.471384,4.074263053431791,0.07351372469543564
26.475980000000007,4.06797019521993,0.07276161327441573
26.480571999999995,4.06466415122793,0.07204212631970232
26.485152,4.067531963655321,0.07129527034278099
26.48974800000001,4.082336793330426,0.07046083732169599
26.494340000000008,4.099884067797101,0.06968945183045915
26.498936,4.119885276178429,0.06892344234206879
26.503528000000003,4.146837590712647,0.06814229490926918
26.508123999999995,4.182295510866762,0.06736928887201395
26.512704,4.222128418544971,0.06659859153203417
26.517296,4.267113563480775,0.06584488668195983
26.52189200000001,4.319049814569471,0.06510204416424262
26.526476,4.376260487629909,0.0643604641028235
26.531084000000007,4.437846148214439,0.06362713514550355
26.535672000000005,4.498165820208885,0.06294652016674451
26.540260000000004,4.561183795546275,0.06227389684121303
26.544856,4.6267778895124625,0.0616109221305623
26.549448,4.687874811240411,0.0609795209451011
26.554044000000005,4.750892786577801,0.060346484749028526
26.558632000000003,4.8092914049628055,0.05974698738810728
26.563240000000008,4.872553749728485,0.059129774703603394
26.56782800000001,4.937614963389462,0.05851912479652502
26.572428,5.00459723065988,0.05791037393369536
26.577012,5.072478932377946,0.05731449363467698
26.581616,5.136396342162984,0.0567663906410944
26.586208,5.198637067766871,0.056221571979273695
26.590808,5.260877793370759,0.05568144772706225
26.595404,5.321441834793495,0.05514632204212813
26.60000000000001,5.375709835082698,0.0546312921042003
26.60458,5.423437424810074,0.054147312210054976
26.609176000000005,5.462048485346825,0.05369012262525601
26.61378000000001,5.492564635854746,0.053251304514081804
26.618372000000008,5.51576312606734,0.05283137016392586
26.622964,5.531399586556312,0.05244435481332131
26.627564000000007,5.542538874807047,0.05206226906601753
26.632148,5.547137752495955,0.051703387037846354
26.636744000000007,5.548261077108415,0.05134012145577874
26.641324,5.5445206753402,0.051001491125617984
26.645920000000004,5.533995493581868,0.05069890145394582
26.650516,5.523225942395245,0.05041123434601773
26.655112000000003,5.500807884837826,0.05018570223754048
26.65970800000001,5.473115405308667,0.04995337255568427
26.664296000000007,5.439004699931828,0.04973017797086536
26.668892,5.395410911221927,0.049540305217437075
26.673472000000004,5.348341569435581,0.04934102212128851
26.67806400000001,5.294487447659117,0.04917501051839971
26.682648,5.2360139689302665,0.04901480934852495
26.687240000000003,5.172798948534888,0.048867871167883895
26.691828,5.103820767311185,0.048744605711258784
26.696416,5.036641454982776,0.0486179323838444
26.701008,4.967296719616636,0.04851443033896419
26.705600000000004,4.891822269279733,0.04846370023697853
26.710196,4.814959645638601,0.04844888840449081
26.714792000000003,4.737075402835674,0.048445210353292675
26.71938,4.657147921709162,0.04845797404383868
26.723976000000008,4.575299386973207,0.04847969072571539
26.728556,4.489120006161787,0.04856187184249849
26.73316,4.405761113407456,0.04863288984638231
26.737752,4.322646590081416,0.04868538496443182
26.742348000000007,4.23695594812658,0.048727321103984825
26.746936000000005,4.153186359781184,0.048761820124585825
26.751528000000008,4.065085925360322,0.04886330578120306
26.756132000000008,3.972776829578142,0.04902740942122541
26.760720000000006,3.8861087099101392,0.0491699654485794
26.765308000000005,3.795354113594963,0.04936527631940671
26.769904,3.7077865594793127,0.049517001836318304
26.774496,3.6217735048306663,0.049695682172558875
26.779084,3.5356382654678744,0.04988836474022649
26.783672,3.4523235141621713,0.05007661149669011
26.788272000000006,3.3660660900852344,0.05029588797283584
26.792860000000005,3.2836507732271794,0.05049202573298094
26.797456,3.209041855521036,0.050624615025509176
26.802040000000005,3.139418848909714,0.05070284861221572
26.806624,3.0708174614601864,0.05077283573869992
26.811216,3.002993323744161,0.05086249181954546
26.8158,2.9378674893710786,0.05095283953918701
26.82038800000001,2.879770804416405,0.05095288176237356
26.824996,2.8206525002999387,0.05096608893421355
26.829576000000003,2.7624336306311195,0.050973831900344393
26.834184000000008,2.704869825981657,0.051012750670316756
26.838776,2.650126509389284,0.0510323077311123
26.843368,2.6063766341483476,0.0508990807721764
26.847964000000005,2.5704331580593225,0.05068481600594097
26.852556000000007,2.5334680628085047,0.050482590434952436
26.857152,2.5023883131001563,0.05020875955751389
26.861732000000003,2.472985247572958,0.04994192450769968
26.866336000000004,2.4466470395311397,0.04962109087205858
26.87092,2.42120826593697,0.0492922052152737
26.87552000000001,2.3978127306663874,0.04891875117418198
26.8801,2.3755609992717432,0.048500325538933006
26.884699999999995,2.355108136772395,0.04807633394898966
26.889288000000008,2.3300359173206626,0.04765558184035004
26.89387600000001,2.302021025097695,0.047260649885321394
26.898456,2.277970424807755,0.046801374749999874
26.903052,2.254941443679609,0.04631210636041749
26.907652,2.2310130281038156,0.04581125800997292
26.91224,2.2002998325379037,0.04536597430195911
26.916827999999995,2.1684428330960532,0.04495131794564403
26.921412000000004,2.1353198450641178,0.044588273273747404
26.926,2.1005201728510325,0.044189251566616995
26.9306,2.0600795245237684,0.04381173796103099
26.935188,2.0068465659497714,0.043605803114863964
26.939772000000005,1.9471953815280938,0.043379977094623566
26.944368,1.8848458937634724,0.043132286158187656
26.948955999999995,1.817632679618175,0.04293031724670245
26.953552,1.7486205965775818,0.042685934917824936
26.95814,1.6746226024421669,0.042538581523058554
26.962736000000007,1.6006246083067517,0.04028221419273245
26.967332,1.5234395719718103,0.03806544238831365
26.97192,1.4433118628656343,0.03587223573565756
26.97653200000001,1.3593420465405752,0.03369802337726713
26.981120000000004,1.2786034138636708,0.03155325536601576
26.985708,1.1960659122914703,0.029415227969470277
26.99030400000001,1.1112408029673913,0.027337726464344386
26.994892000000007,1.0265378783574581,0.025268948537077392
26.999496000000008,0.9379928465286421,0.023209380726985834
27.004088,0.8521461180427701,0.021147408215691558
27.008684,0.7685869973087761,0.019052360072702477
27.013272,0.6864160498790127,0.016921194551971122
27.017876,0.607355869648966,0.014805267076988168
27.022464,0.5347139152665998,0.012685542955975683
27.027064,0.47167546066573274,0.010504814091038898
27.031656,0.4127693924263757,0.008379163726237239
27.036252000000005,0.3583604964252579,0.006276111233102255
27.040844000000007,0.30947039182417285,0.004163662327252697
27.04544,0.26315640585188566,0.00211234524700712
27.050032,0.2215839615461292,0.0
27.054628000000008,0.18270982058331622,0.0
27.05922,0.14857722128703385,0.0
27.063816000000003,0.11996341339078422,0.0
27.0684,0.0950695279992717,0.0
27.072996000000003,0.07131944648369837,0.0
27.077576000000008,0.05206653720636432,0.0
27.08216400000001,0.03473468153847162,0.0
27.086752000000004,0.019978944499376802,0.0
27.091336,0.011763618022108287,0.0
27.095928,0.006689424030030043,0.0
27.100520000000003,0.004069163952604008,0.0
27.105115999999995,0.004802272237478035,0.0
27.109704000000008,0.009742273617964002,0.0
27.114296,0.015826078874389162,0.0
27.118896000000007,0.01896897962528725,0.0
27.123476,0.024031165719918885,0.0
27.128072000000003,0.024351810148019924,0.0
27.132664000000005,0.025449704309623143,0.0
27.137252000000004,0.028346467366522063,0.0
27.141852,0.029977241833336117,0.0
27.14644,0.032629635461943696,0.0
27.151044,0.035282029090551274,0.0
27.155640000000005,0.039855476328600224,0.0
27.160236,0.04340730440485566,0.0
27.164824,0.045038078871669704,0.0
27.169416,0.045647234176690234,0.0
27.174008,0.04817744309115214,0.0
27.178612,0.048664413682027015,0.0
27.183195999999995,0.04902919955875619,0.0
27.18779600000001,0.04870855513065516,0.0
27.192384000000004,0.04748847625490627,0.0
27.19698,0.04536896293150953,0.0
27.201572,0.040428961551023566,0.0
27.206168000000005,0.0343451562945984,0.0
27.210768,0.030060219933468947,0.0
27.215356,0.025895700020777332,0.0
27.219944,0.028393775384057702,0.0
27.224532,0.030236785727981552,0.0
27.229128000000003,0.02950367744310753,0.0
27.233723999999995,0.031835426643614065,0.0
27.238312000000008,0.03020288391109218,0.0
27.242908,0.02755049028248461,0.0
27.2475,0.02297704304443566,0.0
