Time,Force,Position
20.775024,5.531476547545781,0.04645966249624471
20.779608000000003,5.538817870026261,0.04617373561014181
20.784212000000004,5.545137573344947,0.04589299740825737
20.788804,5.550147146624919,0.04557957580427334
20.793396,5.553890731314806,0.04528868301274187
20.797984,5.556734881557048,0.04499719773983632
20.802584000000003,5.556025435457324,0.04475795092270165
20.807164,5.556215423805249,0.04451710523913397
20.811764000000004,5.547455209125324,0.044327028206029045
20.816356,5.536818082284583,0.04419952924467465
20.820952,5.525614173321746,0.04416477935161821
20.825536,5.511966570075992,0.04428394882933494
20.830128,5.503437302270946,0.04453448578618756
20.834724,5.50186938025053,0.044961362046327495
20.83932,5.503542881510007,0.045565865921642384
20.843916,5.5128327935734704,0.04635244211306683
20.848512,5.531249474459297,0.04726744462804531
20.8531,5.552374698319806,0.04832550750037374
20.857684,5.5739208574031185,0.049558478440878635
20.862272,5.6052488503281515,0.05093229658500183
20.866872,5.639696081818931,0.05246011890057893
20.87146,5.678284171037252,0.05413558673407378
20.876040000000003,5.728042267401523,0.05589697051378594
20.880628,5.786438393731574,0.05779200280366276
20.885216,5.853306223864632,0.05976779831325393
20.889808,5.926358150048817,0.06185787683651225
20.894392000000003,6.005960726426569,0.06404206854637573
20.898984,6.093912821893181,0.0663093338615478
20.903588,6.192868598342969,0.0686079366831404
20.908176,6.293711526585309,0.07095390250771323
20.912768,6.398685072923452,0.07327423224338417
20.917352,6.505413346708261,0.07551179098619695
20.92194,6.606656730909927,0.07764280165739648
20.926544,6.696974477393935,0.07964174285233276
20.931136,6.7802086933791665,0.08148891133239336
20.935732,6.8561930527028485,0.08315390488515137
20.94032,6.91904220982251,0.08469259681522362
20.944920000000003,6.977750509214632,0.08607445364696219
20.949496000000003,7.033706124183442,0.08727388988304044
20.954100000000004,7.082900621347286,0.08828554952760888
20.958688,7.121369708773134,0.08915585075566962
20.963288,7.155287242880376,0.08985868964906843
20.967872,7.176724639802956,0.09047856273560516
20.972468,7.188868941740397,0.09097788684706024
20.977056,7.187389302617238,0.09142326863612839
20.981652000000004,7.176616568508942,0.09175674913345047
20.986236,7.15847179302495,0.0919635292626702
20.990824000000003,7.1294013798233,0.09211113710147326
20.995408,7.086340471418611,0.09224092379761344
20.999996000000003,7.033008990315619,0.09232730146478992
21.004584,6.971494316286541,0.09238626809659674
21.009176000000004,6.9058048827130305,0.09241504325339851
21.013768,6.836884265491366,0.0924529191207726
21.018348000000003,6.767064213822055,0.09250329879196707
21.022944000000003,6.696344727705095,0.09256216273911562
21.027532,6.626158121893346,0.09263634257718407
21.032124000000003,6.555116223082577,0.09276946415619651
21.036720000000003,6.480520727929844,0.09297854487783781
21.041308,6.406624439245097,0.09324275357369338
21.045916,6.329995945400518,0.09363267836279043
21.0505,6.259341079995664,0.09404947251220641
21.055088,6.182845010496968,0.09459567495105276
21.059676000000003,6.107048147466258,0.09521228685235358
21.064276,6.031828306189385,0.09590400291099356
21.06888,5.959106540275794,0.09666251678640954
21.073456,5.888394110868901,0.09751104253516733
21.078052,5.818913768235203,0.0984450720255072
21.08264,5.750621370926072,0.09942682953422809
21.087236,5.6927556328462785,0.10034292296454568
21.091824000000003,5.639309023739206,0.10129727202706999
21.096424,5.587827609690203,0.1022948602513399
21.101004000000003,5.5383113906992705,0.10332650721716409
21.105600000000003,5.4921485400706365,0.1043554890116963
21.110192,5.450116307537806,0.10537905752360731
21.114784,5.4105380089196276,0.10639914489063007
21.119372,5.3714925906066595,0.10744436743180744
21.123968,5.334368225903133,0.10848456317083678
21.128552,5.300963783704344,0.10948928198142736
21.13314,5.264205973143255,0.11053089585693102
21.137728000000003,5.228958520600542,0.11153848904768912
21.142324,5.193544741895055,0.11249961744951094
21.146908000000003,5.1660595470556245,0.11332987139272116
21.151496,5.143682448025163,0.11406343905805122
21.156088000000004,5.12269352229893,0.11475629291398869
21.160676,5.1044809431811595,0.11535896339648229
21.165272,5.0874902112048455,0.11587005613860187
21.16986,5.0722542066752,0.11630451693930365
21.174448,5.0614712329351645,0.11662586138718925
21.179044,5.040916664985149,0.11707205666074451
21.183632000000003,5.02044014030065,0.11745643476045718
21.188216000000004,5.001473973634528,0.11778320731952119
21.192812000000004,4.9775999391391,0.11815384138088643
21.1974,4.95523626266205,0.11846121778964433
21.201996,4.932706260022225,0.11872098001263735
21.206588000000004,4.907600138753602,0.11901306060714273
21.211184000000003,4.88028445299862,0.11930910461602999
21.215760000000003,4.856033624729018,0.11953799545297664
21.22036,4.832515904744288,0.11970266471737852
21.224940000000004,4.8124295963873776,0.11976690470616375
21.22954,4.795408145515847,0.11975993718691498
21.234124,4.776710010463166,0.11976850900412646
21.238716000000004,4.752737453438744,0.11984801556925898
21.243312000000003,4.722713224709079,0.12000380977344173
21.247908,4.693422104264287,0.12009404188367455
21.252496,4.6635981035142855,0.12016507394135487
21.257088000000003,4.634262841620866,0.12018891278486123
21.26168,4.5996531577557045,0.12028916418830732
21.266264,4.561323551385806,0.1204547840583922
21.270852,4.5318219633296115,0.12042961897643276
21.275440000000003,4.5028091141300015,0.12035741651492952
21.280032,4.4763282421105615,0.12018506334717592
21.284624,4.457120888937821,0.11982309910146778
21.28922,4.437258470745723,0.11944939713430394
21.293804,4.414942118638973,0.11909079412149572
21.2984,4.3934810595312435,0.11864912637085494
21.302976,4.3789269651277785,0.118050364881615
21.307556,4.361386056504449,0.1174452792069628
21.312156,4.340247410090527,0.11689029913704523
21.316740000000003,4.316410460333662,0.11637128934540425
21.321328,4.291263380538085,0.11582900436347919
21.325924,4.263417997399565,0.11532323036078382
21.330512,4.239536906194072,0.11472104562793978
21.335108,4.219742291635754,0.11400785928781336
21.339688,4.1952061354109045,0.11338138393879545
21.344288,4.17361265195729,0.11268289118380656
21.348876,4.1507531799135915,0.11202834560035577
21.353476,4.132757434250568,0.11125827673576764
21.358064,4.1169271116252775,0.11041648319938455
21.362664,4.0990535506764,0.10962753198499565
21.367248000000004,4.081590685318588,0.10886771603314176
21.371844000000003,4.057998104990015,0.10825741536639677
21.37644,4.029830309157686,0.1077946928354748
21.381036,4.000152155306979,0.10740361894671559
21.385624,3.9744824348379297,0.10698903087192464
21.390224000000003,3.9524545936081,0.10658833834422385
21.394812,3.9269953407504525,0.10629648649280996
21.399408,3.908120639903259,0.1059570096283959
21.403996,3.8904338843806334,0.1056503553322122
21.40858,3.8802311153161098,0.10528615033833513
21.413168,3.8764907135478954,0.10489388928130297
21.41776,3.880478667666075,0.10442332093900908
21.422352000000004,3.886309632128178,0.10400358039074452
21.42694,3.896681910277149,0.10360004291069852
21.431536,3.9201791509983996,0.10305819314135306
21.436116,3.9423323598640483,0.10264943008478371
21.440712,3.966328579073621,0.10228489342190357
21.445296,3.99768660002715,0.1018997643764555
21.449876000000003,4.030643261896312,0.10158662453950079
21.454488,4.065931672965981,0.10128176896196436
21.459076000000003,4.105228517417305,0.10097176149564768
21.463676,4.154052586650319,0.10057441418002201
21.468268,4.210971565912163,0.10008365243185557
21.472856,4.27316496714575,0.0995408263789268
21.477448000000003,4.33691286784634,0.09900930951509465
21.482028,4.398739714937489,0.0985143966816405
21.486628000000003,4.460855072905558,0.09806195242758964
21.491208,4.521049377264184,0.0976578267105062
21.495808000000004,4.5888057113464304,0.09714791237831726
21.500396,4.650388189009289,0.09670550899816735
21.504984,4.706696244700405,0.0963273008307073
21.509568,4.761205431496227,0.09598005818005886
21.514164,4.813627238519832,0.09561606870617198
21.518752,4.860896808285841,0.0952946355473817
21.523344,4.900438022165458,0.09504011181304135
21.527932,4.940179464024737,0.09470459279375511
21.532528,4.979998949149534,0.09429928008775698
21.53712,5.011312828654435,0.09395134164860278
21.541704000000003,5.041028067243704,0.09354261620902049
21.546284,5.0666126877371696,0.0931501161772935
21.550876,5.0854905715060355,0.09278581486535821
21.555468,5.0979060879785925,0.09243415317681233
21.560048,5.100916564383607,0.09213504798153996
21.564648,5.098119738511668,0.09185441201389513
21.569224,5.089637795076923,0.09158109065995397
21.573812000000004,5.080867340765258,0.09126712291586314
21.578416,5.069598811090313,0.09089742758812541
21.583004000000003,5.053055859443626,0.09056479201117579
21.587612,5.028417997768109,0.09030247402710641
21.5922,5.006312113272762,0.08996442028145923
21.596788000000004,4.982651729310411,0.08962062680129483
21.601384000000003,4.955105096680546,0.08926481115750023
21.60598,4.92768064876483,0.0888962575676443
21.610576,4.898579516667962,0.08853078049472905
21.615168,4.865514092638067,0.08822253193087566
21.619764000000004,4.830283245570439,0.08795561839455905
21.624344,4.794030779341018,0.0877014584048994
21.62894,4.759454997292746,0.08743902153107058
21.633528,4.726311529997333,0.08718673094793536
21.638132,4.691902074111835,0.08696954054471433
21.642716,4.662111975178722,0.08670286765151952
21.647308,4.635675244607909,0.08642362969727574
21.6519,4.618110673799428,0.08608009524481296
21.656496,4.603899471353249,0.08572600632014193
21.661096,4.595617755898169,0.0853508090513312
21.665688000000003,4.591588843253034,0.0849622588189657
21.67028,4.594633221474936,0.08453209505922135
21.674872,4.607038498315753,0.08401118194087126
21.67946,4.625739816290109,0.08344800656176793
21.684048,4.644851829855527,0.08292164586243807
21.688636,4.667317211783246,0.0823913973091215
21.693236,4.6963671457214184,0.08186476836068995
21.697824,4.725705590536512,0.08138225407399527
21.702408,4.761095707056846,0.08087925990431105
21.707,4.80494728774845,0.08029856876060062
21.711588,4.8543176598400875,0.07967921412131529
21.716184,4.909861888351114,0.07904252744523022
21.720772000000004,4.966061181881496,0.07842264158320417
21.72536,5.02585821320247,0.07779552585345356
21.729952,5.093994523980567,0.07710841099384302
21.734532,5.162663715063873,0.07645276350067487
21.739124000000004,5.2301891022712415,0.07582858687412063
21.743716,5.293628012831435,0.07527333146576418
21.748304,5.359110161715215,0.07470158122234685
21.752900000000004,5.4265133642084376,0.07412765227500794
21.757488,5.49109607864457,0.07358762991366417
21.762084,5.55069288198588,0.07311538796929687
21.766672,5.603749274765364,0.0727020493740698
21.771276,5.652064125878318,0.07233104815790227
21.775864,5.702177845886567,0.07195889223262157
21.780468,5.752413750608963,0.07158491063997237
21.785056,5.794432560588383,0.07125474620886996
21.789652000000004,5.838983347747972,0.07087504099936742
21.79424,5.880425135973551,0.07048515182553983
21.798832,5.915448698351449,0.07013439798844215
21.803420000000003,5.946996707652904,0.06979569105804166
21.808016,5.971349241373175,0.06948893238824726
21.812592,5.99721213311182,0.0691445470906567
21.81718,6.0185778526122276,0.0688210776723175
21.821768,6.0358129540168335,0.06849701540453244
21.826364,6.054558413439816,0.06813748832264775
21.830952000000003,6.072893177271732,0.06775334485283037
21.835544,6.088118942169641,0.06735057709105768
21.840132000000004,6.09770373095337,0.06698042574679423
21.844712,6.102136282479504,0.06661546087672958
21.849304000000004,6.106158138414572,0.06622549641261934
21.853892,6.107603875720843,0.06583449699128778
21.85848,6.110071232188906,0.06543355110935595
21.863088,6.113926761961201,0.06500085324322219
21.867676000000003,6.117005041999993,0.06456734591407777
21.872280000000003,6.116729953676485,0.0641297606924255
21.876868,6.122706765037884,0.0636269746871903
21.881456,6.124597099752108,0.06316437121631685
21.886048,6.125588000018686,0.06270417701433527
21.89064,6.128622138608851,0.062224715805593966
21.895232,6.1345989499702505,0.06172817819745138
21.89982,6.140697946045795,0.0612223758086789
21.90442,6.142832650188311,0.060746736077567705
21.909008,6.140592366806733,0.06027046447255493
21.913608000000004,6.132588922596832,0.05982426376743266
21.918196,6.117023448663311,0.05941215469818624
21.922796,6.101580159443935,0.058992016453273136
21.92738,6.091900031052884,0.058540439934663686
21.931972,6.086672933451444,0.058031840240093516
21.93656,6.075682675021679,0.057547619422938505
21.941156,6.062649178268328,0.05707878122794507
21.945752,6.052025473981001,0.056568263525666074
21.950352,6.038703466350729,0.05605906503148438
21.95494,6.0239491439676005,0.05552839363837747
21.959536,6.001754976574997,0.05501736209662224
21.964124,5.980338058915895,0.054509191274971294
21.96872,5.953280165142615,0.054017741220001955
21.973308000000003,5.922091653273532,0.05350233193941825
21.9779,5.890658771976158,0.05299834284140812
21.982496,5.8543621642981085,0.05251481712902996
21.987084000000003,5.811525146058232,0.05204669430846421
21.991676,5.7697097469801495,0.05156546959793816
21.996256,5.726339848435064,0.05106337376255018
22.000852,5.685790437947066,0.05054404199147852
22.005436000000003,5.644996658030777,0.050030938489510665
22.010016,5.606123931723929,0.04950075474845692
22.01462,5.559322621551024,0.049010863932184845
22.019208,5.501772239454973,0.048571300166398684
22.0238,5.436703969083931,0.04820370326847077
22.028392000000004,5.379319913150653,0.04779479746925074
22.032988000000003,5.318870999731997,0.04740289123239626
22.037588,5.257033913009109,0.047034456691552186
22.042164,5.193930837696136,0.04668318432949559
22.04676,5.124986558289322,0.04641392278761538
22.051348,5.057963332491949,0.046128285743831224
22.055948,4.984033141990312,0.045878026459187725
22.060536,4.909369843203801,0.045673813728946744
22.06514,4.833973436132417,0.04551559503589733
22.069732,4.753713302680356,0.0453794277074735
22.074328,4.676273657285385,0.04522819923484512
22.078912000000003,4.596546404138534,0.04510711810290869
22.083504,4.513632108792159,0.04501457387320528
22.088096,4.430106889875053,0.04496290749175287
22.092688000000003,4.344294063206071,0.04494070153868712
22.09728,4.261423909308323,0.04489547442131054
22.10188,4.179986070163434,0.04487500957922542
22.106468,4.107009695189812,0.04482772587563996
22.111056,4.037753242720927,0.0447721292994397
22.115644000000003,3.9696405941279815,0.04469689242047481
22.120240000000003,3.893232807526542,0.04470858718921869
22.124832,3.816702836210957,0.04473230600310693
22.129424,3.7362085729623438,0.04478378094713044
22.134012,3.654937059980228,0.044819830944795684
22.138600000000004,3.578773642807081,0.04480762580429111
22.143196000000003,3.50326529065329,0.04481385416039808
22.147784,3.43274284959432,0.044773534093670575
22.152372,3.3615653435159936,0.044709103201667336
22.156968,3.29537374853249,0.04459588512602785
22.161556,3.2321248263202214,0.044455038369672156
22.166168,3.161968939403689,0.04436928052811612
22.170756,3.0906692486112175,0.044317100772781386
22.17536,3.016426885047511,0.044294065373676146
22.179948000000003,2.9415294564644476,0.04423566867554488
22.184536,2.8654882240054453,0.04421226230801018
22.189132,2.7853605148992693,0.044248076348213046
22.193724000000003,2.6979151454977646,0.044296448804661354
22.19832,2.6030299310867857,0.044358301161141395
22.202908,2.509288520551746,0.04436677646100501
22.207508,2.4186119675020867,0.04429550520320205
22.212084,2.331366826080245,0.04411149996475296
22.216684,2.246287107696136,0.043848244486453046
22.22128,2.1610852045978817,0.0436050419949965
22.225880000000004,2.0739622478901856,0.043339774343630795
22.23046,1.9801766959065183,0.04310389635826144
22.235056,1.8827934061322584,0.042813690633486785
22.239656000000004,1.783366878034412,0.040623803299204696
22.244248,1.6840625346507114,0.038440878764837066
22.248836,1.5789950304386866,0.03629014296543074
22.253432000000004,1.4712292228837185,0.0341601302407668
22.25802,1.3712698144806612,0.031997684050093934
22.262608,1.2774401210483652,0.02979495664977153
22.267196,1.1874525348349518,0.027565896555087472
22.271792,1.0981200136408953,0.025363641627835252
22.276384,1.0091540465892754,0.023129207510697945
22.280976000000003,0.9242745561848298,0.020860644958864732
22.285568,0.8440144227327689,0.018580380331631917
22.29016,0.7682514615189475,0.016309356877346425
22.294752000000003,0.6940429997721304,0.014095677202666008
22.29934,0.6202452336163784,0.011966941805105108
22.303932000000003,0.5469803477658371,0.009907312079040012
22.308528000000003,0.47574503856803746,0.007918136109260447
22.31312,0.4101507054844162,0.005900393790998726
22.317724,0.3508524135343299,0.00392313710511876
22.322312000000004,0.3044042349504505,0.0019327634485730794
22.3269,0.2641299127859604,0.0
22.331484000000003,0.22835276285970954,0.0
22.336084,0.19887165406699361,0.0
22.340676,0.17580877112195833,0.0
22.345268,0.1608407982057537,0.0
22.349864000000004,0.14844894391834693,0.0
22.354440000000004,0.13953264270738597,0.0
22.35904,0.13433626400116205,0.0
22.363628,0.13285980779967518,0.0
22.368224,0.13972263105531035,0.0
22.37282,0.1480177690638042,0.0
22.377416000000004,0.16260894820583302,0.0
22.382004,0.17617850818606834,0.0
22.386596,0.1886042642903644,0.0
22.3912,0.20192945484230837,0.0
22.395792,0.22191724067022428,0.0
22.400384000000003,0.2441282526553467,0.0
22.404976,0.2623749727074407,0.0
22.409568,0.28074387747368035,0.0
22.414160000000003,0.2926808947213938,0.0
22.41874,0.30486228139739857,0.0
22.423332,0.31974197141634686,0.0
22.427916000000003,0.33090173893055813,0.0
22.432504,0.34398256005421074,0.0
22.437096000000004,0.35514232756842196,0.0
22.441684,0.36156055341610255,0.0
22.44628,0.3602945648260177,0.0
22.450872000000004,0.36107181455951987,0.0
22.45546,0.3646695523501113,0.0
22.460056,0.3640586287793829,0.0
22.464644,0.3620153904557959,0.0
22.469248,0.357396033503411,0.0
22.473844,0.35751821821755664,0.0
22.478432,0.35878420680764156,0.0
22.483024,0.3573518920547829,0.0
22.487604,0.3500342317594545,0.0
22.492200000000004,0.33989608340703675,0.0
22.49678,0.33858595336832364,0.0
