Time,Force,Position
21.284372,4.921630604892918,0.054039444592432435
21.28896,4.923819690115801,0.05369896214789297
21.29356,4.925886590624539,0.05336765922935677
21.298152,4.9254995572186235,0.05302309388278772
21.302744,4.926378512402795,0.05265029618588651
21.307332,4.924969859835087,0.05231254822370552
21.311924,4.920374165067852,0.05201316880208378
21.316524,4.913124308406301,0.05177471870706939
21.321124,4.90563008231646,0.05155122688158232
21.325716,4.900678073038527,0.05146306798078341
21.330308,4.905385712888169,0.05156546767970598
21.334896,4.921429686046534,0.05185190738617937
21.339484,4.940470713056502,0.05234456641200182
21.344072,4.973668561432282,0.0529840369414577
21.348664,5.020979089725246,0.053708724818862144
21.35326,5.072552660459897,0.05459178620997043
21.357852,5.130188142531532,0.05562805924700163
21.362448,5.189021809559471,0.05683925410907557
21.367036,5.253917387924394,0.05818407822931719
21.371628,5.327573180969242,0.05965383526358901
21.376216,5.407413070065219,0.06124402729443382
21.380804,5.486896644650498,0.0629802428783793
21.385416,5.573830303876989,0.06480294833242614
21.390004,5.66604862470696,0.06674664292215599
21.394596,5.767149344931004,0.06878698101072374
21.399184,5.876599584243907,0.07090602021348198
21.403772,5.988880551245639,0.07313048746490833
21.408368,6.107545842278162,0.07539683647459959
21.412968,6.238725172312238,0.07763879650848042
21.41756,6.367406426983033,0.07979331916654459
21.422144,6.486139521649337,0.08174237033133018
21.426744,6.589405664911112,0.08353048480570577
21.431332,6.68284583288254,0.08513888029347132
21.435932,6.7575878658012885,0.08660459559856025
21.440512,6.8142087854211955,0.08800728666026757
21.445104,6.861170055913528,0.0892898821832104
21.449688,6.901658719477812,0.09041198530974676
21.454276,6.930278169428163,0.09141352437315002
21.458872,6.9480500249263715,0.09228157310613076
21.463468,6.951376548181849,0.09304787161372581
21.468056,6.943611107556892,0.09370693278296813
21.472652,6.9237320838897105,0.09428128687765909
21.477244,6.8920279880572215,0.09479845800251299
21.481828,6.851685862258953,0.0952164680271885
21.486416,6.796165295933078,0.0955983800566492
21.491016,6.729186211584333,0.09591430125360087
21.495604,6.656389585326897,0.09611419901595139
21.500196,6.575121255266454,0.09626101303940744
21.504792,6.479251506432244,0.09643643951524214
21.509372,6.382027486110693,0.0965522983931177
21.513964,6.2844369116467025,0.09668771641812099
21.518552,6.188156467221427,0.09684788549237541
21.523144,6.0951072064443075,0.09700734504678753
21.52774,6.004922575172904,0.0971939609555923
21.532328,5.9216890500543915,0.09734510766271043
21.536916,5.840909458850532,0.09749393308456153
21.541504,5.761972877990596,0.09767510572892162
21.546092,5.691541902750556,0.0978132357468059
21.550696,5.621032884244998,0.09801423525097917
21.555284,5.55584242915981,0.09823654684843226
21.55988,5.4913511805426065,0.09852950512308158
21.564464,5.432955745079275,0.09884643945690061
21.569056,5.376647689388158,0.0991905178240016
21.573636,5.3248809473839085,0.0995472900514502
21.578236,5.281741995713702,0.09984856236510033
21.58282,5.241345488835065,0.10018623969784873
21.587416,5.202914177014499,0.10055465860288708
21.591996,5.166448060252002,0.1009571199280968
21.596588,5.130925519385782,0.1014220403155454
21.60118,5.093936761949814,0.10201020255455306
21.605772,5.057236515390764,0.10264442011557257
21.61036,5.025688506089311,0.10324451757837172
21.614948,4.996472245988364,0.1038475490381934
21.619536,4.973429842306806,0.10439275710109891
21.624132,4.948344200301662,0.10498436200221199
21.628724,4.925057427191813,0.10555698167261664
21.633316,4.898417285719664,0.10615827272391358
21.637912,4.867935037028632,0.10682210503489804
21.6425,4.840273276394688,0.10745351990084044
21.6471,4.816697992407919,0.10800125964875333
21.651688,4.796964815640033,0.10849320639233527
21.65628,4.7786198121763785,0.10893668083264046
21.660876,4.761540797302809,0.10934231113722287
21.665464,4.737510676276346,0.10982798690222362
21.670076,4.70910556772579,0.11036243223186229
21.674652,4.682455186621903,0.11081573117707429
21.679256,4.653473056317508,0.11128011006477609
21.683844,4.621504111793251,0.11175056607648087
21.688432,4.593210948325102,0.11210645413404291
21.69304,4.568182870321997,0.11231048540545022
21.697632,4.541067412546678,0.11250497202374969
21.702236,4.507367402760903,0.11275437840982554
21.706812,4.47080276346941,0.1129913466357515
21.711416,4.428308637186821,0.11329077484927955
21.715996,4.3863032497608145,0.11355277566035062
21.720592,4.340944493972508,0.11385020711181383
21.725184,4.29390905400305,0.1141826301964321
21.729784,4.242865180651936,0.11456049142544743
21.73438,4.19051117726211,0.11492333678742567
21.738976,4.133004936614688,0.11534871904533314
21.743568,4.072511881747402,0.11578000033335395
21.748168,4.007888208784314,0.11626329430749781
21.752756,3.939911167458926,0.11679955471815175
21.757352,3.8765534830859227,0.11727209078885635
21.761932,3.8086986264746807,0.1178746867567958
21.76652,3.7386783468257057,0.11856162801604413
21.771108,3.6742990432909095,0.11910398131231396
21.775696,3.6142947272802064,0.11958343672211574
21.780288,3.554168226555358,0.12007301818725359
21.78488,3.4924091830979873,0.12066427155633956
21.789476,3.4358023768982124,0.12118111634260634
21.794064,3.3895000452136292,0.12153473334807091
21.79866,3.344141289425322,0.12196640084274243
21.803244,3.3038125861804652,0.12233728242303199
21.807836,3.2674923163172642,0.12267268565329292
21.812432,3.234036675959781,0.12303181803634224
21.81702,3.209331010650485,0.12323304213841269
21.821616,3.193253135675231,0.12329200291478926
21.826204,3.1800398902056943,0.123364309773231
21.830791999999995,3.1727561317272546,0.12334620036403086
21.835376,3.172301294687562,0.12322103653701673
21.839952,3.179574813534262,0.12297166566074205
21.844548,3.194332318839065,0.12262653993670142
21.849128,3.2147308002580455,0.12214717395726016
21.853724,3.2446565064587163,0.12148813441160629
21.858312,3.2780577657358325,0.12076055270560052
21.862912,3.308927047832779,0.12017326977554796
21.867508,3.341595198825021,0.11955780423707825
21.872108,3.3767172837319155,0.11892248643955189
21.8767,3.413393868105814,0.11826813061005824
21.881291999999995,3.450847702213215,0.11762295418706338
21.885892,3.482904929634729,0.11710264793827034
21.890484,3.5217469370463603,0.11640638488517557
21.895084,3.56148837890564,0.11570351021296249
21.899676,3.5977542676884737,0.11505605551155884
21.904267999999995,3.63450889532789,0.1143471971704785
21.908852,3.6657447315672735,0.11376509591940034
21.913428,3.696980567806657,0.11320088122750765
21.918024,3.729604577350271,0.11257242573297906
21.922612,3.7592859141226502,0.11203088306506435
21.927195999999995,3.784103524514353,0.11161901128713798
21.931788,3.804423962667816,0.11129359581977434
21.936376,3.821513217173125,0.11099659701487596
21.940971999999995,3.836559233354847,0.1107672320094142
21.945552,3.8541372267167393,0.11044197087081066
21.95014,3.8726146545262785,0.11010663072692764
21.954732,3.892358070925903,0.10971961063584999
21.95932,3.910302618430232,0.10936547093907568
21.96392,3.9275921009152044,0.10900580078662513
21.968512,3.9526879825520878,0.1084899506912425
21.973099999999995,3.973286691950732,0.10803917103581473
21.977704,3.994007586063522,0.10757339837799543
21.982296,4.0120301768333695,0.10716139077443831
21.986892,4.028376083422065,0.10676648393354082
21.991476,4.05342782361032,0.10621073949223742
21.996068,4.081544421283956,0.10559350653743017
22.000656,4.1175896028236485,0.10482349532204584
22.005256,4.149259796839248,0.10410511109520348
22.009844,4.179908371693053,0.1034202060829476
22.014432,4.210923500689296,0.10270187553087477
22.019012,4.245247856599211,0.10189506872469434
22.023604,4.282759254708652,0.10101548051439463
22.0282,4.31949340308459,0.10013678838302172
22.032792,4.354550867279379,0.09927850616061892
22.03738,4.383845170645843,0.09853536864274776
22.041968,4.410685540097656,0.097806188446454
22.046555999999995,4.434949790920671,0.09709823972216108
22.051151999999995,4.4601134761913315,0.0963834734723581
22.05574,4.485277161461995,0.09567619979099007
22.060336,4.502468121417973,0.09506620319696307
22.064927999999995,4.5244006230404805,0.09438521817248131
22.069516,4.550175231881872,0.09365068832890908
22.074107999999995,4.576072025437408,0.09291766403066706
22.078696,4.603112622868883,0.09215943217851971
22.083292,4.6197707025196495,0.09155297458433637
22.087883999999995,4.630543436627946,0.09104322906456949
22.092472,4.633509771584332,0.09065974621375636
22.097076,4.6403182137596,0.09022273843898752
22.101668,4.645449971753717,0.08979302448007301
22.106255999999995,4.648660676138394,0.08938909387282966
22.110848,4.648029273304188,0.08903936678136606
22.115435999999995,4.645110262718105,0.08874815914659646
22.120028,4.645011740189109,0.08842355304501644
22.124624,4.64364722907003,0.08813677803892313
22.129216,4.644203771560392,0.0878242211096636
22.133804,4.64848023655549,0.08747235760415156
22.138404,4.659174927398269,0.08706074555712075
22.142992,4.668192934059898,0.0866552005678468
22.147592,4.676067136845588,0.08627844433983425
22.152184,4.684352035222343,0.08593421443452784
22.15678,4.6954574216561875,0.08556570880341732
22.161364,4.703620135318796,0.08524115505929289
22.165956,4.709983980086109,0.08493300375327496
22.170544,4.715204020977485,0.08465208871746893
22.17514,4.7267201030023935,0.08432452581979238
22.179732,4.745676030036778,0.08392749307993119
22.184324,4.768596249004191,0.08347711421994797
22.188916,4.790372664095663,0.08305768867727702
22.193508,4.813825763368286,0.0826366009483647
22.198096,4.842919838755087,0.08216362637194251
22.202692,4.878676509417861,0.08162678482536848
22.207284,4.916720787832511,0.0810466998589902
22.211876,4.952599643209431,0.08051180602839986
22.216472,4.992564975233523,0.07992094137830912
22.22106,5.034573545581203,0.07931166712922622
22.225652,5.071063324528851,0.07874966896076081
22.230239999999995,5.103710996257616,0.0782385025694937
22.234832,5.140078590491118,0.07770330153188693
22.239428,5.176934923581203,0.07713558444764809
22.244015999999995,5.212358941918428,0.07655113833747608
22.248612,5.241486919122117,0.07601043924026503
22.2532,5.271880884915893,0.07544283501902889
22.257788,5.300109427671937,0.07491079452235756
22.262384,5.328826709284562,0.07434731689761372
22.266976,5.354312807249034,0.07378194322520255
22.27158,5.3737472335082614,0.07323775950758449
22.276168,5.388806672243395,0.0727089232413232
22.28076,5.401412177063877,0.07217630318203791
22.285352,5.412585367131499,0.07162807829114465
22.289947999999995,5.417340331351442,0.07111986749291153
22.294536,5.412856581666615,0.07066991965223403
22.299136,5.401832421419961,0.07026254266990235
22.303732,5.3906419350105335,0.06980675014296023
22.308332,5.377241884114744,0.06932950001610372
22.312923999999995,5.358323041818922,0.06888112089406583
22.317516,5.343246306741984,0.06839959256550841
22.322123999999995,5.323139519121596,0.06790968942989195
22.32672,5.293016767862936,0.06746098519509561
22.331308,5.264815070213716,0.06699507379016598
22.335908,5.236735557278643,0.06651568747108273
22.340496,5.20583555628648,0.06604793203759221
22.345084,5.171215632789581,0.06559691332663088
22.349672,5.136062828987471,0.06511857939484125
22.35426,5.097845167699978,0.06466992992477054
22.358847999999995,5.056684833641252,0.06424138396217172
22.36344,5.015524499582526,0.06380578495398573
22.368036,4.975796480276657,0.06338576685351247
22.372623999999995,4.935413395951434,0.06294313690306261
22.37722,4.893109258016769,0.06250799462532045
22.3818,4.85170455452975,0.062064698387625836
22.386396,4.813120339099822,0.06159699937680573
22.390992,4.779033295908133,0.06111061206545328
22.395579999999995,4.743558079412214,0.060656887419476405
22.400188,4.706572504897919,0.06024543548084511
22.404779999999995,4.672285233726567,0.059821800827331253
22.409375999999995,4.639919016164655,0.059382681778698695
22.413964,4.611927786126838,0.05893578238875364
22.418555999999995,4.597794626946175,0.05842974896022022
22.423151999999995,4.57789830693719,0.05795885063325558
22.427744,4.56033373612871,0.05750791319370453
22.43234,4.546244718396676,0.05705385954348893
22.436932,4.536652872902881,0.05658998779501963
22.441531999999995,4.530658765199677,0.0561178799249834
22.446124,4.53030563361065,0.05561893597085104
22.450724,4.535349108707514,0.055110158501601746
22.455304,4.54362376745253,0.05462456255895837
22.459904,4.556639967864075,0.054118551252753666
22.4645,4.577506708876162,0.05362625796052622
22.4691,4.605446740755285,0.05313887444134207
22.473692,4.639027748748586,0.05263359983892495
22.478288,4.676983744265982,0.052137322092083174
22.482884,4.715839174231025,0.05164446016957967
22.48748,4.75829234198666,0.05115172294587189
22.492068,4.800378955599857,0.05068448305264068
22.496664,4.842221199784764,0.05023847808340412
22.501244,4.875113240941821,0.04986025860726568
22.505835999999995,4.908660347118233,0.04950264358914827
22.510428,4.93337943498094,0.04920754440941964
22.515016,4.961329706491801,0.048935205676375694
22.519604,4.990423781878603,0.04864898828136591
22.5242,5.020539476427199,0.0483549840208426
22.528792,5.045791444595117,0.04808966538077179
22.533384,5.068877989725302,0.04785231896042623
22.537968,5.084813200722935,0.04767691935472486
22.542556,5.098172293091769,0.04749510853037465
22.547152,5.106912028508217,0.04732218757313098
22.551739999999995,5.106168680591604,0.047183834059179745
22.556328,5.0931217612848405,0.04708847819413199
22.560936,5.069037259178012,0.04700919095408346
22.565528,5.032404816252741,0.04698949795939709
22.570128,4.989231962765643,0.0469854654435948
22.57472,4.941439752326161,0.046987168981671934
22.579312,4.891848672991383,0.04698493593485654
22.583915999999995,4.838782040580161,0.046973756320230084
22.588496,4.780074432054759,0.04697932527979942
22.593104,4.727129984357681,0.04695947213281901
22.597688,4.669688364422364,0.04693615691070793
22.602276,4.6106922450200445,0.0468931468205464
22.60686,4.5474433228077755,0.046829261372415894
22.611464,4.474589132548299,0.04680841173234125
22.616043999999995,4.396093966174645,0.046801521130554524
22.620636,4.315555561477403,0.046817256548893765
22.625228,4.230519984541923,0.046831515368515014
22.629819999999995,4.146872580910672,0.04680839427119106
22.63442,4.060815384813398,0.04683481105704886
22.639012,3.9729593198208275,0.04686073888417101
22.6436,3.887024308437699,0.04687858535537575
22.648184,3.804154154539951,0.04686561165337083
22.652772,3.7248817384327944,0.04685286882542064
22.657356,3.654559525353488,0.04675797161817074
22.661944,3.5834600625406803,0.04664553342999646
22.666532,3.5140372839090217,0.04654159459214857
22.671116,3.432965998906569,0.046524311619985464
22.675695999999995,3.353937952227704,0.04647464440690342
22.680288,3.2778525783200734,0.046397643710905774
22.684868,3.1972700321742042,0.04630949501026853
22.689456,3.1145220629906016,0.04626148296908515
22.694056,3.0307524746452055,0.046220690675503995
22.69864,2.947637951319166,0.046207656021409756
22.703228,2.8692649696596577,0.04617302884764896
22.707832,2.7993534521714167,0.04608633764855163
22.712428,2.7307079232732607,0.04595269045513384
22.717032,2.6637390785562545,0.04583439199102197
22.721612,2.5938275610680135,0.04574119815810612
22.726212,2.5213399249509747,0.04563679799671164
22.730792,2.448075039100434,0.04550018917955862
22.735388,2.375831772411686,0.04533393107707069
22.739972,2.304365755456441,0.045175367123808735
22.744572,2.2303236198723972,0.04497478619842833
22.749164,2.1510512037652405,0.04487128693894421
22.753756,2.077175394343971,0.0447597291772331
22.75834,2.0007234662939037,0.04460271294824033
22.762932,1.9360422293287758,0.044287550150617264
22.767532,1.8690733846117695,0.04404327340264976
22.772116,1.8019823551806178,0.043801925747929335
22.776703999999995,1.7335031524452356,0.043658521338534206
22.781296,1.6670671880334402,0.04346607480300386
22.785884,1.6016528427834384,0.04321160005150069
22.790479999999995,1.5382817358570235,0.042882654268047424
22.79506,1.4740111944829608,0.04251934524060237
22.799648,1.4020564386711327,0.04028295756606038
22.80424,1.3299794981451591,0.038071630103178086
22.808816,1.2627662839998617,0.03584667736508561
22.813407999999995,1.198495742625799,0.03361003350908654
22.817992,1.1362684395753233,0.0313602854371531
22.822568,1.0784161240489414,0.02914401356582925
22.827155999999995,1.0192978199324745,0.0269584577321566
22.831752,0.9591578966542141,0.024780034200602746
22.836348,0.902249157024108,0.022644747520021016
22.840952,0.8503263284888241,0.02046797544930931
22.84554,0.7928847085535072,0.01831719925896217
22.850131999999995,0.7368754033710492,0.016213591169343382
22.85472,0.6796001095985061,0.014201038548001742
22.859316,0.625267488597198,0.012151147054768314
22.863904,0.5737553556529792,0.010116872755782944
22.868504,0.5262075146417889,0.008006053741667903
22.873088,0.485077899478279,0.00591558125740827
22.877688,0.4483232718388628,0.0038917626688956676
22.88228,0.41414476282824436,0.0019273604993270744
22.886872,0.3834418068940718,0.0
22.891459999999995,0.3545377198551949,0.0
22.896052,0.3301308050545572,0.0
22.900652,0.2998385447114497,0.0
22.905244,0.2721224029971401,0.0
22.909828,0.24890343352106983,0.0
22.914424,0.22658389849264737,0.0
22.919011999999995,0.20925027455904685,0.0
22.9236,0.19653600757783124,0.0
22.928188,0.18856328226314625,0.0
22.93278,0.1775256994630807,0.0
22.937363999999995,0.16984148502531518,0.0
22.941952,0.16522212807293024,0.0
22.946544,0.16060277112054533,0.0
22.951132,0.15880390222524965,0.0
22.95572,0.15369580641628203,0.0
22.960328,0.15230763311205148,0.0
22.964915999999995,0.14347961479834678,0.0
22.96952,0.13375216203699425,0.0
22.974112,0.12211699334541076,0.0
22.9787,0.11060400936797293,0.0
22.983284,0.10191151344762436,0.0
22.987872,0.09231958307962793,0.0
22.992476,0.08782241084138867,0.0
22.997056,0.0851241074984451,0.0
23.001644,0.08038256583191448,0.0
23.006232,0.0774398930606796,0.0
23.010832,0.07605171975644906,0.0
23.01542,0.07568516561401206,0.0
23.020019999999995,0.07172087368098364,0.0
23.024612,0.07135431953854662,0.0
23.029204,0.06996614623431609,0.0
23.033795999999995,0.06923303794944205,0.0
23.03838,0.07119823300751159,0.0
23.04296,0.07124237445613975,0.0
23.047556,0.07856003475146822,0.0
23.052144,0.08395664143735532,0.0
23.056732,0.09577147397092306,0.0
23.061316,0.10746412179034512,0.0
23.065912,0.11926561664470244,0.0
23.070504,0.13400978427029464,0.0
23.075092,0.1477323327340933,0.0
23.079688,0.15941164287430493,0.0
23.084276,0.1736804093225249,0.0
23.088868,0.18435143798015347,0.0
23.093456,0.195022466637782,0.0
23.098044,0.20299519195246699,0.0
23.10264,0.2073701794765606,0.0
23.107228,0.20598200617233003,0.0
23.111832,0.2034500289921603,0.0
23.116423999999995,0.20206185568792978,0.0
23.121012,0.20590396290681254,0.0
23.125616,0.20999043955398664,0.0
23.130208,0.21432128562945205,0.0
23.134812,0.2194293814384197,0.0
23.139388,0.21558727421953694,0.0
23.143988,0.2135440358959499,0.0
23.148564,0.2127667861624477,0.0
23.153172,0.21235609057138252,0.0
