Time,Force,Position
21.137176,5.02809644043024,0.04245046717859102
21.141772,5.018270465139893,0.042191795235020875
21.14636,5.007422870687752,0.04193845605748809
21.150956,4.997352525969112,0.04169214709726154
21.155552,4.989491745736833,0.04148078318697996
21.160152,4.976522869695588,0.041303710397787866
21.164744,4.961887549104931,0.04130828569111776
21.169336,4.947306609594642,0.04156318090254997
21.173928,4.9395648311548355,0.04202599632294014
21.178512,4.939683832947308,0.042678156076554355
21.1831,4.94598693079091,0.04350731522324342
21.187692,4.963049340189396,0.04443905377006082
21.192288,4.987561834229095,0.0455188729165742
21.19688,5.019524412910005,0.04673461565610537
21.201472,5.061146640718491,0.048106541542013936
21.20606,5.110018725188525,0.04966993837046271
21.210652,5.166751589890838,0.051363668483998204
21.215236,5.232122484558931,0.053200368787008484
21.219824,5.293950022516801,0.055220613361674956
21.224432,5.363393971278656,0.057388110066804734
21.22902,5.431870681959085,0.05973427650394392
21.233628,5.5127053451100325,0.06217982319247032
21.23822,5.6064308410367065,0.06472958307567418
21.242824,5.709160921071598,0.06736933130498245
21.247416,5.819463270461849,0.07007040977869594
21.252008,5.944489223340012,0.0727806948830288
21.2566,6.077521803349751,0.07531244299637613
21.26118,6.207068590651304,0.07763686125985808
21.265776,6.3255675555210535,0.07980676188777816
21.270356,6.435061936282586,0.08180766343776358
21.274956,6.539271655440637,0.08363252644613046
21.27954,6.634809442816018,0.08539032717795678
21.28414,6.728582263112995,0.08702230721693749
21.288732,6.8156822485022595,0.08853294684061248
21.293328,6.894388573354036,0.08988303350575864
21.29792,6.966089410972554,0.09104647781155839
21.302516,7.0237556119394045,0.09210964261592948
21.307112,7.071351468187616,0.09303840580586116
21.311708,7.114029216974784,0.09382243307392116
21.316304,7.146147882186731,0.09451118910506515
21.320896,7.173059929060715,0.09503140938057947
21.325484,7.184627209244318,0.09546570135550365
21.330072,7.177618539089387,0.0958237859371392
21.33466,7.162582762539403,0.09604970975627061
21.339252,7.132612914890105,0.09622902578915324
21.343848,7.093760667846735,0.09632817310254806
21.348432,7.045214869858902,0.09643815452721827
21.353028,6.994048811793642,0.09651779709023431
21.357616,6.941939177832107,0.0965639179072495
21.3622,6.886187664631351,0.09659352962099299
21.366784,6.823851599420142,0.09664090873988876
21.371372,6.755297536340915,0.09669034831020085
21.375968,6.681180540413028,0.09674371414768343
21.380556,6.60509834942707,0.09677401833906672
21.385148,6.524518986202874,0.09684107958920395
21.389744,6.443939622978676,0.09690439307870728
21.394332,6.365281313363921,0.09695090782291904
21.398928,6.289076937663818,0.09699057015724528
21.403508,6.210052073906627,0.09706497558385253
21.408108,6.133969882920669,0.0971050678521504
21.412696,6.055844453611124,0.09717755393877314
21.417292,5.980172958216233,0.0972489865108517
21.421876,5.908265526774705,0.09733853594998669
21.426476,5.8317828798294205,0.09752855583135361
21.431064,5.763928023218178,0.09766859834912785
21.43566,5.689699082207883,0.09793086709828372
21.44024,5.616780271236303,0.09821510395490847
21.444832,5.544805036160997,0.09854644577955857
21.449416,5.47761548420085,0.09887121975965116
21.454008,5.414067811479923,0.09921998654180211
21.458592,5.358781374950601,0.09954080461384042
21.463188,5.311878359327028,0.09982662526377555
21.467768,5.264242235418581,0.10017647464431224
21.472352,5.218204752425767,0.10058712377572039
21.476944,5.179651255891055,0.10096758127040156
21.481532,5.138443597462027,0.10143883586565655
21.486128,5.096258461319834,0.10199989028926615
21.490704,5.053584586321058,0.10260240963265765
21.495288,5.017617448046884,0.10317309621718243
21.49988,4.983615504830778,0.10377304824485885
21.50446,4.951578756672743,0.10441435963192706
21.509044,4.921751573001067,0.1050727264863767
21.513644,4.895399942405836,0.10570681278971117
21.51824,4.87624378739179,0.10626359418487272
21.522832,4.85492220934001,0.10687214935768331
21.527408,4.840018857135911,0.1074063849242732
21.532008,4.822295016874723,0.10799474664782037
21.536584,4.803916111594179,0.10858159959909923
21.541188,4.78091784936125,0.10924286083624096
21.54578,4.755343468499523,0.10993956286248359
21.55038,4.725394100113702,0.1106890702237132
21.554964,4.691314113632077,0.11147092450801621
21.559556,4.66156497322592,0.1121480706366967
21.56414,4.634592179428223,0.11271436928317062
21.568732,4.607453059467753,0.11322185356033998
21.57332,4.582845916687451,0.1136499330885501
21.577912,4.564079978000993,0.11389990339958206
21.582492,4.545025528437614,0.11411036093399271
21.587084,4.523228634082664,0.11429410189301287
21.591664,4.4985671102219955,0.11446459220506738
21.596256,4.4760268679504325,0.11451374633596804
21.60084,4.4580618411826265,0.11442151693821032
21.60542,4.440707737985548,0.11427342283486079
21.610012,4.417668517225664,0.1141572503817031
21.614596,4.393563535855357,0.11400043090003338
21.619184,4.363529067493952,0.1139028629933776
21.623776,4.339746498817455,0.11364648815108362
21.628364,4.315308865121601,0.11337953393346539
21.632964,4.293281023891772,0.11302669866239254
21.637556,4.274318040147322,0.11259562683506107
21.642152,4.255843795259454,0.11211348898885777
21.646756,4.238635538961672,0.11157712239933772
21.651336,4.220405663502098,0.11106450998363704
21.655928,4.196534811928344,0.11065637116218403
21.660504,4.166900799526266,0.11036691523047995
21.665104,4.13804403685769,0.11007264076143286
21.669684,4.108820720046677,0.10980717849337439
21.674284,4.079353033807373,0.1095646821447303
21.678868,4.051684216463365,0.10928887285632877
21.68346,4.024670464138713,0.10902242862042677
21.688056,3.9997440915862765,0.10877057934793989
21.692648,3.969587438510727,0.10865538030609637
21.697236,3.941884719349829,0.10851739455927485
21.701827999999995,3.9219103560753243,0.10829463849305507
21.70642,3.908887098953712,0.10799034132420164
21.711012,3.906534870489727,0.10754328796440041
21.715596,3.9070472715314617,0.10712329018522153
21.720196,3.916309647621382,0.10660798807046573
21.724784,3.932156575721757,0.10606215593835185
21.729376,3.95111250275614,0.10551967149292606
21.73396,3.9774302315344805,0.10494767531426745
21.73854,4.0066125898185385,0.10439960361701241
21.743132,4.040047750912544,0.10382478953423889
21.747716,4.083010136788239,0.10316144446403691
21.752304,4.133700878550327,0.10242378846677282
21.756896,4.190443292017659,0.10164605008473829
21.761484,4.246574781914263,0.10093264874298699
21.766088,4.307980693782608,0.10017030799178324
21.77068,4.371351800709022,0.09945457890693661
21.775268,4.4419183832166205,0.09866670182829791
21.779864,4.514161649905367,0.09788989933591966
21.784456,4.590779904118209,0.09707138462959791
21.78906,4.661390628074435,0.09637046997760562
21.79364,4.730202483135365,0.09571207619816309
21.79824,4.79439498124391,0.09513370777679081
21.802824,4.856788610457159,0.09459727506828308
21.807428,4.915584501879818,0.09411171372663041
21.81202,4.966818363578856,0.0937363009091283
21.81662,5.011223303839148,0.09340981581896285
21.821212,5.052397060451285,0.09309246113354738
21.825808,5.0869862650529685,0.09280088569526646
21.830396,5.121409143491879,0.0924643445335561
21.834988,5.1515792191208405,0.09215505876908288
21.839576,5.174143123577555,0.09188517134569094
21.844172,5.190000291309669,0.09164187961043979
21.84876,5.197351853421886,0.09144288965423758
21.853348,5.20261603576189,0.09121999416317705
21.857924,5.203871784720237,0.09100037274064822
21.862508,5.201241285011071,0.09077290395892815
21.8671,5.193825102186747,0.09054596835455057
21.871688,5.180723801799617,0.09032399212577702
21.876272,5.161037949402032,0.09011322553430415
21.880852,5.14604949722235,0.08978895703900074
21.885432,5.126808242232721,0.08948118145864806
21.890024,5.104990868614292,0.08918419794714592
21.894612,5.077244008004766,0.0889077188333975
21.89922,5.043812029832434,0.08863212451368047
21.903808,5.0125013332492045,0.08825182909683664
21.908396,4.983478244417856,0.0878153331974116
21.913,4.954943894443089,0.0873369337457198
21.917588,4.926531729182467,0.08684422595047656
21.922184,4.895421260578903,0.0863680019299933
21.926772,4.8674978341748645,0.0858311460904605
21.931372,4.842272711113769,0.08527039714988692
21.93596,4.822033499147496,0.08463477885551969
21.94056,4.806169274705317,0.08397209614124457
21.945144,4.79132666942493,0.08328956631340168
21.949744,4.774318641106812,0.0826434231321231
21.954344000000003,4.75821004723634,0.08198698286850303
21.958928,4.739813845613991,0.08137786735427303
21.963516,4.723871577906295,0.08076503152131591
21.968108,4.715902035513284,0.08010521856562308
21.9727,4.70294658202545,0.07951010984732361
21.977296,4.694366116061709,0.07889358759554062
21.981872,4.689383387888561,0.07825139431206546
21.98646,4.691351765868303,0.07758238783150002
21.991048,4.700926315020293,0.07689712742253778
21.995644,4.711322255354414,0.07627983811026061
22.000232,4.72098508740366,0.07572179174409555
22.004816,4.731469310635038,0.07523012285355961
22.009408,4.74800520557166,0.07472543344126031
22.013996,4.768549533889937,0.0742351640140711
22.018588,4.788605123351631,0.07379057027950126
22.023176,4.811236831442123,0.07334613860742736
22.027764,4.837876972914272,0.0729262277726998
22.032376,4.865172179405778,0.07252509568679535
22.036964,4.898519057602528,0.07211977632674677
22.04156,4.9391835960946056,0.07167558959310655
22.046148,4.983201502948984,0.07123774426153277
22.050736,5.030572778165661,0.07080257909968499
22.055332,5.079376368135198,0.07039057709038278
22.059932,5.126136719781147,0.0700139632332805
22.064536,5.180991981455926,0.0696069733485573
22.069128,5.234048374235411,0.06921377617910913
22.073724,5.289148005338484,0.06880613315505084
22.078312,5.340649898650963,0.06842077415078238
22.082912,5.389697858048791,0.06803550716739144
22.0875,5.440011806036703,0.06762738339574156
22.092104,5.49273554649064,0.06717770576155216
22.096692,5.5452929607818024,0.06668468969856749
22.101292,5.594497006710665,0.06619986840009574
22.105876,5.639448249829582,0.06571681768288307
22.110456,5.681701189605553,0.06524676101525452
22.115064,5.720722945733371,0.06477105325706764
22.119656,5.752549226280004,0.06432365541697475
22.124244,5.782165942340279,0.06385679209054151
22.128836,5.803932117800011,0.06340258532756922
22.133424,5.8178477526592065,0.06295761495443082
22.13802,5.82673333497495,0.06250474528290324
22.142596,5.831610483909039,0.062032353987348805
22.147192,5.829658711404382,0.061551908856300866
22.151784,5.822921255784564,0.061044464105828984
22.156372,5.809232694011856,0.06053950214422864
22.160956,5.793090198324497,0.06002217733966007
22.165544,5.771551095951249,0.059515056782732945
22.170124,5.748701863539289,0.05897757937961773
22.174712,5.725197566107973,0.05842396752286234
22.179304,5.698462085028502,0.05785160539703335
22.183904,5.665186193387204,0.057300081504773524
22.188492,5.634075724783639,0.05672107204753325
22.193096,5.596669215046538,0.056143595208507494
22.197692,5.562694116937256,0.05551237544605686
22.202276,5.526142900199177,0.05486999711486132
22.206872,5.489591683461098,0.05422201158076511
22.211464,5.451608151970159,0.053543782347202945
22.21606,5.412603001317426,0.052867329572901654
22.22064,5.375274534845844,0.052190379485197336
22.225236,5.338723318107763,0.05151044535357243
22.229824,5.306014208588566,0.050807307990234515
22.234428,5.27408234880287,0.05010371526771454
22.23902,5.245870411521912,0.04937961856680114
22.243616,5.217946985117874,0.04868501596528157
22.2482,5.18990137399969,0.04798944232204361
22.252796,5.162388643186717,0.0473108243081169
22.257384,5.131566685460072,0.0466616444168418
22.26198,5.100133804162699,0.04604679964447812
22.266568,5.065269511237508,0.0454743141526466
22.27116,5.032614782798677,0.04493156906370656
22.275748,5.004212857169794,0.04440080889047454
22.280332,4.97250170462724,0.04390806285709653
22.284908,4.946842223789929,0.04342911315570788
22.289488,4.916485342734717,0.04301880615912058
22.294076,4.888582395594154,0.04262201822873224
22.298656,4.858924721006926,0.042280288996588165
22.303248,4.831232241477767,0.04198725264059422
22.30784,4.802806653663733,0.0417425527867666
22.312428,4.774014511707265,0.04152133090568956
22.317028,4.747676303665448,0.041317182693198236
22.321616,4.7157412609580796,0.04118320505105378
22.326204,4.685360717717715,0.04106605596679647
22.330788,4.65808917341136,0.04098631351691708
22.335388,4.634537551609742,0.040900978776191116
22.339984,4.614217113456278,0.04084527698145408
22.344564,4.596717163359903,0.04078366940908303
22.34916,4.587678677434797,0.04070741317130869
22.35374,4.5794174412431925,0.040640677686616465
22.358344,4.5787182347752085,0.040558836440122946
22.362932,4.572011498050608,0.040512039186293064
22.367516,4.560441034945331,0.04048443348456655
22.372108,4.546705148802322,0.040480316043933595
22.376704,4.52798335156449,0.04050484749060491
22.381304,4.509383739040805,0.04052050284772543
22.3859,4.489884692069473,0.040533714318136
22.390488,4.4688311456311345,0.04052565727207209
22.39508,4.445079295849853,0.0405133415382647
22.399668,4.4207945657633605,0.04047068836447562
22.40426,4.390091609829189,0.04042524448853394
22.408847999999995,4.355546546676134,0.040391986403290926
22.413432,4.322389656827309,0.0403204440224194
22.418024,4.282570171702512,0.04026618200501462
22.422612,4.234533591834739,0.04020609921404804
22.427204,4.180733851138642,0.040163978491934246
22.431784,4.122436938204306,0.04011160387005915
22.436376,4.057599614708142,0.040061902609577905
22.440964,3.9864662500784442,0.03999003405129721
22.445552,3.9126345821058033,0.039908881705765877
22.450144,3.8276431466189504,0.03982961781176235
22.454736,3.744039884436329,0.03970531724846325
22.459336,3.662602045291439,0.03954647011014822
22.463932,3.5746237955847238,0.03939233097001953
22.46852,3.483947242535064,0.03923127885175254
22.473124,3.3935150589136964,0.039030521951270866
22.477724,3.298341333625798,0.038829286354015856
22.482316,3.20149092415675,0.03858849642492676
22.486904,3.1039854496683446,0.038299513938236114
22.491496,3.0064799751799396,0.03798929552771855
22.496076,2.913471672929774,0.0376842138598149
22.500668,2.822506609003195,0.03734336095675116
22.50526,2.729620491467175,0.03698433965703086
22.509856,2.6424975347594795,0.03658894399923537
22.514436,2.559993935004169,0.03618105039475379
22.519032,2.4794113888582996,0.035747644689147345
22.52362,2.39882884271243,0.03528818686020075
22.528216,2.3209445999095037,0.0348145635676445
22.532812,2.24269380296414,0.03436057261208156
22.537408,2.165342440466425,0.0338855028921684
22.541996,2.0935098693687424,0.033397423477517334
22.546584,2.0234761671663564,0.032885475367831325
22.551172,1.9551191491451194,0.032385062795811714
22.555772,1.8955901494375873,0.0317817368877096
22.56036,1.8419464952725249,0.03110455913972345
22.564952,1.7878141022508802,0.030481062783828505
22.569548,1.7353583934103851,0.02984819926023148
22.574128,1.6840906298944576,0.029317742296606365
22.57872,1.6374422233309147,0.028768120912259425
22.583308,1.589772197605579,0.02817817003483663
22.587896,1.5415692915750316,0.027428815013301643
22.592492,1.4925891358109828,0.026561224812665145
22.59708,1.445530033656375,0.02560072710733294
22.601672,1.3947510089970303,0.024492632593358283
22.606264,1.3451157882136247,0.023275593514306674
22.610856,1.2927822640872755,0.021719538722972415
22.615448,1.240570924675072,0.020198327006680627
22.620024,1.189381204424662,0.018705198263466522
22.62462,1.1380692994601063,0.017227908363571725
22.6292,1.0839369064384612,0.01578253522969359
22.633796,1.026084590912079,0.014359696895870667
22.638384,0.9672106562239038,0.012986954596092327
22.642984,0.9057606029069305,0.011626762494822501
22.647576,0.84562067962867,0.010360140066538362
22.652172,0.7852363869221184,0.00916161319451373
22.65676,0.7241970291962102,0.007953678122432873
22.661352,0.669820266746274,0.006768344113093049
22.665944,0.6207959695335967,0.005526701642862084
22.670536,0.5675630109595997,0.004349213818226482
22.675124,0.5151073021191047,0.0032485050723718863
22.679716,0.46690439608855766,0.00230627056942123
22.684304,0.4191121856490759,0.0015149275912509999
22.688896,0.3756949627336877,0.0008511936499702303
22.69348,0.33473167373295165,0.000363385320355008
22.698072,0.2917251464086287,0.0
22.702664,0.2578351482749298,0.0
22.707256,0.22807576823703318,0.0
22.711848,0.19897145321849308,0.0
22.716436,0.17383143013298138,0.0
22.721028,0.15498744818100466,0.0
22.725612,0.1417844423432064,0.0
22.7302,0.1282148823629711,0.0
22.734792,0.11812087545918153,0.0
22.739384,0.10532856521244843,0.0
22.743984,0.09343568941336315,0.0
22.748584,0.086939420300165,0.0
22.753176,0.0777448478440233,0.0
22.757768,0.06638485235014888,0.0
22.762356,0.06091020239874425,0.0
22.766952,0.05801167107613751,0.0
22.771544,0.05511313975353077,0.0
22.77614,0.0541356620403654,0.0
22.780724,0.048695968107507634,0.0
22.785324,0.04681905594669441,0.0
22.789916,0.049317131309974775,0.0
22.794508,0.046174230559076684,0.0
22.799088,0.041101090768655923,0.0
22.80368,0.03754749442669267,0.0
22.80828,0.03477114781823159,0.0
22.812872,0.033382974514001046,0.0
22.81746,0.033671485390920554,0.0
22.822048,0.03996752652445551,0.0
22.826632,0.046263567657990466,0.0
22.831224,0.056523900724553856,0.0
22.835816,0.06384156101988234,0.0
22.840408,0.06641767964868021,0.0
22.845,0.06772780968739324,0.0
22.849588,0.07275786223084332,0.0
22.85418,0.07508961143134987,0.0
22.858768,0.08252945644082402,0.0
22.863348,0.08714881339320894,0.0
22.867944,0.08829261726914814,0.0
