Time,Force,Position
25.20074,0.08626148867932457,0.0
25.205328,0.07524883923544745,0.0
25.209924,0.06513562423921818,0.0
25.214512,0.055266778671280235,0.0
25.219096,0.050383844198164246,0.0
25.223688,0.04357985611560688,0.0
25.228284,0.03677586803304951,0.0
25.232876,0.031892933559933535,0.0
25.237452,0.02598837992502402,0.0
25.24204,0.02008382629011451,0.0
25.246628,0.018021379874087747,0.0
25.25122,0.014160064562765279,0.0
25.255812,0.007478261194353586,0.0
25.2604,0.0016958922735897475,0.0
25.264996,0.0,0.0
25.269584,0.0,0.0
25.274172,0.0,0.0
25.278764,0.0,0.0
25.283364,0.0,0.0
25.28796,0.0,0.0
25.292552,0.0,0.0
25.297148,0.0,0.0
25.301736,0.0,0.0
25.306332,0.0,0.0
25.31092,0.0,0.0
25.31552,0.0,0.0
25.320116,0.0,0.0
25.324708,0.0,0.0
25.3293,0.0,0.0
25.333896,0.0,0.0
25.338496,0.0,0.0
25.343088,0.0,0.0
25.347676,0.0,0.0
25.352272,0.0,0.0
25.35686,0.0,0.0
25.361448,0.001040827254233239,0.0
25.366036,0.004124892832053523,0.0
25.370616,0.008352762285813001,0.0
25.375212,0.0118033820060703,0.0
25.379804,0.017297240049914644,0.0
25.3844,0.025489401436702547,0.0
25.388976,0.03253775894755125,0.0
25.393572,0.033945140344221504,0.0
25.398152,0.036907021207896115,0.0
25.40274,0.04215650982344912,0.0
25.407332,0.049449236762589166,0.0
25.411912,0.05674196370172921,0.0
25.416504,0.06415687535501492,0.0
25.421096,0.07055016784650713,0.0
25.425688,0.07514459144270363,0.0
25.430292,0.07883958059125228,0.0
25.434872,0.08049133141621387,0.0
25.439464,0.08189871281288412,0.0
25.444044,0.08216229033361518,0.0
25.448648,0.08524635591143546,0.0
25.453236,0.08741177894916818,0.0
25.457836,0.08536854062558115,0.0
25.46242,0.08115987926426138,0.0
25.467016,0.07770925954400408,0.0
25.471604,0.07221540150015973,0.0
25.4762,0.06402324011337183,0.0
25.4808,0.05697488260252313,0.0
25.485396,0.055567501205852875,0.0
25.489984,0.052605620342178264,0.0
25.494576,0.04735613172662526,0.0
25.49916,0.04006340478748521,0.0
25.50374,0.03277067784834516,0.0
25.508332,0.025355766195059443,0.0
25.512924,0.018962473703567243,0.0
25.51752,0.014368050107370753,0.0
25.522104,0.01067306095882211,0.0
25.5267,0.009021310133860512,0.0
25.53128,0.007613928737190258,0.0
25.535868,0.0073503512164591975,0.0
25.54048,0.004266285638638913,0.0
25.54506,0.001060035346672956,0.0
25.549668,1.9208092439716942e-05,0.0
25.554256,0.0,0.0
25.558844,0.0,0.0
25.563432,0.0,0.0
25.568024,0.0,0.0
25.57262,0.0,0.0
25.5772,0.0,0.0
25.581796,0.0,0.0
25.586388,0.0,0.0
25.590988,0.0,0.0
25.595572,0.0,0.0
25.600172,0.0,0.0
25.604768,0.0003857622348767307,0.0
25.609364,0.000893709183899133,0.0
25.613948,0.000893709183899133,0.0
25.61854,0.000893709183899133,0.0
25.623132,0.0008937091838991331,0.0
25.627724,0.0008937091838991331,0.0
25.632316,0.0008937091838991331,0.0
25.6369,0.0008937091838991331,0.0
25.641492,0.002667644723006401,0.0
25.646088,0.0026676447230064007,0.0
25.650676,0.0026676447230064007,0.0
25.655272,0.002667644723006401,0.0
25.659864,0.002667644723006401,0.0
25.664452,0.002667644723006401,0.0
25.669044,0.002667644723006401,0.0
25.673636,0.002667644723006401,0.0
25.678228,0.002667644723006401,0.0
25.68282,0.0031077880382500657,0.0
25.687412,0.016649231740623906,0.0
25.69202,0.04795547423114099,0.0
25.696608,0.09406463464612674,0.009918949425435338
25.701216,0.15793859384925568,0.01921154254891591
25.705808,0.24040771148335918,0.02790586167237435
25.710396,0.33581180334181904,0.03649254201022311
25.714984,0.44288488083455035,0.045128118056918215
25.719584,0.5629370740002662,0.05380422606593898
25.724176,0.696623447858323,0.06251335076081245
25.728768,0.848030479055895,0.07102305269784404
25.73336,1.011542124834992,0.07953882627610592
25.737948,1.1956921673686507,0.08784851838601337
25.742548,1.393965129451233,0.09614887559092553
25.747128,1.609181499139828,0.10435418180241181
25.751728,1.8399531031302059,0.11254902662384765
25.75632,2.086157756708221,0.12074610387766357
25.760916,2.34845052489323,0.12894662376302346
25.765512,2.6270757771135216,0.13713007416122752
25.770108,2.9233775452247017,0.14519447713451375
25.774704,3.2322080460618854,0.15314989013653227
25.7793,3.532434418750178,0.1610256648833413
25.783892,3.8146074817734084,0.16887309770880676
25.788484,4.080936799617937,0.16679960928213441
25.793072,4.331544556997908,0.16529510192822852
25.79766,4.562965440468617,0.16446775793345259
25.802248,4.781251121735306,0.1638115909527251
25.806832,4.993675119644677,0.16303218918090598
25.811428,5.194552316633922,0.1622074646754363
25.81602,5.383960755968557,0.16129374787532375
25.820608,5.5538496690683825,0.16060966691397444
25.825196,5.712680520104664,0.15986583446987218
25.829788,5.851380921335407,0.15936860020832344
25.83438,5.978656706360169,0.1588358319446594
25.838968,6.091809571836009,0.15834562851488498
25.843572,6.189773757152502,0.1578408589554215
25.84816,6.27279363173794,0.1573005736293104
25.852748,6.339192511411174,0.15674626714559023
25.857344,6.388726026743914,0.15619841726710154
25.861936,6.420705210899912,0.15576129033870115
25.866536,6.438938269281159,0.15543917070958346
25.871128,6.4517747209765215,0.1552111039017327
25.875724,6.465021868262948,0.1550030104064327
25.8803,6.480845134178171,0.15475988916658973
25.884904,6.493603542608016,0.1545884224712099
25.889492,6.507583798179316,0.1543297385881801
25.894092,6.527283073130312,0.15391500697149235
25.89868,6.541830110823713,0.15357711137737104
25.90328,6.5577653218213445,0.15319493145616764
25.907864,6.570024751762867,0.1529227668583773
25.91246,6.586414799800191,0.1526035998740245
25.917052,6.6042371625903735,0.1522868319110498
25.92164,6.626023817313585,0.15188996079900005
25.92624,6.643846180103768,0.15157474007681612
25.930824,6.659503119856219,0.15131455075129996
25.935416,6.678146873828533,0.15104263291709985
25.94,6.697978573125415,0.1507858852381593
25.944592,6.721285825498741,0.1504860165714953
25.94918,6.743859969587194,0.15023252030220854
25.953772,6.768110797856797,0.14996192140645279
25.958364,6.793261060574046,0.14967765267734315
25.96296,6.8205767463290305,0.14934352229429218
25.967548,6.847115182350511,0.1490150244850255
25.97214,6.868257011686105,0.14876634702655603
25.97672,6.889765395164136,0.14849297210615792
25.981308,6.9134392016799,0.14817193733219594
25.985904,6.929018098166833,0.14797349981168592
25.990492,6.945085733510348,0.1477445416006461
25.99508,6.961519922996302,0.14749684829626586
25.999676,6.982895882128448,0.14711352564268051
26.004268,7.001651581183168,0.14672147084774484
26.00886,7.013822728227434,0.1463940153112957
26.013456,7.021741072461752,0.1461151230421374
26.018048,7.030925405286155,0.1457994492902239
26.022632,7.0385552386435535,0.14549334782664175
26.027224,7.044997126676384,0.14517718763447823
26.031812,7.050006699956356,0.14486407241448734
26.036416000000003,7.053994654074535,0.14457347969461437
26.041,7.0621912695540345,0.1441972875072547
26.045592,7.071409504195326,0.14380481809806336
26.050172,7.08614653023665,0.14333851355115582
26.054768,7.101416436583189,0.14288580951522475
26.059356,7.117219223234934,0.1424429895440606
26.063952,7.138296431858422,0.14193567227914605
26.06854,7.158762716911182,0.14146385334253267
26.073128,7.177963013373857,0.14103005282121672
26.077716,7.199983797893621,0.14055194740593385
26.082304,7.2230262015751805,0.1400592728678431
26.086892,7.238262206104826,0.13969520876541183
26.091488,7.253131656492035,0.13935906586962865
26.09608,7.269433421632105,0.13902369811154508
26.10066,7.288433490115115,0.13865388055867783
26.105256,7.311153481102864,0.13823320340340647
26.109844,7.335383830108991,0.13776744793826648
26.114432,7.361901786866994,0.13725175668417405
26.119028,7.384577636406114,0.136796177120658
26.123616,7.408275105107028,0.13632481062203758
26.128224,7.429396455179145,0.1358808455885511
26.132816,7.449085490498402,0.1354422761949915
26.13742,7.467220026350655,0.13501499180054435
26.142016,7.480080140231167,0.13464869392556034
26.146604,7.494206242701764,0.13425494131680857
26.1512,7.5124188218195345,0.13379618634485851
26.155792,7.532019574241536,0.13330493564267135
26.160384,7.554030119129561,0.13275979146240138
26.164972,7.574241795122291,0.13223507078699634
26.169572,7.599072828067406,0.13166041751882587
26.174152,7.619040134631846,0.13115488934985775
26.178752,7.644770602024607,0.13056665273657495
26.183348,7.663838474141398,0.13006772564865546
26.18794,7.6829063462581875,0.1295714593674092
26.192536,7.70275146810848,0.1290743675118325
26.197128,7.719776101901686,0.1286149367153622
26.201716,7.736556366266597,0.12817222198224826
26.206312,7.751293392307922,0.12776305604164143
26.210904,7.768073656672835,0.12732106279996827
26.215496,7.7839544865900985,0.12689043070537767
26.220088,7.79881369734557,0.12647442910689727
26.224672,7.812284734796809,0.12609635075206388
26.22926,7.8260001416763405,0.12570756041334233
26.233852,7.839471179127579,0.12533279195700386
26.238444,7.847545609892932,0.12501357941822902
26.24304,7.854187725905428,0.12469624656897675
26.247632,7.858908788308481,0.1244053676149289
26.252212,7.864773654587474,0.12409476805866469
26.256808,7.875746616675434,0.12371150107995524
26.261396,7.881322972077506,0.12338144949426288
26.265992,7.892906857736195,0.12297009887628348
26.270588,7.907799970308555,0.122506967825849
26.27518,7.927801178689883,0.12197018320698251
26.279788,7.947147322051854,0.12143111792907424
26.284376,7.96775945400391,0.12086921732164423
26.288972,7.994012562070145,0.12025222802310896
26.293568,8.02026567013638,0.11963887290487105
26.298156,8.052404123745083,0.11896067229414024
26.302752,8.08556419651558,0.11827212679929688
26.307344,8.119379334305435,0.11759072990634255
26.311936,8.159446371780197,0.11682684673685072
26.316516,8.202045386435126,0.11601726274482005
26.321116,8.241701728318821,0.11524417165265737
26.325696,8.281968993773246,0.11444359730255302
26.330304,8.326977800894202,0.11359654283465807
26.334896,8.369821184977424,0.11278865196620086
26.339492,8.413930557650732,0.11196326551751275
26.344088,8.458039930324038,0.111147228716818
26.34868,8.496630511597312,0.11038520208147937
26.353276,8.541106438413056,0.1095678263351382
26.357864,8.584682930781154,0.10876726185943258
26.362452,8.625194565663868,0.1080134945706349
26.367048,8.66354077750885,0.10729228821586013
26.371636,8.702664239087337,0.10657405933754881
26.376232,8.740643896789884,0.10587935396796729
26.38082,8.770528644463598,0.10524335168149399
26.3854,8.798614523242017,0.10462115793785202
26.389996,8.818894002868525,0.10407838288237253
26.394588,8.839051297780887,0.10354404225017705
26.399184,8.857121212921035,0.10300003874007922
26.403772,8.869183597804566,0.10252178629423356
26.408372,8.878836190222074,0.10208493039570697
26.41296,8.89298595487782,0.10162125350515498
26.417552,8.90791296926707,0.10115977552724457
26.42214,8.92079674533273,0.10072252406390982
26.426728,8.931104402769595,0.10029553847203605
26.431324,8.935526714663988,0.0999229093391831
26.43592,8.935085300177706,0.0995936985060759
26.440508,8.936076200444282,0.09926984200080567
26.4451,8.927584017377798,0.0990211507298449
26.449692,8.916393530968369,0.09878810330406504
26.454296,8.899439883730615,0.09860185208299652
26.458892,8.886694897854182,0.09836737614204072
26.463488,8.874316466120186,0.09811661494979661
26.468076,8.8583402965956,0.09788542501812666
26.472668,8.847882918471047,0.09761788766575512
26.477256,8.839590963384225,0.09732402593806466
26.481856,8.836284919392222,0.09698364821166253
26.486448,8.834367048704456,0.09661825419842954
26.491044,8.839522468883725,0.09622209549031258
26.495632,8.844433519634702,0.09583523779578929
26.500216,8.848567320652176,0.09544778078774369
26.504808,8.84664944996441,0.09508274998648156
26.509404,8.843587775400701,0.09473363474891933
26.513996,8.840648285551138,0.0943794283017017
26.518596,8.843227587101609,0.09399296304899
26.523184,8.853735472518135,0.09353962814289465
26.527772,8.867430400134191,0.0930512126232801
26.53236,8.88316856607383,0.09254541604670258
26.536948,8.907246011470596,0.0919902322480441
26.54154,8.929935283563129,0.09145978874206465
26.546132,8.962229823702868,0.09086087748882873
26.550728,8.992114571376582,0.09030207914387878
26.555316,9.019711711298418,0.08977457226235247
26.559912,9.053971446496227,0.08920499877613108
26.564496,9.086065758656304,0.08866253730425908
26.569084,9.115750278350358,0.0881558321257794
26.573696,9.143513744434967,0.08766565346882081
26.578276,9.169889037215343,0.08720383650678473
26.58288,9.186903431376807,0.086798427778889
26.587472,9.210824790242535,0.08634359301273443
26.59206,9.23871044104129,0.08586148254033635
26.59666,9.270726709935849,0.08537562874275599
26.601248,9.305930021029935,0.0848628949991508
26.605852,9.344853254628756,0.08433564780226598
26.610444,9.380956000170483,0.08382837724576368
26.615052,9.410806846027308,0.0833799283645144
26.61964,9.44016895302755,0.08295289348631554
26.62424,9.468753810294292,0.0825277115893905
26.628824,9.49169769144685,0.08213459582280239
26.633424,9.52052691814188,0.08170453195241384
26.638012,9.542693549560939,0.08131451355085074
26.642612,9.562284062351202,0.0809294907470553
26.6472,9.585838867074491,0.08051950901615106
26.651788,9.604407760702959,0.08014664971701443
26.65638,9.625142077369158,0.07975528324604324
26.660968,9.648164001787237,0.0793398437367854
26.66556,9.673106979814756,0.0789162273172265
26.670152,9.695351654499333,0.07850189713337212
26.67474,9.721438436402794,0.07806565020301282
26.679332,9.742128611620366,0.07765041431320081
26.68392,9.758854494904911,0.0772625474762632
26.688512,9.780810658712571,0.076837517763467
26.6931,9.796759292263612,0.07645289847616246
26.697696,9.806289699966975,0.07609247418440775
26.702288,9.81377686934675,0.07574624414922806
26.706876,9.824328896211902,0.07537857587813374
26.711476,9.835125292505351,0.07500224934172242
26.716064,9.84502225435115,0.07462973620167303
26.720656,9.85696245452054,0.07424315454943067
26.725252,9.864649851879976,0.07386167353575558
26.72984,9.877078790905946,0.07346044422922512
26.734452,9.894493641026736,0.07303106021538416
26.739028,9.908432938071083,0.07260839574480603
26.743632,9.921839354810215,0.07217392290419733
26.748228,9.931648033758758,0.07174926236438263
26.752816,9.942600516583243,0.07131589128228583
26.75742,9.948811457741193,0.07090224402637066
26.762008,9.957065637222732,0.07047540103940272
26.766612,9.969406293351444,0.07002549463314034
26.771192,9.982402014499515,0.06958321562069263
26.775788,9.997563158685317,0.06912481259416545
26.780376,10.002996850109769,0.06871355728431303
26.784976,10.010473779857804,0.06828869654934673
26.789564,10.022692251272371,0.06784643555519765
26.794164,10.037320515152961,0.0673786463100483
26.798748,10.048351041242961,0.06691792302882081
26.803344,10.059625936761252,0.06644942551394054
26.80792,10.06987921311775,0.06598752304839198
26.812516,10.082952977531336,0.06551879485717582
26.81712,10.097459056697781,0.06506128671107624
26.821712,10.109389017235427,0.06460656738892412
26.826304,10.115555816944752,0.06417483254904513
26.830888,10.120456628063991,0.06375707285032402
26.835476,10.127278492792673,0.06333221236553194
26.840056,10.137698095311945,0.06290271392605845
26.844652,10.14709607866942,0.06248124378658153
26.849244,10.15955891951228,0.06204270637740056
26.853832,10.172021760355138,0.0616052237188079
26.85842,10.175778767598437,0.06120063289012455
26.863012,10.18145682845118,0.06079077951372676
26.867592,10.186357639570419,0.060379088485074034
26.87218,10.195344927336832,0.05994515847746815
26.876776,10.205476018979184,0.05950219209791438
26.881364,10.210865568955006,0.05907327582390091
26.885968,10.217687433683684,0.05865669306563483
26.890564,10.23027245924069,0.05822283053921409
26.895152,10.244656353692987,0.057789246153945706
26.899756,10.258385183125933,0.05734803653825338
26.904344,10.268149720625846,0.05692432737429192
26.90894,10.273417085887521,0.05650405339785213
26.913528,10.274842343930315,0.05609431381862559
26.918128,10.279987524477844,0.055677348027496014
26.92272,10.289096996958403,0.055245802201269054
26.92732,10.298983719172464,0.054819140991573
26.931908,10.304373269148284,0.05439597992166206
26.936512,10.305920711905223,0.053983321965179305
26.941104,10.308245404395663,0.05357525648736041
26.9457,10.308771227990809,0.05316800984369134
26.950292,10.312894789376546,0.05275707275174187
26.954888,10.307535267429222,0.05236543498948652
26.959476,10.296823280244638,0.052003572659676894
26.964072,10.278182709193997,0.05166753114058236
26.968672,10.256232911229686,0.05135248926112328
26.973268,10.23211769022764,0.05104837880342865
26.97786,10.199663189768474,0.050754010717423616
26.982444,10.158258486281456,0.050490644908976985
26.987036,10.111867871699614,0.05024424786691316
26.991632,10.062045845489957,0.05002174229232216
26.99622,10.004661789556682,0.049811620688562284
27.000812,9.946133929747464,0.04960741132651142
27.005408,9.887117331081669,0.049418327835726965
27.009996,9.819272714102162,0.049255276526061965
27.01458,9.739901775466011,0.04911803517107024
27.019168,9.651702818516153,0.049006816226333266
27.023764,9.561216253814418,0.04891071147338112
27.028348,9.46754264691316,0.048830728320216996
27.032936,9.363119968088752,0.048782212790828894
27.037532,9.251668139845934,0.048759856467215285
27.04212,9.133553716327146,0.04875049823645475
27.046708,9.019281400027241,0.04872887360296087
27.051304,8.901289161222602,0.04871290045952128
27.055896,8.787261214350988,0.048679992100704936
27.0605,8.665915607184045,0.04865163670591612
27.06508,8.541871696674159,0.0486218066493199
27.06968,8.41643961286004,0.04861215964101258
27.074268,8.289330844864773,0.04859668320170489
27.078868,8.153638427984093,0.04860297466617559
27.08346,8.01218285027509,0.04862925459364047
27.088064,7.873669945337322,0.048642955274539594
27.092656,7.7332359867901115,0.04865979657923971
27.097252,7.588427040718807,0.04867071507210559
27.101844,7.447704571294677,0.04865640170752123
27.10644,7.312500893270581,0.04863474633074593
27.111036,7.179340453570071,0.048600821138736365
27.115628,7.0433595258124715,0.04857146686548772
27.12022,6.905457544445429,0.048549146054738375
27.124812,6.773440908620858,0.048501077433762446
27.129404,6.641424272796287,0.04845448737294649
27.134,6.50760876807642,0.04840705743994446
27.138588,6.36970678670938,0.0483834520725437
27.143176,6.2339702283800715,0.048337093232594545
27.147764,6.0932477589559415,0.04831531067043821
27.15236,5.9589435153794925,0.04828411151744908
27.156952,5.8234954679271045,0.04826706243068765
27.161544,5.690335028226595,0.04821921086912989
27.166144,5.557951838259587,0.04817621682433487
27.170724,5.43031018995911,0.04811951445332562
27.17532,5.310719310238835,0.04800223551657923
27.179904,5.187286323299677,0.04789430383536823
27.184492,5.060666294160993,0.04782198527179687
27.1891,4.931880841984577,0.04777679729677345
27.193688,4.796188425103896,0.04777571241777197
27.198296,4.65281179378545,0.04782177329433781
27.202888,4.507514108857564,0.04787727639690177
27.207476,4.360295370320236,0.04795100214506495
27.212072,4.210256143725818,0.04805454703717586
27.216664,4.052532702693635,0.04821753007501779
27.22126,3.8987735535944803,0.04834297701807671
27.225848,3.7487343270000633,0.04845565445552608
27.230448000000003,3.597673481243853,0.04860956664654134
27.235028,3.444447212449909,0.04881601009360888
27.239628,3.291220943655965,0.04905669718347946
27.244216,3.132231514033698,0.049388411112467986
27.248812,2.976184757182665,0.049705952977040134
27.2534,2.818216946722191,0.05004458585041
27.257996,2.659227517099923,0.050459786960924506
27.262588,2.5004824569059467,0.050841392924754696
27.267184,2.336629300903003,0.051368739149065826
27.271772,2.1790721860335935,0.05192861079057656
27.276368,2.0291992856019503,0.05242759242295063
27.280956,1.8876656646274288,0.050039503256648014
27.285544,1.7518952044812313,0.047627474858408264
27.290132,1.6229095243251515,0.045175059512965965
27.29472,1.4947010939025738,0.042720115549992915
27.299312,1.3730330740418226,0.04024693924204398
27.303912,1.2626470064094284,0.03773652850031419
