Time,Force,Position
31.871407999999995,0.008841355228722352,0.0
31.876003999999995,0.013602056349801555,0.0
31.880592,0.01991725693788512,0.0
31.885188,0.024844284221738153,0.0
31.889779999999995,0.029771311505591185,0.0
31.894372,0.03535340380880073,0.0
31.898964,0.04069112668371893,0.0
31.903548,0.048238414044997985,0.0
31.908136,0.06016068893037064,0.0
31.912732,0.07106134465394977,0.0
31.917328,0.08286143482517673,0.0
31.921907999999995,0.09543877472990589,0.0
31.926503999999998,0.10854899493984588,0.0
31.931092,0.12153703043564021,0.0
31.935688,0.13542450037908238,0.0
31.940276,0.15290970811311597,0.0
31.944863999999995,0.17129435029479742,0.0
31.949476,0.19160004608592018,0.0
31.954055999999994,0.20551249802344193,0.0
31.958644,0.2236336113222834,0.0
31.96324,0.24420865853577708,0.0
31.967831999999994,0.26274046742568374,0.0
31.972424,0.2838483949443883,0.0
31.97702,0.31202961333012996,0.0
31.981615999999995,0.3438527109550912,0.0
31.986208,0.37686375390461974,0.0
31.990804,0.4118399919122179,0.0
31.995388,0.4445286221679376,0.0
31.999987999999995,0.47611758999634624,0.008065767994706291
32.00458,0.5130251212451244,0.01601621870090641
32.009176,0.5530857928765396,0.023976790243378034
32.013768,0.5955223551570895,0.032037083541106036
32.018367999999995,0.6399241124957089,0.04017899894008627
32.02296,0.6886228140929043,0.04827154098391404
32.027556,0.742640079110469,0.05608930689269993
32.032156,0.7953133122724318,0.06406115474390336
32.036752,0.8493408169217358,0.07217749345637844
32.041343999999995,0.9010026705536437,0.0806490510557121
32.045936,0.9626024445583061,0.08878581511427416
32.050528,1.023757621155014,0.09701215861834221
32.055111999999994,1.0823808205715522,0.105383819384573
32.059704,1.1441130189220987,0.11373514518405595
32.0643,1.203924163663204,0.12203167397910161
32.0689,1.2578058214132117,0.13039288894451787
32.0735,1.3076790457815628,0.13885181747820435
32.078092,1.3591848128824355,0.1471002163729127
32.082671999999995,1.411545872982328,0.1552086026037917
32.087272,1.4675827141383295,0.16310362946927162
32.091852,1.5212436646451963,0.1628820170902314
32.096444,1.5716292900552806,0.16269775614680893
32.10104,1.618084525349226,0.16247541632758244
32.105632,1.6634298585841212,0.16200294407248858
32.110228,1.7092197892269712,0.16126052080919823
32.114819999999995,1.7517343947730386,0.16052430859819167
32.119412,1.78406671051806,0.1603215685289011
32.124004,1.8143896897563838,0.15991040308516152
32.128592,1.8442578319550142,0.15926396584792152
32.133196,1.8782904940663363,0.15806461092385476
32.137788,1.9059829735954952,0.15718417805886076
32.142392,1.9341200505326088,0.15607006776304752
32.146984,1.9620908013069485,0.15482060309586956
32.151584,1.9880963570232189,0.15357725993783783
32.156172,2.0115257941106908,0.15246104914204298
32.160771999999994,2.0366319153793135,0.15127507206347515
32.16536,2.0673790127621143,0.14979457982907338
32.16996,2.0959606871071825,0.1485446050774878
32.174544,2.1235207422904567,0.14740999257525236
32.179144,2.1480159399883507,0.1465205445647334
32.183727999999995,2.1713673338103057,0.14572603863816663
32.188323999999994,2.195784488242682,0.14501567364636733
32.192912,2.221389587999626,0.14435159109510978
32.197512,2.2453621450240475,0.14388981035897236
32.202099999999994,2.2666805401541543,0.1436893876600089
32.206696,2.2866107619800298,0.14361846885189386
32.211284,2.3139808288153803,0.14317216879820013
32.215872,2.3431939059946547,0.14278413351271071
32.220464,2.3699971907079047,0.1425905407105679
32.225055999999995,2.3955344868310697,0.14253548038834196
32.229651999999994,2.4218490326877364,0.14247146780464243
32.23424,2.4457537860783796,0.14259951617605468
32.238836,2.472601212240258,0.1425905598926682
32.243427999999994,2.4993264536879907,0.1426037861084442
32.24802,2.5291165526211032,0.14245395805225933
32.252604,2.5574743368013575,0.1423092101084768
32.257192,2.578514460686283,0.14245987627674184
32.261788,2.598366639246642,0.14257127482723053
32.266376,2.6175637527876434,0.14267693603708537
32.270976,2.636105801309289,0.142769920765344
32.275568,2.6546478498309343,0.14285719278882933
32.280159999999995,2.6732679416180978,0.1428211885983802
32.284768,2.691721707242486,0.14270033748091815
32.289356,2.7109085811517493,0.14246213303502434
32.293952,2.7280080752887974,0.14220787623566097
32.29854,2.7514816538248974,0.1416293109079795
32.30314,2.772867852588783,0.14107110618044816
32.30772,2.7925332257228903,0.1404566062600572
32.31232,2.8150971301796037,0.13962049925068162
32.316904,2.8352071007216653,0.13884355856135736
32.321496,2.851841518187282,0.1381572697354767
32.32608,2.86896467450948,0.1373984938699126
32.330672,2.880569039431645,0.1368335737247116
32.33528,2.892662143210394,0.13620107884014263
32.339876,2.901934758932053,0.13567661868106454
32.344472,2.912884058834862,0.13512050020281985
32.349072,2.928697085118348,0.13437766766507614
32.353663999999995,2.9459424261546925,0.13364119748147973
32.358256,2.9619217786009515,0.13298489010334716
32.362848,2.9805994343901543,0.13225708568013703
32.367432,3.0011981437887987,0.13146232336832347
32.37202,3.0193870607214195,0.13081696338271814
32.376616,3.038108857959251,0.13020974192080165
32.381212,3.0572413507881464,0.12965599521568993
32.3858,3.0826698847505782,0.12893939841342053
32.390392,3.1037675726375435,0.12845029714417042
32.394984,3.1236434133830526,0.128128122463682
32.399576,3.148427121957867,0.12775254197072933
32.404163999999994,3.1685134303147775,0.12760893344533575
32.408752,3.1902764228528375,0.12743970934545767
32.413348,3.2157593378956357,0.12716490416422763
32.417939999999994,3.2400984490624944,0.12694389946462595
32.422528,3.2670136788581514,0.12666551241312518
32.427116,3.294095234816582,0.1264653847513155
32.431708,3.323097844384454,0.1262087939403099
32.4363,3.3513232042188235,0.1259645818069641
32.440895999999995,3.3784047601772547,0.12578458539926748
32.445491999999994,3.405852870278122,0.12556616648150185
32.450084,3.4366102072926616,0.12521612093519138
32.454684,3.463891991230756,0.12493628024877973
32.459264,3.493461382920728,0.12457451746083774
32.463868,3.5241745784866394,0.1241635117399927
32.468456,3.5541105243190483,0.12376410781551436
32.473056,3.5814703515226602,0.12340678042721658
32.477652,3.6042108217738864,0.12316865037717895
32.482248,3.623475738948667,0.12298882713412329
32.48684,3.6456391874460543,0.12264715342447219
32.491436,3.658930476181109,0.12247935459108374
32.496024,3.6778185995817134,0.1220931593432636
32.500623999999995,3.695929473248816,0.12171608945960591
32.505212,3.7112198588588297,0.1214085014705611
32.509816,3.7291644063631586,0.12097336186297236
32.514396,3.748497127171718,0.1204714093078995
32.518992,3.766886272084001,0.11991233417862275
32.523584,3.781677679205693,0.11942336468281615
32.52818,3.797368520775033,0.11892271653291261
32.532771999999994,3.8084400053919887,0.11851865708299125
32.537372,3.8193893052947976,0.11813441017767046
32.541964,3.8293169860358134,0.11778831171303339
32.546552,3.8420651548339184,0.11738152161702277
32.551151999999995,3.8489279780895536,0.11712810855361204
32.555744,3.858733474116424,0.11680675040865995
32.560336,3.8667401012479985,0.11651682940930898
32.564927999999995,3.8785888355984555,0.11614093273429159
32.569516,3.8926029929866455,0.11569909901636077
32.57412,3.9114808767555114,0.11514439129366556
32.578703999999995,3.9281933374866447,0.11466757916943827
32.583292,3.9531228929607543,0.11404602006242275
32.587888,3.9757648406829853,0.11351620315798427
32.592476,3.9984067884052163,0.1129903547490167
32.597068,4.025912462508125,0.11236325104894858
32.601651999999994,4.052685028326158,0.1118218351674594
32.606255999999995,4.080234843877694,0.1112918247402704
32.610844,4.112159646953323,0.11072262778033004
32.615444,4.148703806981337,0.11007952348873588
32.620024,4.184592901989995,0.10943582544068624
32.624627999999994,4.230453819188296,0.10858744153172513
32.62922,4.272961368024298,0.10776967883504275
32.633816,4.31379223267915,0.10697531783154682
32.638408,4.354867466762292,0.10617460485393777
32.643007999999995,4.398885373616671,0.10531175000571698
32.6476,4.439061173252165,0.10453378197778787
32.652196,4.484222883982482,0.1036656259403021
32.656796,4.531017137445321,0.10275164364325323
32.661392,4.57781139090816,0.10185493106708604
32.66598,4.623051144903996,0.10097764316197613
32.670576,4.6658369649851785,0.10011069340373165
32.675168,4.703470547808764,0.09929997755319808
32.679759999999995,4.741348500060642,0.09847527778418808
32.684348,4.779959560597393,0.09759949058798575
32.688948,4.815095068057699,0.09676739505602258
32.693535999999995,4.845977772708057,0.09596076878142662
32.69812,4.868887752043731,0.09522669346699475
32.702712,4.883458451922282,0.09460158958944255
32.707304,4.89953950981921,0.09393083264832155
32.7119,4.914066068249133,0.0932609815820573
32.716488,4.9182101088983465,0.09273374782869001
32.721067999999995,4.925052452890504,0.09218070847344478
32.725663999999995,4.92997374327322,0.09165318798816097
32.730252,4.933218349474786,0.09113628302451054
32.734843999999995,4.935930075371142,0.09060022848287405
32.739439999999995,4.937986736248142,0.09005210708598656
32.744028,4.936978539639759,0.08956285979008399
32.748624,4.928696824184677,0.0892063301929501
32.753204,4.915673567063065,0.08890706991146857
32.7578,4.898319463865986,0.08869574257021999
32.76238,4.8845630984595,0.0884525307182041
32.76698,4.874404470843605,0.08817850273776903
32.771572,4.867965765732447,0.08786747593655793
32.776163999999994,4.862715005945856,0.08759057014124302
32.780748,4.857219876730973,0.08733215155026026
32.785343999999995,4.860186211687358,0.08698588437257052
32.789936,4.873046325567869,0.08656503766196053
32.794532,4.894490088333795,0.08604918081168918
32.799119999999995,4.9087825169671655,0.0856475098257012
32.803715999999994,4.92630612924869,0.08525090125225121
32.808304,4.9480825443401635,0.08483814134742415
32.812888,4.970758393879285,0.08442397436414227
32.817476,4.9999746539802326,0.08395295680859424
32.822067999999994,5.029601609672245,0.08351545424650386
32.826656,5.061682499278908,0.08308478438990198
32.831252,5.098627115266249,0.08260609604144192
32.835836,5.133895047072441,0.08213241790586642
32.840416,5.175170509135247,0.0815818674704319
32.845012,5.220532447845226,0.08097304056506709
32.849599999999995,5.273290090116052,0.08025011016466205
32.854188,5.327313720976962,0.0795116107695294
32.858799999999995,5.376717994885489,0.07881644182867495
32.86338,5.419826227660479,0.07816911044535171
32.867968,5.459703276787318,0.07752385058303589
32.872564,5.503666802561328,0.07683515086652502
32.877151999999995,5.5413342872018045,0.07619424571773128
32.881747999999995,5.574748969032333,0.07557081569155437
32.88634,5.602767044176974,0.0749838335555513
32.890944,5.6360153998447275,0.07432715669644976
32.895532,5.665010952702533,0.07367942753374082
32.900132,5.691674756359833,0.07302041542428123
32.904723999999995,5.714985191654833,0.0723649305124895
32.90932,5.731999585816298,0.07174391308383221
32.9139,5.748725469100843,0.07108978916961997
32.918488,5.762997418470735,0.07043683849284865
32.923084,5.770484587850511,0.06984426946141174
32.927679999999995,5.7800149955538735,0.06923020323498683
32.932272,5.7839044271430575,0.06865432794410838
32.93686,5.788815477894035,0.06807172473085842
32.94146,5.789640051997838,0.06753815972186858
32.946051999999995,5.784579280559172,0.06705440135973026
32.95064,5.7833606163393885,0.0665436158559839
32.955228,5.784063005729045,0.0660183948094024
32.959816,5.786564264013998,0.06548848865386768
32.9644,5.78432398063242,0.06499085222032115
32.968992,5.781839327822552,0.06450729772953359
32.973583999999995,5.779232490298538,0.06403178224263584
32.978179999999995,5.777402902508027,0.063561079611716
32.982768,5.775328945289224,0.06310877872514407
32.987368,5.777874345022805,0.06263891129563375
32.991948,5.7859385361564195,0.06215096073513613
32.99654,5.797356095652334,0.06167051556867307
33.001135999999995,5.812371392938839,0.06118330011890282
33.005724,5.828041755244702,0.06071186296361946
33.01032,5.843589932836418,0.0602497649713925
33.014916,5.863102402361163,0.05975828408307638
33.01952,5.880571633562321,0.05928700525924401
33.024116,5.903559656163511,0.058799661665492886
33.028704,5.923482821279322,0.05834247582555967
33.0333,5.944427605556926,0.05787959849880892
33.037892,5.968315062605765,0.057396777046919006
33.0425,5.986317174112132,0.056951890825912926
33.047079999999994,6.003952731476065,0.05653027357582431
33.05168,6.016724562459321,0.056136732691531695
33.056272,6.028474774280783,0.055751086616132504
33.060872,6.04034717081639,0.05535805875850789
33.065452,6.051075763476058,0.05498109645192431
33.070052,6.059638933097993,0.054627823602279905
33.074648,6.064482180215192,0.05428723794791039
33.07924,6.0606195937328335,0.05399177277064851
33.083836,6.050094411974501,0.05372578402799036
33.088424,6.037892546035019,0.053454878771067776
33.093016,6.019927519267213,0.05321017856745471
33.097615999999995,5.995954962242789,0.05300589151675646
33.102208,5.969816982180634,0.05282398775862453
33.1068,5.941513579080748,0.052664200414617654
33.111391999999995,5.91321017598086,0.05250271357435621
33.115976,5.878121992890855,0.05237506809735543
33.120568,5.843811059534352,0.05225260765763067
33.125152,5.800305553721708,0.05220331324443632
33.12974,5.755778428747271,0.052159395264591964
33.134328,5.712150738220481,0.05211464919297532
33.138928,5.664925309903099,0.05207162966188778
33.143519999999995,5.621297619376309,0.05202445767762075
33.148112,5.574727256078283,0.05199344967827243
33.1527,5.527912523351967,0.051975291075057536
33.157287999999994,5.478399487282706,0.051957921951489905
33.161884,5.428764266499301,0.05194919840188761
33.166476,5.374020949906928,0.05198500326104624
33.171063999999994,5.325162978857024,0.05198360169233411
33.175652,5.273484519750031,0.05199230012744131
33.18024,5.217963953424155,0.05201716437491693
33.184836,5.164608810136014,0.052013934282863064
33.189423999999995,5.115462328209191,0.05196595541671823
33.194019999999995,5.064639162101218,0.051909816851154346
33.198612,5.009074454326715,0.05187367278221132
33.203204,4.950567073780976,0.051854776617340226
33.207792,4.892548432091821,0.051799046574159985
33.212391999999994,4.829910433450278,0.051753912588523694
33.21698,4.771725465598349,0.05164609763340336
33.221576,4.710353455546893,0.051576304141081365
33.22616,4.649880879943086,0.05150559794020188
33.230756,4.588264500463339,0.05145406300797469
33.235352,4.521007144869413,0.05142613867123139
33.23994,4.45477140843728,0.05138674295650894
33.244532,4.383794130338617,0.05137138849709711
33.249128,4.3153929708687535,0.05136256435876292
33.253712,4.244660062198382,0.051324629657189536
33.2583,4.1781358148893295,0.051233573775585003
33.262892,4.105604037323663,0.05119818865090639
33.267484,4.037569431996235,0.05115901922733237
33.272076,3.9626278619645436,0.05118982562153978
33.276668,3.883477630571533,0.05128258745881152
33.281256,3.7993414880836998,0.051426507776115495
33.285832,3.7152053455958676,0.0515698877548295
33.290428,3.6292703342127393,0.05173109268999811
33.295016,3.5415364539343144,0.051902863230064766
33.299603999999995,3.453313834799307,0.052127550978799675
33.304212,3.3650912156643,0.05236253075932963
33.308803999999995,3.2803441496057393,0.052598052574420066
33.313407999999995,3.1940425840801736,0.05282707848548278
33.318,3.1032438463163685,0.05307585335520469
33.322592,3.0134667277143574,0.053323781989877445
33.3272,2.924589043559993,0.05359479481898727
33.331788,2.8316248827584563,0.05397476438882837
33.336392,2.73776128750927,0.054401150714062485
33.340988,2.63760165112655,0.05488011275023957
33.345596,2.5391186989249803,0.05537335071648529
33.350184,2.4392475734191796,0.05597724064539643
33.354783999999995,2.340398067075173,0.05663002801274136
33.359372,2.236807019064634,0.05741763052015032
33.363972,2.1457639118725376,0.05801679897188527
33.368556,2.05868509661347,0.05856925738311562
33.373155999999994,1.973405150249698,0.059180734116713
33.377752,1.8877586497434886,0.059931944521521126
33.382348,1.8095519942467537,0.060614099457596896
33.38694,1.7348208918264643,0.06135458361289908
33.391535999999995,1.6590681702443817,0.06224916638524159
33.396124,1.5849921328434493,0.06324635003956654
33.400712,1.505397304042484,0.06443188206655825
33.4053,1.4287451480127533,0.06559114709720518
33.409892,1.3547912953259666,0.06280020022832807
33.41448,1.2796936387632405,0.059996141321120015
33.419068,1.2066392205241012,0.057153565435467554
33.423648,1.143967320065671,0.054209963014454854
33.428248,1.0859147765596255,0.05120352517591569
33.432844,1.0331366550253218,0.04814361660963777
33.437431999999994,0.9781931104532856,0.04508864101732712
33.442024,0.9246377391854799,0.04194462825243232
33.446611999999995,0.8777449631936459,0.03872233585415142
33.451196,0.8358380982966339,0.035364319242792056
33.45578,0.7879237031430062,0.03213059783283232
33.460372,0.7389876888275853,0.028907456253334112
33.46498,0.6929943472833991,0.02560087831453402
33.469572,0.6471231904533586,0.02216197462074678
33.474168,0.6003525991756704,0.018761277126355252
33.478764,0.549862085393245,0.01528908028656035
33.48336,0.5014148099344068,0.011636601407734721
33.487956,0.45279228848998476,0.007868369147312454
33.492548,0.40956637373145,0.003929199194025427
33.497152,0.3687943928875673,0.0
33.501732,0.3316201498342761,0.0
33.506332,0.2991874484475155,0.0
33.510924,0.2693308656895528,0.0
33.515519999999995,0.23665379487450083,0.0
33.520108,0.20577559295474454,0.0
33.524696,0.17711587534415899,0.0
33.52928,0.153197699400104,0.0
33.533876,0.13143602667097193,0.0
33.538467999999995,0.10763111561825281,0.0
33.54306,0.08448126958489019,0.0
33.547664,0.06517353077041033,0.0
33.552252,0.048564095298874004,0.0
33.556844,0.03273190956083987,0.0
33.561428,0.02061964632754282,0.0
33.566019999999995,0.009284632827747944,0.0
