Time,Force,Position
32.116016,0.27001108524181355,0.0
32.120604,0.26612483657430264,0.0
32.125195999999995,0.2630158376402939,0.0
32.129784,0.2565976117926133,0.0
32.134384,0.25312205871616766,0.0
32.138971999999995,0.2512010051067262,0.0
32.143572,0.24658164815434128,0.0
32.14816,0.24196229120195634,0.0
32.15276,0.23288990345996027,0.0
32.157344,0.22304026598446208,0.0
32.161936,0.2163776707084901,0.0
32.166528,0.21445661709904873,0.0
32.171116,0.21319062850896384,0.0
32.175704,0.21629962744297254,0.0
32.180296,0.22337291831000972,0.0
32.184888,0.2349433814152861,0.0
32.189472,0.24626947509227118,0.0
32.194052,0.25674027577023656,0.0
32.198644,0.2686433912010606,0.0
32.20324,0.2764600299847105,0.0
32.207828,0.27814695379759935,0.0
32.212416,0.2797116928963425,0.0
32.217004,0.2842191047663205,0.0
32.2216,0.29706579609342054,0.0
32.226188,0.3142874749446142,0.0
32.230776,0.3324085882434557,0.0
32.235388,0.3500409626857145,0.0
32.239976,0.36742896769968203,0.0
32.244584,0.3887812646466779,0.0
32.249176,0.4086232035752976,0.0
32.253776,0.4243786658567431,0.0
32.258364,0.4350260323292211,0.0
32.262956,0.44489614906819686,0.0
32.267548,0.45423338550196174,0.0
32.27214,0.4576852763932569,0.0
32.276744,0.45369732227507786,0.0
32.281332,0.4462338150804531,0.0
32.285931999999995,0.44105791563770674,0.0
32.29052,0.4317955395477864,0.0
32.29512,0.42425398908764406,0.0
32.299704,0.42742760873375857,0.0
32.304304,0.43404287963942934,0.0
32.308888,0.44397761709051087,0.0
32.31348,0.45387845272470295,0.0
32.318068,0.46542207072315567,0.0
32.322664,0.4823283935906063,0.010567378892253476
32.327252,0.5047196060412003,0.021008175935997506
32.331844,0.5342723922560876,0.031091770795495154
32.336436,0.5697207636451835,0.040839152945732905
32.341028,0.6144961318363057,0.050240211705172705
32.345616,0.668231942687017,0.059400576101386666
32.350212,0.7341152383968437,0.06816653767059315
32.3548,0.8076929881761747,0.07681597932707304
32.359396,0.8861447039679206,0.0854734116778355
32.36398,0.9785427735140777,0.09374384182641483
32.368568,1.0836212082245609,0.1018654061009469
32.373164,1.200358388937577,0.10985796765603746
32.377744,1.3264225664526192,0.11773342776725292
32.382332,1.4645900873781486,0.12539929725009116
32.386928,1.6117078113315284,0.13283569614089288
32.391512,1.757060568206502,0.1401003875508842
32.396104,1.8962733704789754,0.14743588978703875
32.400696,2.033066140653686,0.15467395782607832
32.405284,2.1676832481589248,0.1618114080716682
32.40988,2.2985701935276883,0.16885983764224666
32.414476,2.419841631217506,0.16540066467754025
32.419072,2.5402033948279374,0.16188947596080702
32.423652,2.653115073797155,0.15871262649700665
32.428248,2.7579216031058036,0.15583332051090992
32.432836,2.855155863059094,0.1532534887273834
32.43744,2.944162788637669,0.1508754636065655
32.442032,3.0199564687467073,0.14895546944338325
32.446624,3.0876449991951755,0.14711228101248477
32.45122,3.1482499991448676,0.1452291436416189
32.455812,3.1926990808537883,0.14384006434083502
32.460404,3.2298202626356423,0.14249264460716402
32.464996,3.259369175062136,0.1412012912913055
32.469596,3.279424764523831,0.1400100195756848
32.474192,3.286433434678763,0.13910974391896197
32.47878,3.286202487803883,0.1383644512764577
32.483364,3.280452749528971,0.13779874705136452
32.487956,3.278667303187087,0.13708104391456893
32.492536,3.27303974962632,0.13650110778143404
32.497124,3.2651245883136752,0.13603826391365428
32.501716,3.2544330803925683,0.1357554281691912
32.506308,3.2491381791573493,0.13532279623283766
32.510888,3.2374691935230775,0.1351671765489779
32.51548,3.2280097723751666,0.13500156679063968
32.520064,3.219493927123532,0.13489939118909755
32.524652,3.211388777462963,0.13483597695499053
32.529247999999995,3.204349388412816,0.13481968753081114
32.53384,3.2013184327443245,0.13474794054942318
32.538428,3.198453803238607,0.1347483565069059
32.543024,3.200008302705611,0.1347325226543528
32.54762,3.2095355274873008,0.1345167058798374
32.552216,3.2171858401081765,0.13445466427681407
32.556808,3.2233257947106764,0.1344967176700275
32.561412,3.2349064974476915,0.13448808555227146
32.565999999999995,3.2562587943946877,0.13424728628465732
32.570596,3.275856363895016,0.13413930079244257
32.575176,3.2975413131675597,0.13403954274781288
32.579775999999995,3.321802381068901,0.13390417349791184
32.584368,3.3506828059226272,0.13365017491946563
32.58896,3.3802182957957103,0.13340172824887106
32.593556,3.4157613159254083,0.13295494302205765
32.598152,3.449916162750876,0.13260159902933635
32.60276,3.491510854585818,0.13205660523767396
32.607352,3.5340049808684078,0.1315059947852893
32.611956,3.578542345474585,0.1308931182799319
32.616548,3.621813721490677,0.13033832348077923
32.621152,3.6659845319544164,0.12976689433870767
32.625748,3.7139974496370396,0.12910609177148472
32.630336,3.765730289824399,0.12836222055356974
32.634928,3.812965957773519,0.12771795229744246
32.639508,3.8561151490754653,0.12721468188565435
32.644092,3.9020848284345013,0.12664129201192495
32.648684,3.9479323230793906,0.12607248689102898
32.653276,3.9923475029714215,0.12552437928421983
32.657872,4.02985571815919,0.12518599853980647
32.66246,4.070306606118193,0.12476591969728278
32.66706,4.109325179324337,0.12434141951983102
32.67164,4.143480026149805,0.1240571319998159
32.676232,4.174692200204037,0.1238588964195881
32.680828,4.209213601171942,0.12355415597017304
32.685416,4.238216210739815,0.1233718623287418
32.690012,4.26962861277371,0.12310395205511515
32.6946,4.294089908654715,0.12294729770373271
32.699188,4.314953466745128,0.12285533482842691
32.703784,4.333240906206743,0.12280087308085398
32.708376,4.353405257829172,0.12263620258631579
32.71298,4.3741805330223285,0.12241741088783428
32.71756,4.389681386243745,0.12228286630006885
32.72216,4.400929436655211,0.12220200690256432
32.726748,4.414709464246849,0.12202194127257329
32.731348,4.430122034571008,0.12175760650055616
32.735936,4.442303421247011,0.12151958784658518
32.740528,4.455995165941392,0.12120985360285495
32.745124,4.466333542273475,0.12093869015422522
32.74972,4.4778937657470115,0.12055331821183993
32.754312,4.484546121391244,0.1202098005658322
32.758908,4.4925866503397085,0.11980775118578482
32.763496,4.5017709831641115,0.11936894317261951
32.768092,4.509767370663948,0.11890259407508491
32.772684,4.511223347601957,0.11856093757161047
32.777276,4.516643616472994,0.11813094723091275
32.781868,4.517566713105793,0.11777423907387684
32.786452,4.520410863348033,0.1173774994385796
32.791039999999995,4.5217005141232685,0.11698284874290149
32.795636,4.5242561534885875,0.11654179726973912
32.800232,4.527222488444973,0.11613517127150126
32.80482,4.52622453146833,0.11581685309734387
32.809408,4.525104389777542,0.1155085402810981
32.813996,4.5266825514296976,0.11516017587125611
32.818588,4.529815212548856,0.11481071528718734
32.823172,4.532048439220368,0.11447582876372364
32.82776,4.53620271950132,0.11410434790440949
32.832372,4.539579750048771,0.11373670271725422
32.836956,4.547453952834462,0.11330900965838656
32.841548,4.555494481782926,0.1129354493518703
32.84614,4.567909998255482,0.1125101156677913
32.850728,4.5790595261379545,0.11213162666849434
32.855324,4.588410185125132,0.11177786298970709
32.8599,4.6008698430463175,0.11142026521380373
32.864504,4.617826673205742,0.11100019755248856
32.869084,4.629553222842054,0.11070647846551793
32.873684,4.641690468069431,0.1104422948470427
32.878272,4.656281647211459,0.11016620273481804
32.88288,4.679089921096464,0.10977633850680739
32.887471999999995,4.700387836963092,0.10945272323571718
32.892068,4.720908503096219,0.10913435209025403
32.89666,4.745926341467586,0.1087588001894339
32.901247999999995,4.776340786524838,0.108319356029126
32.905836,4.803812558810857,0.10793653057759062
32.910432,4.82834165832564,0.10761222973271005
32.91502,4.853403638145634,0.10730903865030812
32.919612,4.878998498270839,0.10702912780724291
32.9242,4.90668073816826,0.10677050015798875
32.928784,4.930398686132652,0.10658979077596728
32.933372,4.957181491582423,0.10635254531969465
32.937968,4.987317665394496,0.10610142558974917
32.94256,5.021051576997159,0.1058139248095021
32.947148,5.059527030266355,0.10546203180842581
32.951744,5.098369037677986,0.10509062386815761
32.956328,5.139254283413205,0.10469104508468022
32.960924,5.185247624957391,0.10419721458365198
32.965512,5.236471247024691,0.10361054727072032
32.9701,5.286018184910841,0.10304201014289938
32.974704,5.3318452002922525,0.10253583496676591
32.979284,5.381103627301482,0.10195560056616097
32.983876,5.434081976815448,0.10134487692939632
32.988468,5.4875490651859975,0.10071385108790114
32.99306,5.5370077201748895,0.10010255593428964
32.997656,5.592718274848689,0.09939357327633314
33.002236,5.651738056436162,0.09862638996292716
33.00684,5.713411999917948,0.09779730280584802
33.011428,5.776718486132258,0.09692498718425427
33.01602,5.840103015612085,0.09600899825196381
33.0206,5.904875718396141,0.09505663283678895
33.0252,5.96347456476081,0.09415613139101459
33.029796,6.013689990219728,0.09329495300225307
33.034392,6.060796416744636,0.09244097816343361
33.038972,6.102628421297803,0.0916285851181595
33.043568,6.143028111098112,0.09081773998554538
33.048156,6.177376129193178,0.09004343382536022
33.052752,6.208615148354234,0.08927149040482954
33.05734,6.2325365072199626,0.08856474185752722
33.061928,6.256824420228127,0.0878395572252907
33.066512,6.278780584035784,0.08711310566251664
33.071112,6.297916259786356,0.08641898704952082
33.075696,6.312021882993475,0.08574419142188623
33.080292,6.32150814924821,0.08510850107783688
33.084888,6.333037653826531,0.0844512316722979
33.089464,6.3370051286812314,0.08386362245291114
33.09406,6.340317538516576,0.0832724282961244
33.098648,6.339665656418894,0.08272629842782263
33.10324,6.333494982921177,0.08221770916170688
33.107836,6.323360017490431,0.08175026810916822
33.112416,6.311548367878537,0.08128482251448783
33.117024,6.302435021609585,0.08080335191418991
33.121616,6.299084836168958,0.08027127021655148
33.126204,6.292014728223594,0.07976221861160651
33.130792,6.285844054725877,0.07924670415737965
33.135384,6.273788035685691,0.07878488616774702
33.139987999999995,6.2643081352743035,0.07831489449462233
33.144563999999995,6.253195692130394,0.07789144620840098
33.149164,6.244004302595926,0.0774493224995324
33.153752,6.232114609718514,0.07701943445848713
33.158352,6.222023785736397,0.07658062246913318
33.162936,6.211155712020778,0.07613785626176686
33.167536,6.199143834429221,0.0757118296809834
33.17212,6.1889308257329585,0.07527623205548065
33.176716,6.172588102065935,0.07490750037859852
33.181308,6.1608647353512955,0.07451038432920841
33.1859,6.145054891989484,0.07415749420829858
33.190492,6.130921732808823,0.0738037131329825
33.19508,6.1191203228286675,0.07345877164436723
33.199668,6.109772846763163,0.07311649824129648
33.20426,6.104023108488251,0.07276019594626737
33.208848,6.100316608536925,0.0723833527859616
33.213436,6.093178696957782,0.07206076589811046
33.218028,6.093480630388114,0.07169687007496454
33.222612,6.1004451590944155,0.07129244180737887
33.227208,6.115748967257842,0.07084502949152628
33.231788,6.132607274888271,0.07040792295044676
33.236372,6.159315219994199,0.06989754505915848
33.240968,6.186433860691191,0.06941286211006051
33.245556,6.217927488912278,0.06892396369056128
33.250164,6.25121998602866,0.06843615863911315
33.254752,6.286189167326192,0.0679528595362779
33.25934,6.325533336147818,0.06746598570768406
33.263932,6.369619046635974,0.06696061396731913
33.268532,6.4203673524001035,0.06641724194416784
33.273136,6.469849669574147,0.06590279976676154
33.277724,6.523051909252929,0.06537460115212691
33.28232,6.577153583379357,0.0648493042709326
33.286912,6.637018418334111,0.06429837268265107
33.291504,6.698271426593094,0.06372559850845617
33.296096,6.758502815690283,0.06317145008709626
33.300696,6.8202887042544775,0.06263710595438675
33.305276,6.8860388847517005,0.062080276099320576
33.309868,6.951544695820632,0.061549303080804516
33.314464,7.011287346061239,0.06105968946421372
33.31906,7.068453877673047,0.060577273625629056
33.323644,7.12520971369379,0.06007748479657614
33.328236,7.169417608896092,0.05964774633828557
33.332836,7.218855784621508,0.05917979103325715
33.337428,7.267394525899275,0.05871970695477364
33.342016,7.31209115995816,0.058281443522035174
33.346612,7.356665609302899,0.05785265551913943
33.3512,7.397642320857045,0.05743201308469937
33.355792,7.431834252421075,0.05704783962292896
33.36038,7.466148368699252,0.056663319095836495
33.364972,7.4998074199580715,0.056270088540217866
33.369564,7.53178978703574,0.055876526677984276
33.374156,7.5623398393605505,0.055470848658931024
33.37874,7.583651177780593,0.05508902710068758
33.383328,7.60394089703884,0.054717276427172994
33.387924,7.6185896401829085,0.054361923744214766
33.39252,7.629640645536385,0.05401248096527733
33.397104,7.6367273589568345,0.053684521539372164
33.401708,7.637395846529602,0.0533680152089984
33.406296,7.634222226883487,0.05306422181020279
33.410884,7.629249738342078,0.05276186118300776
33.41548,7.621090207601143,0.052483487820919265
33.420068,7.621636510459765,0.05217164250517283
33.424664,7.613476979718828,0.051893079678491195
33.429256,7.5977554192542724,0.05163384336632612
33.433852,7.579213370732627,0.05137989114446317
33.43844,7.558872453315687,0.051126389275503475
33.443032,7.539675339774686,0.050860219207548074
33.44762,7.521377660681331,0.050592537501860824
33.452224,7.497194636045506,0.05034920310776365
33.456804,7.473788861143185,0.050110779958563424
33.4614,7.447196044041338,0.0498944765226558
33.465992,7.41639456557817,0.04970575387526218
33.470588,7.389190824905593,0.04951442729374866
33.475176,7.357900607585843,0.049345585198439214
33.479772,7.32750982471374,0.04917472438592338
33.484364,7.2894348274038725,0.04902647898765197
33.488956,7.249560961198708,0.04887728797483637
33.493544,7.211363779174694,0.0487320684502331
33.498128,7.174965466045975,0.04858495062171534
33.502716,7.132193068518205,0.0484849793105569
33.507312,7.088399051828641,0.04839020406802771
33.511904,7.032834344054137,0.04834407852588114
33.516484,6.977147451565487,0.048303187153020045
33.521076,6.927223719905162,0.04824150995022947
33.525668,6.877955053264193,0.04819163359197236
33.53026,6.826765333013784,0.04814656930001017
33.534844,6.771366951402054,0.0481314414853464
33.539432,6.714169700895028,0.04811529186409813
33.544028,6.654151962330914,0.04810606458058356
33.548612,6.5846511404337384,0.04812322103456323
33.5532,6.512329830479473,0.048148148765384466
33.5578,6.441030139687002,0.048165922321810745
33.562392,6.364988907228,0.04819595553575042
33.566988,6.287926055607205,0.048233982698878165
33.571576,6.21278425759585,0.04826286249285014
33.576172,6.144182870146322,0.048278200424264575
33.580752,6.073538244373207,0.04830770898256371
33.585356,5.997252642485914,0.04835191628708714
33.589944,5.918923802275033,0.04841089697433883
33.594544,5.844803623425472,0.04843724242200294
33.59914,5.7678629565188215,0.048472576783168665
33.603732,5.695908200706993,0.048480219163094765
33.608324,5.622931825733371,0.0484967704877423
33.612919999999995,5.543048486055485,0.04855190528382853
33.617516,5.462387896644098,0.048601285047873984
33.622112,5.377885200013829,0.04866821614187754
33.626704,5.291583634488264,0.04873953206729921
33.6313,5.20131777702967,0.04883955461349029
33.635888,5.114238961770602,0.04890423284836454
33.640476,5.030225003996915,0.04894612247040629
33.645064,4.9501753381562565,0.04896042444298726
33.64966,4.865261945934922,0.04900469000584206
33.654252,4.780348553713587,0.04905018785562676
33.658844,4.6928590428634545,0.04909022474341076
33.663428,4.595764263966115,0.04918514961825962
33.668008,4.493150693668742,0.04929196539157629
33.672604,4.391925296675599,0.04935585801849347
33.677192,4.292743138006045,0.04940081475220983
33.681776,4.1890638070982495,0.04945473287412139
33.686372,4.080887303952217,0.04950682544134869
33.69096,3.974998408558061,0.049508662893166265
33.695548,3.8655117753733146,0.049505411176529075
33.700144,3.7543484580074185,0.04949440813506398
33.704732,3.646249998126902,0.049449347688316346
33.709328,3.535575419617589,0.04938724629710078
33.713904,3.422979787498833,0.04935057804645105
33.718504,3.3060091678559846,0.049306164702455926
33.723092,3.1915705253933058,0.04915875747604091
33.727692,3.0721459718358046,0.049058734804688545
33.732284,2.9545202871735996,0.04894283901558853
33.73688,2.8301098225212766,0.04889303814286428
33.741464,2.710929638392066,0.04871567316755683
33.74606,2.5908500198152082,0.04852912666643652
33.750652,2.472569270133647,0.04833294224997094
33.755248,2.360051681280409,0.04808891236483792
33.759844,2.248189157446528,0.0478985330819249
33.764444,2.1337946564324772,0.04785170726410738
33.769036,2.0200552204377824,0.04785977130499661
33.773628,1.9118345758431206,0.04785516767564105
33.778216,1.807866734058407,0.0479123385465043
33.782804,1.7017334692359605,0.04546939223204755
33.787392,1.5951114655569314,0.04303950545380837
33.791984,1.4969509260491698,0.040608161244063246
33.79658,1.39650277878953,0.03819208395618144
33.801172,1.300429619053984,0.03579209398993987
33.805764,1.2149833465274382,0.033355708068789985
33.810356,1.1402081026585207,0.030915815173784816
33.81494,1.0682974882953205,0.02855693125844082
33.819524,1.0028050997798013,0.026178909865712818
33.824116,0.9397666451789342,0.02382481468148263
33.828708,0.8851896547493346,0.02142435154240731
33.8333,0.8295130018924242,0.019128521763162598
33.8379,0.7782113365596074,0.01684016059716377
33.842496,0.7294857898555883,0.014558901862226572
33.847083999999995,0.6862790345516021,0.012285719518746461
33.85168,0.6488354400759401,0.009954556504311006
33.856272,0.6172771911427478,0.007514737551423409
33.860864,0.5866183766572034,0.005030440809472625
33.865444,0.5569811813334524,0.0025413286042418274
33.870044,0.5320855276762321,0.0
33.874632,0.5161842184954901,0.0
33.879232,0.5098881773619552,0.0
33.883824,0.49758460597180476,0.0
33.88842,0.492065814571772,0.0
33.893004,0.48720208819109573,0.0
33.8976,0.4787847654684561,0.0
33.902196,0.46881294327881223,0.0
33.906792,0.45614281774622484,0.0
33.911396,0.44335050749949173,0.0
33.915988,0.42785989390981505,0.0
33.920576,0.4113476611583449,0.0
33.925172,0.4001878936441336,0.0
33.92976,0.3882508763964202,0.0
33.934348,0.37823491275814813,0.0
33.938936,0.3662978955104348,0.0
33.943532,0.3560375624438714,0.0
33.948124,0.3438561757678667,0.0
33.952712,0.3355168963107447,0.0
33.957312,0.3315526043777163,0.0
33.9619,0.3227245860640116,0.0
