Time,Force,Position
30.855244000000003,0.028192581795297867,0.0
30.859832,0.023044100938924297,0.0
30.864432,0.016874000920757203,0.0
30.869024,0.010581716188444439,0.0
30.87362,0.006332669779718719,0.0
30.878216,0.0020836233709930012,0.0
30.882808,0.0,0.0
30.887396,0.0,0.0
30.891992,0.0,0.0
30.89658,0.0,0.0
30.90118,0.0,0.0
30.905768,0.0,0.0
30.910352,0.0,0.0
30.914944,0.0,0.0
30.91954,0.0,0.0
30.924132,0.0,0.0
30.928712,0.0,0.0
30.933308,0.0,0.0
30.937896,0.0,0.0
30.942488,0.0,0.0
30.947076,0.0,0.0
30.951664,0.0,0.0
30.95626,0.0,0.0
30.960848,0.0,0.0
30.965436,0.0,0.0
30.970032,0.0,0.0
30.97462,0.0,0.0
30.979216,0.0,0.0
30.983804000000003,0.0,0.0
30.9884,0.00046132027020990885,0.0
30.992988,0.0038653133116547064,0.0
30.997588,0.009190359962540882,0.0
31.002176,0.015659210489366256,0.0
31.006768,0.02188369158790028,0.0
31.011364,0.029251976562373508,0.0
31.01596,0.03649807682270106,0.0
31.020552,0.040923689025939375,0.0
31.025148,0.04240662845794281,0.0
31.029752,0.04568843678524195,0.0
31.034348,0.04614975705545185,0.0
31.038936,0.048776500363394475,0.0
31.043532000000003,0.05050380922368925,0.0
31.04812,0.052353302798129685,0.0
31.052708,0.058167088305598545,0.0
31.057296,0.06230418963191738,0.0
31.061884000000003,0.06656347567238188,0.0
31.066472,0.06902389281755067,0.0
31.071072,0.07046269080092596,0.0
31.075668,0.07280092323194909,0.0
31.080256,0.0776205081639972,0.0
31.084848,0.08129628922010612,0.0
31.089436000000003,0.08305101666677367,0.0
31.094028,0.0798198330186193,0.0
31.098616,0.081041680160076,0.0
31.103204,0.08124190813973917,0.0
31.107816,0.08054270167175451,0.0
31.112404,0.08650609047974181,0.0
31.116992,0.09631158650661187,0.0
31.121588,0.10648363667591895,0.0
31.126176,0.12307391269290664,0.0
31.130776,0.1382760154056638,0.0
31.135356,0.15257868367077312,0.0
31.139952,0.16675916722173675,0.0
31.144540000000003,0.17697535883967197,0.0
31.14914,0.19066710353405295,0.0
31.153728,0.20051674100955116,0.0
31.15832,0.21216524738034506,0.0
31.162908,0.2252019270553695,0.0
31.167496,0.2374613569968918,0.0
31.172076,0.24191438778650293,0.0
31.176672,0.2427696807855226,0.0
31.18126,0.24350278907039666,0.0
31.185856,0.2501212428977405,0.0
31.190444000000003,0.2484445587165905,0.0
31.195032,0.24766730898308828,0.0
31.19962,0.2490554822873188,0.0
31.204220000000003,0.24468049476322526,0.0
31.208808,0.23772938861033374,0.0
31.213392,0.22669180581026824,0.0
31.217984,0.21140142020025476,0.0
31.222572,0.19377928538973468,0.0
31.227168,0.18077650753159963,0.0
31.23176,0.16585267606402315,0.0
31.236336,0.1498226989386191,0.0
31.240952,0.1319938529179193,0.0
31.245532,0.1220559325451648,0.0
31.25012,0.11416125049599733,0.0
31.254716,0.10397896069495147,0.0
31.259304,0.09367448617975993,0.0
31.2639,0.09015479165468605,0.0
31.268488,0.08957776990084705,0.0
31.273092,0.08732406396585803,0.0
31.277684,0.08188331583134276,0.0
31.282284,0.07975179461049942,0.0
31.286872,0.07443323119012983,0.0
31.291468,0.0664981640935564,0.0
31.29606,0.06048415060642435,0.0
31.30066,0.05614682130044233,0.0
31.305256,0.05373054560390169,0.0
31.309844,0.05196933492671755,0.0
31.31444,0.051762623716537774,0.0
31.319036,0.04873542444926877,0.0
31.32364,0.04762927879144114,0.0
31.328236,0.04762927879144114,0.0
31.332828000000003,0.04762927879144114,0.0
31.337424,0.04345827564823294,0.0
31.342012,0.037244034181437694,0.0
31.346608,0.03295084632408383,0.0
31.351188,0.02865765846672996,0.0
31.355772,0.022443416999934716,0.0
31.36036,0.01508537165720028,0.0
31.364948,0.009526195209761546,0.0
31.36954,0.007493196517913282,0.0
31.374132,0.009835185350158607,0.0
31.378712,0.017285269991371543,0.0
31.3833,0.030460857242797033,0.0
31.387888,0.050176855056048825,0.0
31.392484,0.07144735233630499,0.0
31.397072,0.09349509935006334,0.0
31.401668,0.11799678027847389,0.0
31.406264,0.1422540917785931,0.0
31.410852,0.16512322997448178,0.0
31.415444,0.1888918026180183,0.0
31.42004,0.21433705944270484,0.0
31.424632,0.237494708515513,0.0
31.429212,0.2596307384265276,0.0
31.433804,0.28446507168048585,0.0
31.438392,0.309299404934444,0.0
31.442992,0.3341337381884022,0.0
31.447576,0.355003779509332,0.0
31.452172,0.3730533327731725,0.0
31.456748,0.3921245051988066,0.0
31.46134,0.40779168458299586,0.0
31.465928,0.418062257281298,0.0
31.47052,0.42641177637015876,0.0
31.475108,0.43050849264907165,0.0
31.479692,0.4260215600425712,0.0
31.48428,0.4228447574747838,0.0
31.488876,0.42437559475663755,0.0
31.493468,0.43163569104992605,0.0
31.498064000000003,0.44204892772585147,0.0
31.502656,0.45880234698394,0.0
31.507244,0.4758884185675762,0.008820038876133578
31.511840000000003,0.4951060113720557,0.017701779518817157
31.516428,0.524139339835144,0.026129663109831308
31.521016,0.5623774803861129,0.03422571693159271
31.525612,0.6014811535678402,0.04249523431427964
31.5302,0.6463140857610024,0.0506424826951732
31.534788,0.6959768425179512,0.05875419265990214
31.539384,0.757620757971242,0.06651379112530767
31.543972,0.8257711821694693,0.07438408647348002
31.54858,0.8981405073607555,0.08230703759386683
31.553172,0.9776714063163349,0.09022558762197366
31.557776,1.0630978904461228,0.09829226427801853
31.562356,1.1527432755689693,0.10639434882455785
31.566956,1.2469741158273115,0.11452468506145262
31.571544,1.347056399811234,0.12270169758889099
31.576144000000003,1.4450954454715694,0.13098201908206317
31.580724,1.541002969911062,0.13913231550597707
31.585324,1.6255402592249406,0.14751220298536133
31.589908,1.7103999612326288,0.15578294350020586
31.594504,1.7925172184487448,0.1640158811116556
31.599096,1.8781880720068238,0.1632908279142441
31.603692,1.96201591522098,0.16251468862911317
31.60828,2.0405251950147663,0.16215998692745334
31.612876,2.1151040846924127,0.16198932224525012
31.617456,2.190371941206306,0.16150643152458966
31.62204,2.263019537642773,0.16108693886557615
31.626628,2.333946308449461,0.16064663087183886
31.631224,2.4004980917320555,0.16052790631301117
31.635816,2.4692933413179006,0.1601384637736793
31.640408,2.53800030800649,0.15955901221916258
31.645004,2.603920688454879,0.15890815369925843
31.649592,2.6692199057008006,0.1580203638871516
31.654192,2.730466548116438,0.1571256295074064
31.65878,2.789459484597086,0.15617371063266589
31.663376,2.851595321828632,0.1550114836269913
31.667968,2.918839254869146,0.1536309378069982
31.672556,2.9817082003855657,0.15241710903451963
31.677164,3.04866362254916,0.15095141903044548
31.681756,3.114963979693398,0.1495435463656988
31.686344,3.1798320220847773,0.14816609984561732
31.690932,3.241591065542148,0.14689803624165276
31.695524,3.30162928336974,0.1455914147364137
31.700128000000003,3.3586806869774692,0.1443242800361023
31.704708,3.409680418879955,0.14324757046597755
31.7093,3.4546284790771966,0.142353088644671
31.713888,3.495568105892782,0.14153953039810108
31.718488,3.53364310320265,0.14075350150398572
31.723068,3.5674211562539426,0.13999118038874306
31.727668,3.593593038132987,0.13941878520002224
31.732252,3.6112593143921345,0.13904524482675817
31.736848,3.6214416041931807,0.13882006912897618
31.74144,3.627493275898425,0.13867708582582178
31.746036,3.630924687526242,0.13850775238420726
31.750624,3.6314914696483425,0.13834509790306188
31.755224,3.6217537772552517,0.13841342779226823
31.759816,3.6055537175658507,0.13857414011826202
31.764408,3.5924185153618313,0.1386171397772999
31.768996,3.5797720520143947,0.1385960703363035
31.773584,3.5642609591612406,0.13857250163242815
31.778164,3.545518682659932,0.1385962833242567
31.782756000000003,3.52546627611991,0.1386015498978983
31.787348,3.506313304027536,0.13858010794820544
31.79194,3.4874047013634537,0.13852823015402307
31.796536,3.469762087289456,0.13841020349944372
31.801124,3.454284896253191,0.13820207451118752
31.80572,3.4427719971499546,0.13785886476276818
31.810304,3.42897149029484,0.137619377861374
31.814892,3.4158260484590817,0.13738671124552096
31.819496,3.4061561596997683,0.13707959388059376
31.824084000000003,3.3998396393027557,0.13671097494318019
31.828672,3.4003520403444893,0.13620470555766814
31.83326,3.405361613624462,0.1355922552510536
31.837848,3.415401239447885,0.13489797849869906
31.842452,3.4254850067199363,0.13428281385869972
31.847048,3.439699392087789,0.1335947049972499
31.85164,3.4525256041514116,0.13298349706694731
31.85622,3.464208012339095,0.13243317234093654
31.86082,3.4751573122419037,0.1319777015985618
31.865408,3.4868058186126976,0.13161295151319014
31.870012,3.502584943079294,0.13118241498720723
31.874608,3.5185303937086636,0.13082133677489535
31.879204,3.533987105481451,0.13052312439287397
31.8838,3.5532078812076033,0.13021156267069994
31.888396,3.5746382214201162,0.12989881617265667
31.892984,3.599299745280785,0.1295579217880392
31.897572,3.6224509111230763,0.12932007477420163
31.902176,3.653164106688988,0.12888855189367726
31.906764,3.6883744744931386,0.12837329357667362
31.911352,3.722685407849642,0.12788627322707968
31.915936,3.760349709568444,0.127359700725194
31.920528,3.79597077296366,0.12690669634104781
31.925116,3.8282826094452034,0.12658700141975493
31.929704,3.8585512076031603,0.12633959617576082
31.9343,3.893028467122437,0.12596184102578145
31.938892,3.9291824108228637,0.12556809504914573
31.943484,3.97289838424691,0.12501053686406524
31.94808,4.016492172956812,0.12447034667948412
31.952668,4.059963776952566,0.12394127979595337
31.95726,4.104823554252552,0.1233474885624555
31.961848,4.153403254057275,0.12269859956786285
31.966436,4.20414837689973,0.12198827511039537
31.971048,4.254893499742186,0.1212781562463126
31.975628,4.303184688669989,0.12060252759283328
31.98022,4.350332073721853,0.11997052947436354
31.984816,4.3926157323930415,0.11945816164220915
31.989404,4.432201087721285,0.11899036660452558
31.994008,4.466023282221205,0.11866283579915703
31.998588,4.4970249886640365,0.11840312350068093
32.003184,4.529581194573873,0.11814153754243319
32.007763999999995,4.562503954626145,0.1178577881363723
32.012364,4.601312060220886,0.11745949796357691
32.016948,4.641263969691567,0.11702704205484012
32.021548,4.681582433304686,0.11656878860711795
32.026143999999995,4.7171593552512725,0.11620553149096705
32.030728,4.749138539407269,0.1158955108504503
32.03532,4.778175050792031,0.1156598829427311
32.039911999999994,4.8102764196621735,0.11536194283374024
32.0445,4.8447875809983385,0.11499204609106849
32.049096,4.88224141510574,0.11457781410118416
32.053684,4.914543011955546,0.11422583485987381
32.058276,4.944268490176553,0.11390360091560199
32.062864,4.977425380025378,0.11349557401019228
32.06746,5.011970443178432,0.11304291951781024
32.072052,5.048148049064009,0.11252522365051991
32.076643999999995,5.085713828253817,0.11195373801703948
32.081236,5.128143333824301,0.11130167847606875
32.085815999999994,5.171183762965513,0.11060176691640358
32.090408,5.209971389296777,0.10993629788600516
32.094995999999995,5.24769325501762,0.10924457679497449
32.099588,5.283083371537957,0.10857058222413558
32.104184,5.3094791435818145,0.10801168563443693
32.108771999999995,5.335586404748752,0.10742245538124524
32.11338,5.357196493677451,0.10688404402677006
32.117968,5.384936297576911,0.10623715704456631
32.12255999999999,5.4172513169801295,0.10548238282364482
32.127151999999995,5.445191348859253,0.10477045509537261
32.13173999999999,5.465813720443047,0.1041479678706888
32.13633599999999,5.4820611045027485,0.10356837707660024
32.140932,5.48906977465768,0.10310339204018794
32.145523999999995,5.495956260098465,0.10264818193942937
32.150116,5.502964930253397,0.10218454603646054
32.154712,5.504088254865859,0.10181545309788421
32.159299999999995,5.502391091421232,0.10148397598731013
32.1639,5.498895059081308,0.10117180555663048
32.16849199999999,5.495643396169677,0.10084184693864877
32.173084,5.4892827343240365,0.10051347680175861
32.177668,5.483699322211896,0.10018559972191776
32.182264,5.482735267052144,0.09980554307901182
32.186871999999994,5.48062740801645,0.09945247784359976
32.19146799999999,5.473411453171789,0.0991843027323738
32.196056,5.470692670565369,0.09887334163549497
32.200647999999994,5.4638874113117755,0.09863054444633096
32.205236,5.464766366495945,0.09828668153232094
32.209824,5.458860541689997,0.09803659673279186
32.214412,5.448623870808585,0.09787055702949286
32.219007999999995,5.442107122431909,0.09766387779779259
32.2236,5.44098698074112,0.0974089889278055
32.22819199999999,5.443220207412631,0.09714000103891565
32.232788,5.453914898255411,0.09677409973048738
32.237376,5.464609589098189,0.09640869364947077
32.241975999999994,5.477225333550411,0.0960219688929737
32.246556,5.494704804383306,0.09557287145943809
32.25114799999999,5.515782013006794,0.09509685940716261
32.25574399999999,5.537514286649638,0.0946330758105996
32.260335999999995,5.565542601426018,0.09412814751196079
32.264928,5.593859427079318,0.09366151733970268
32.269516,5.622176252732618,0.09319910822902779
32.27412,5.652414131995358,0.09272364537461589
32.278716,5.683429260991601,0.09225222780041979
32.283303999999994,5.722250789139754,0.091687206875633
32.287907999999995,5.757230210069025,0.09116697420150498
32.2925,5.79772842239833,0.09059856843598443
32.297104,5.834917407813961,0.0901028350044726
32.3017,5.876725750181978,0.08956960525676937
32.306296,5.921476765321231,0.08900355255315477
32.31087599999999,5.963407292403392,0.0884682568323013
32.315476,6.0084026769709356,0.0879027405168618
32.320063999999995,6.05454186541442,0.08732483884355394
32.324668,6.0999038041243985,0.08675915876154677
32.32926,6.1462873619961735,0.08618330546565256
32.333859999999994,6.193448169601449,0.08561921242560813
32.338455999999994,6.238687923597283,0.08508214630345781
32.343048,6.285071481469057,0.08453686288185318
32.34764,6.3343977121120645,0.08396953865902732
32.352236,6.377427901621538,0.08345003823816305
32.356832,6.42388950275883,0.0828813832685209
32.361419999999995,6.470351103896121,0.08231750902381446
32.366007999999994,6.515136020852261,0.08176693373875414
32.370596,6.561064741684342,0.08120322230591964
32.375172,6.602251920849891,0.08068283184741305
32.379772,6.649446630272057,0.08010568674644683
32.384359999999994,6.695453394369656,0.07951122512554135
32.388952,6.73847334424739,0.07890234989181638
32.393548,6.774175633829796,0.07833382072575273
32.39814,6.809222858392846,0.07776153771505309
32.402736,6.849378178764863,0.07714119945669201
32.407324,6.884014707736847,0.07655905398840726
32.411916,6.91337681473709,0.07599642752378703
32.416512,6.93889681451845,0.07546632833460819
32.4211,6.964905553156394,0.07491411276730865
32.4257,6.986539304270244,0.07437587676013241
32.430288,7.004697502307648,0.07384513927420878
32.434876,7.014638605602075,0.0733534825977266
32.439471999999995,7.018161483048822,0.07289391631727057
32.444056,7.01886387243848,0.07244981116016651
32.448652,7.01110479765687,0.07205534732088159
32.453239999999994,7.001913408122401,0.07164763030824049
32.45783599999999,6.9883470310638405,0.07124849119456494
32.462428,6.968484612871743,0.07086941085579566
32.467028,6.950909802431523,0.0704570853440936
32.471616,6.9269167661436235,0.07007151415673778
32.47622,6.900880491532137,0.06970304938283294
32.480808,6.875621466654153,0.06933553111616421
32.48540799999999,6.855470537585137,0.06891838500245502
32.489999999999995,6.831721870725529,0.06851018141774287
32.494595999999994,6.801188423875803,0.0681455783699499
32.499204,6.7747414536732515,0.06774353188521483
32.503795999999994,6.752014405975437,0.06732274564826549
32.508388,6.727855043524764,0.06688448424607268
32.512984,6.701530258036357,0.06646890831186747
32.517576,6.678270330033333,0.06602518877727916
32.52216799999999,6.657953074801543,0.06555928567703576
32.52676,6.643032426255639,0.06507741379639927
32.531344,6.632975504090411,0.06456449843468759
32.535931999999995,6.624961820248772,0.06403176764611
32.540519999999994,6.621323123931226,0.06349172293631723
32.545112,6.617317873471241,0.06297025619745779
32.549699999999994,6.613845503316469,0.062463365834425306
32.5543,6.618712412618819,0.061925605597231884
32.558888,6.621291714169289,0.06141887958535758
32.56348,6.63028924156744,0.06089477348619313
32.56806399999999,6.639819649270803,0.06038855974381346
32.572647999999994,6.653069979478902,0.05987220553224564
32.57724,6.668652058887508,0.05937441173013
32.581827999999994,6.694372286648531,0.05885318644654078
32.58641599999999,6.724956240790231,0.05830717528608784
32.591012,6.751331533570611,0.05780321817785449
32.595603999999994,6.778239706656201,0.05732119587504589
32.600207999999995,6.808379063389947,0.0568539209340281
32.604803999999994,6.843137777076078,0.05637892175301443
32.609399999999994,6.876508317457977,0.05593372011111732
32.61398,6.912332791754529,0.05550257868164568
32.618579999999994,6.948157266051082,0.05507499478195714
32.62316,6.9810390675764,0.05466610644685516
32.627759999999995,7.020461279663542,0.05424559463969775
32.632355999999994,7.06090511091248,0.05382086676250484
32.636951999999994,7.1023705613232115,0.05339083987178785
32.641532,7.145634880629238,0.052959856031377345
32.64612,7.18313603910694,0.05255527053886768
32.650716,7.222558251194084,0.05214534327358024
32.655303999999994,7.2531524449675215,0.05177786008013365
32.659892,7.283091573721603,0.05139975596502822
32.664488,7.307800421952572,0.05106187666707369
32.66907199999999,7.3267461093552155,0.05074563263263889
32.673668,7.331222802329977,0.05048488131523867
32.678256,7.332634637819358,0.05024392974674871
32.682852,7.33008218137571,0.05002058203866348
32.687444,7.325853040750913,0.049792624706273304
32.692024,7.3207244656784685,0.04956527420615693
32.69662399999999,7.307789491454112,0.04936970379165855
32.70119999999999,7.292811278906169,0.049185872349067315
32.70579599999999,7.271048286368108,0.049027068299558205
32.710392,7.243522133001723,0.04888623435775281
32.71498,7.212686752721667,0.04877496342391762
32.719576,7.168159627747229,0.04871959790727882
32.724163999999995,7.116969907496819,0.048682257846900036
32.72875199999999,7.063736948922822,0.048655534181560454
32.73334799999999,7.0076835022917345,0.04863384544328303
32.737939999999995,6.945989079546471,0.048624062799700274
32.742543999999995,6.877387692096942,0.04864567375933082
32.74712399999999,6.81172897741865,0.04865462607366855
32.751724,6.741206536359681,0.04868142002527129
32.756311999999994,6.665531858043116,0.048696467988162906
32.760915999999995,6.588957745278903,0.048711858207412355
32.765491999999995,6.511728567495332,0.04871618721061232
32.770095999999995,6.428491859455148,0.0487561589547069
32.77468,6.346276770576755,0.048790740578667856
32.779272,6.253312609775217,0.04887813610478854
32.783863999999994,6.1557290920212955,0.048971038471349475
32.78845199999999,6.055569455638575,0.049060417619965074
32.79305599999999,5.951934266179409,0.04914339594349372
32.797656,5.846866761967384,0.04920475108452152
32.802248,5.7388565849841235,0.049286501059328774
32.806836,5.631335146857447,0.04933875449748029
32.811423999999995,5.528921804539737,0.04935355338369469
32.81601199999999,5.427163527241384,0.049387824062149505
32.8206,5.325405249943032,0.04941947214016885
32.825191999999994,5.221481549606947,0.04947851700618207
32.82978799999999,5.125530574585547,0.049545938445496124
32.83438399999999,5.0337882609254665,0.049570342890450064
32.83898,4.941024328103593,0.049602346602932335
32.843568,4.853657001967604,0.04963343966051027
32.84815999999999,4.775161835593949,0.04966976212645263
32.852748,4.697688288382088,0.049696591426720775
32.85733999999999,4.627654586179701,0.049702331735505
32.861932,4.559786307015047,0.04968520417271423
32.866524,4.4908964086886005,0.04967872856825806
32.871132,4.433655016732947,0.049605942836182776
32.875724,4.374126017025414,0.04957259903995299
32.880312,4.317295320660826,0.04953797228006374
32.884908,4.264961796534477,0.04949906438085307
32.889495999999994,4.2179026943798705,0.04946463453288158
32.89409199999999,4.177628372215379,0.049387867023129736
32.898675999999995,4.135965876746658,0.0493509456158805
32.903276,4.091238523792557,0.04934461746508367
32.907864,4.053418135542719,0.04928300637660975
