Time,Force,Position
31.524256,0.4558330430681196,0.0
31.528852,0.4526018594199652,0.0
31.53344,0.4494928604859565,0.0
31.538032,0.4489599801807456,0.0
31.54262,0.4435633734948585,0.0
31.547208,0.4343246595900887,0.0
31.551796000000003,0.4304825523712059,0.0
31.556388,0.42610756484711243,0.0
31.56098,0.4217325773230189,0.0
31.565568,0.41069499452295327,0.0
31.57016,0.4033773342276248,0.0
31.574752,0.39544875036156796,0.0
31.579344,0.3816348209530413,0.0
31.583932,0.3671658265251582,0.0
31.588520000000003,0.35551732015436427,0.0
31.593136,0.3459120521071573,0.0
31.597724,0.3342635457363634,0.0
31.60232,0.3272343963179545,0.0
31.606908,0.3155858899471605,0.0
31.611496,0.298829287767399,0.0
31.616100000000003,0.28129543585413536,0.0
31.620688,0.27210086339799366,0.0
31.625284,0.26368354067535416,0.0
31.629876000000003,0.2537117184857102,0.0
31.634468,0.24733763408665776,0.0
31.639056000000004,0.24864776412537076,0.0
31.643656,0.2445612874781967,0.0
31.648236,0.2352445303079093,0.0
31.652836,0.22989206507065033,0.0
31.657432,0.23054713009000682,0.0
31.662024,0.2264606534428327,0.0
31.666608000000004,0.2199202428810064,0.0
31.6712,0.21440145148097364,0.0
31.675788,0.207616671490856,0.0
31.680384000000004,0.19825577287194046,0.0
31.684976,0.18799543980537706,0.0
31.68956,0.18259883311948996,0.0
31.694148,0.17372667335715714,0.0
31.698748,0.16959605526135488,0.0
31.703336,0.17147296742216808,0.0
31.707932,0.1740049446023378,0.0
31.712524,0.1749824223155032,0.0
31.717112,0.1776365842098186,0.0
31.721712000000004,0.18286686473293184,0.0
31.7263,0.19026256829377788,0.0
31.730896,0.19561503353103682,0.0
31.735484,0.20624192074003717,0.0
31.740072,0.22250978406321603,0.0
31.744668,0.23918834297746006,0.0
31.749256000000003,0.25333492471153435,0.0
31.753860000000003,0.2727559284173501,0.0
31.758456,0.2965519196472594,0.0
31.763044,0.32586670227720144,0.0
31.767644,0.3581241576783784,0.0
31.772236,0.3878496358993857,0.0
31.77684,0.4208062977685473,0.0
31.781436,0.45646126298065254,0.003506986996924254
31.786032,0.4954695965550578,0.006996762578435938
31.790612000000003,0.5309243337874998,0.010741733940439374
31.795212,0.5716534929916832,0.014316932855801087
31.799792000000004,0.6170020091482515,0.01779492066233695
31.804388000000003,0.6598185481246502,0.02143794411406758
31.808972,0.6990373493104575,0.025144554948264553
31.813568000000004,0.7409985952878364,0.02900284152732046
31.81816,0.7834146783049086,0.03308924832733995
31.822752,0.8233429255904393,0.03764731871006825
31.82734,0.8647476290774567,0.042427695753504906
31.831936,0.9090611035188197,0.04747529349798195
31.836524,0.9534628608574394,0.052897959454762424
31.841120000000004,1.0025722580456997,0.05858969900487466
31.845708,1.0575330989595408,0.06427978561745827
31.8503,1.118101014170671,0.06999558800660867
31.854888000000003,1.1801895270319163,0.07590263207253398
31.85948,1.244698071990924,0.08201441116623161
31.864072,1.324418959294428,0.08797641315829696
31.86866,1.4029621409051032,0.09421541030201086
31.873256,1.4809826818423064,0.09713076791372655
31.877844000000003,1.5615454395914181,0.1001834366727908
31.882440000000003,1.6471823913326082,0.1030807204733021
31.887036,1.727266649856876,0.10638111005039778
31.891620000000003,1.806417572116607,0.10989431601833455
31.896228,1.8926859266920029,0.11320450494058397
31.900816,1.9872596589076312,0.11642486287011976
31.905404,2.078768533637879,0.11958917484363871
31.909996,2.1696223433487707,0.12253835830776996
31.914584,2.2670946068870057,0.12488129421412492
31.91918,2.362723860081317,0.12699206560849985
31.92376,2.45442272315949,0.12884336310597205
31.928356,2.5434571847116088,0.130336071988196
31.932944,2.628028375842377,0.13157621200542258
31.937544000000003,2.7004520821140297,0.13295612122844222
31.942132,2.764692595459596,0.13431031467489507
31.946724000000003,2.8259801964021882,0.13536988129867628
31.951308,2.8859915691229565,0.1361155751622704
31.955904,2.935121445574695,0.13697014457945225
31.960496,2.984896147414051,0.13745970906830124
31.965088,3.031473567422142,0.13774250292695978
31.969688,3.0746093361706763,0.13787466589405276
31.974288,3.115857953126659,0.13785469409654164
31.97888,3.1585727866523894,0.13759583207956494
31.983472,3.203120390890305,0.13709357176544978
31.98806,3.2412056278319117,0.13669591652638743
31.992648000000003,3.2725399866002904,0.13634723254417663
31.99724,3.3028085847582465,0.1359400540922456
32.001832,3.3325443026109927,0.13551467758470478
32.006424,3.359459532406649,0.13519830362226137
32.011016,3.3864969469164516,0.13487316004505828
32.015612,3.4171320992168455,0.13446944932139437
32.0202,3.4540632926507744,0.13393168960961796
32.024796,3.494470039161149,0.1333317948221703
32.029384,3.543871130148002,0.13251566236826987
32.03398,3.5927834822782727,0.1317494816901861
32.038568,3.641617791143026,0.1310978431808244
32.043152,3.687265057808253,0.1305801681746257
32.047744,3.7306247167216013,0.13015812176346478
32.05234,3.7720633220255078,0.1298067067531752
32.056916,3.813379742615269,0.12947390183556065
32.061512,3.852242229290378,0.12917644115016505
32.066088,3.89044965094613,0.12888466052244674
32.070688,3.926814062257959,0.12856151305799177
32.075276,3.954061944379163,0.1284468973271773
32.079872,3.9815100544800304,0.1282280542577945
32.08446,4.007648034542185,0.12799120481150525
32.08906,4.034641307603359,0.1276625685123558
32.093652,4.057870516711168,0.12734821515807077
32.098244,4.075414608256171,0.12709876245213914
32.102832,4.088950266419517,0.12689042517095508
32.107424,4.099743479791291,0.12667147011966018
32.112012,4.101908902829025,0.12659679866710719
32.116608,4.101087511646894,0.1265291753919998
32.121196,4.09086108039722,0.1266023221024826
32.12578,4.080468322984773,0.1266172428348125
32.130368,4.066433686333105,0.12663087006885834
32.134968,4.053787222985668,0.12657504386958063
32.139556,4.042651117656607,0.12643812282595698
32.144152,4.030737762594045,0.1263054210578338
32.148748,4.016248288902684,0.12621335924360783
32.153328,4.007033237183064,0.12602814038522653
32.15792,3.996796566301652,0.1258723770407945
32.162508,3.9890138293348913,0.12569023600558737
32.1671,3.9867498837681636,0.12539447433467316
32.171696,3.9869398721160887,0.12507575244283156
32.176284,3.9916270327022527,0.12467810785844026
32.180888,3.995825454431833,0.12433196759293647
32.185476,4.004276678971363,0.12393190851498168
32.19008,4.014038033549604,0.12354306599423798
32.194676,4.028052190937793,0.1230988779920496
32.199272,4.040966685898672,0.12276837869406168
32.203876,4.058789048688856,0.12239037471740974
32.208464,4.080619844860695,0.12199080295642109
32.213068,4.1128773002618715,0.12144385368334222
32.217664,4.150164808206499,0.1208504908138493
32.222268,4.192604553408721,0.12019651399214924
32.226852,4.236354428649657,0.11957099692793263
32.231444,4.281414433929306,0.11896817455474822
32.236032,4.32802893867596,0.11836457330215634
32.240628,4.380939484556148,0.11766587842667295
32.24522,4.428209054322157,0.117087490985699
32.249812,4.475356439374021,0.11652464091279727
32.254396,4.519438966940505,0.11604535087689367
32.258992,4.562499875345195,0.1155972365744598
32.26358,4.6033953607121525,0.11521806958560096
32.268176,4.639549304412579,0.11493508541268055
32.272768,4.676847051988945,0.11462150338697548
32.27736,4.711446496222367,0.1143527635728909
32.281952,4.7503767865312545,0.11396899868498718
32.286536,4.787874762087284,0.11358711160958009
32.291124,4.825983661214042,0.11315204714031837
32.295716,4.860739191978499,0.11274887732614784
32.300312,4.89034248548536,0.11240718752251597
32.304904,4.912217423105828,0.11215291159608148
32.309496,4.928040689021052,0.11196602189908844
32.314076,4.939488967412182,0.1118312867878586
32.318672,4.948849866031098,0.11168271355421205
32.32326,4.956001200163652,0.11152911551577988
32.32784,4.963641273152789,0.11133728908844255
32.332436,4.968050162493773,0.1111642335082107
32.337028000000004,4.9720483562436915,0.11096119299212827
32.341616,4.972693181631309,0.11078280668202184
32.346204,4.97574779948495,0.11053243849082184
32.350796,4.97916897148103,0.11025333463445275
32.355392,4.981402198152542,0.10994695257062849
32.359972,4.987599716757082,0.1095677214665031
32.364568,4.990321682285176,0.10922341341687387
32.369152,4.994187451689209,0.10884935565061378
32.373748,4.997153786645594,0.10849068637424716
32.378344,4.999997936887833,0.10814353378120752
32.382944,4.999244349339481,0.10783746202526621
32.387536,5.003354488171806,0.10745235388974732
32.392132,5.010285115061221,0.10702803909582508
32.39672,5.021712914188874,0.10655458718419718
32.401316,5.035061766925969,0.10604994169801932
32.405904,5.051231107720153,0.10550756504519175
32.4105,5.069854382428989,0.10495980629429483
32.415088,5.088233287709533,0.10442943347081257
32.419676,5.104446769952345,0.10395122701595547
32.424256,5.122336936376309,0.103469706169428
32.428852,5.143702655876714,0.10296048858277532
32.43344,5.172508220386597,0.10236119805280772
32.438024,5.200169981020539,0.10179703948302751
32.442612,5.22873117610213,0.10123050580767212
32.4472,5.2589690553648705,0.10065810787330952
32.451784,5.288551869608256,0.10008766297706116
32.456376,5.323531290537526,0.09947024935674016
32.460964,5.360309580362093,0.09884494119111106
32.46556,5.395944066310719,0.09825363309813044
32.470148,5.429901868078196,0.09767231217240298
32.474752,5.4714216995692935,0.0970049172147825
32.479344,5.510121043003302,0.09638296327585393
32.483944,5.548165321417953,0.09576071160717974
32.48854,5.583389111775517,0.09517699342003551
32.493132,5.622455009351962,0.09455575700964088
32.497736,5.663686329966139,0.09390868194002182
32.502316,5.700542663056223,0.09329319277990653
32.506916,5.743406526402923,0.09260278393235168
32.511504,5.785493140016121,0.0919103236977634
32.516096,5.823859831124581,0.09125961196332867
32.520684,5.862837445803771,0.09057863018746103
32.52528,5.899361126568308,0.08991704885713207
32.529872,5.935351927027634,0.08924245598887637
32.534468,5.96684555524872,0.08860098278234733
32.539056,5.997561933736304,0.08796195163108447
32.543652,6.024314020290861,0.08737441114432509
32.54824,6.049389422664266,0.08680041133126985
32.552828,6.0717665216947285,0.08624925378119555
32.557416,6.095409609315276,0.08567419213982831
32.562008,6.121995369707058,0.08507016750822369
32.5666,6.143062338698808,0.0845148244166213
32.571188,6.160531569899966,0.08398100624687316
32.575776,6.1769791819393305,0.08346342770593358
32.580368,6.197513270625869,0.08290002799769863
32.584964,6.216126305702966,0.08236274027254031
32.589552,6.226932941628153,0.08190445454598383
32.594144,6.241703869486366,0.0814057305716317
32.598732,6.253532124573346,0.08094381595050713
32.603324,6.267525802698057,0.08045177663366306
32.60792,6.281641665536916,0.07995158262858182
32.612508,6.295146604805045,0.07949269310162148
32.617104,6.305342317159503,0.07908528078718534
32.621692,6.315293660085669,0.07869343643214281
32.62628,6.333706467183104,0.07824462703669248
32.630876,6.354939762337628,0.0777803950512815
32.635468,6.380137349425179,0.07727985879438304
32.640064,6.405457121226876,0.07677830391857579
32.644644,6.4339639352281,0.07624248930773805
32.649244,6.459528076458088,0.07573552537183638
32.653836,6.485869467421578,0.07523847148642332
32.658432,6.512988108118572,0.07474562436494157
32.663024,6.5468915288056815,0.07420383882305731
32.66762,6.585414306445178,0.07364538581524355
32.672208,6.617152304094555,0.07314206931591762
32.676804,6.647213617562784,0.07264327071013818
32.681384,6.684059711021129,0.07209503076654866
32.685976,6.718740381441741,0.07157850326571093
32.690568,6.751744367681204,0.07106639407081874
32.695164,6.78576997308246,0.07055086899174107
32.699748,6.821183751787947,0.07000851003627732
32.704336,6.8543879660070735,0.06945210759333847
32.708924,6.887303669349279,0.0688650940709623
32.713524,6.923284230176868,0.06825568382086493
32.718112,6.950925511547332,0.06769015216807885
32.722704,6.974724685698915,0.06715191666210356
32.7273,6.9967249909552,0.06662287220249011
32.731892,7.01308432009731,0.06612182779501308
32.736488,7.023436118982802,0.06566894058696182
32.741076,7.036974960067821,0.06518559180247137
32.745672,7.046138813628747,0.0647093284025775
32.750264,7.056446471065612,0.06421985648042385
32.754852,7.060868782960006,0.0637710136632542
32.759464,7.057074000111425,0.06334819861644943
32.764052,7.0582651283576645,0.06289008660743056
32.76864,7.0566357685468155,0.0624429443853064
32.773236,7.053207539840671,0.06200230087587786
32.777824,7.0490020614010245,0.06155693205489425
32.78242,7.043774963799585,0.061119261045980935
32.787012,7.03867005091229,0.06067794414103132
32.791616,7.032299149434911,0.060256384152375324
32.796196,7.026583312976888,0.05984518866612156
32.800796,7.024098660167019,0.05944662212237665
32.805384,7.017771900138269,0.059067210540782754
32.809988,7.017741181243053,0.058678878725914936
32.814572,7.024495242337953,0.05826049206339192
32.819172,7.032026553166357,0.05784829789627871
32.823756,7.047242078432525,0.05740385739929784
32.828352,7.067443514793516,0.056930424189197824
32.832944,7.082414670631394,0.05649918965742845
32.837532,7.101882998707511,0.05606492199373769
32.842128,7.12237294594542,0.05562757116309665
32.846716,7.147604434849862,0.05517583998359947
32.851296,7.177455280706687,0.05471397923651649
32.855892,7.20628450740172,0.054263481297670696
32.860484,7.243208644125583,0.05380965079444234
32.86508,7.279111161687653,0.053365535836555365
32.869668,7.31566874426908,0.052933217565846305
32.87426,7.350960338260421,0.05251846208046476
32.878852,7.383597770357447,0.05214842681526137
32.883436,7.423675047463947,0.05176777511726116
32.888032,7.463752324570446,0.05138936671170443
32.89262,7.505095590267031,0.05099840553408044
32.8972,7.547093920982972,0.05061940797582174
32.901792,7.582018960831876,0.05024055528264839
32.90638,7.607460917347719,0.04989106839106008
32.910968,7.634823927473003,0.04953887770864489
32.915564,7.657078841789319,0.04921869195658887
32.920152,7.67614671390611,0.048922871395512296
32.924748,7.700200497117724,0.04860453530842684
32.929324,7.717469500339218,0.04830973443597872
32.933924,7.730652026913539,0.04803838831553482
32.938504,7.739992446268977,0.04777964778116669
32.943104,7.744102585101302,0.04755338552930703
32.947692,7.744248432000599,0.04734339096546253
32.952292,7.735155564995125,0.047144494365850574
32.956884,7.725041078827858,0.04695060224035707
32.96148,7.714393712355379,0.046739650894867306
32.966064,7.702314031130044,0.04651015883140259
32.970656,7.688024785418347,0.04625705031965627
32.975248,7.66028816444056,0.046039929425282414
32.97984,7.629486685977392,0.04583754191960385
32.984428,7.589857189200519,0.045664893992774985
32.989016,7.546752139347201,0.045483868696261844
32.993604,7.504835034818451,0.045329321451998625
32.9982,7.462551376147262,0.04518990587623821
33.002792,7.40976301498122,0.0450736675768479
33.007384,7.353132546596294,0.04496664884374144
33.01198,7.290983286811337,0.04486165570503944
33.016568,7.222948681483907,0.04477553009590907
33.021168,7.154014641708832,0.04468769892821017
33.025748,7.083159548324314,0.04460356446478981
33.03034,7.009239597454416,0.04453490516847156
33.034928,6.937485069622252,0.044448694192380844
33.039508,6.863565118752356,0.04437943918912595
33.0441,6.78592524537772,0.04431236046853818
33.048692,6.703543830336555,0.044253169511226945
33.053284,6.6160543194864205,0.044220078918106115
33.057888,6.532817611446237,0.04419867230413413
33.062476,6.446393861206527,0.044198982428302266
33.067068,6.360991730128608,0.04419494033501341
33.071656,6.27391291486954,0.044181569530226665
33.076252,6.186834099610473,0.044168905252715565
33.08084,6.098611480475466,0.04416657709637742
33.08544,6.00781274271166,0.04415585871938245
33.090024,5.914193516890767,0.04415252644319496
33.094624,5.82147372551752,0.04415060248402104
33.099216,5.725034011639536,0.044156050655241
33.103812,5.631292601104497,0.044162279486191336
33.108392,5.536773940835954,0.04415798729413246
33.112984,5.442255280567413,0.04415249256182498
33.11758,5.347736620298869,0.044145977154233254
33.122172,5.252562895010971,0.044121327313931986
33.12676,5.150970943875395,0.04409618317844652
33.131356,5.048846112434605,0.044044285296520776
33.135944,4.950319018784406,0.043992579679691876
33.14054,4.849748686810621,0.043956846662786105
33.145128,4.750977223732131,0.04392413643415111
33.14972,4.642967046748871,0.04389951632829044
33.154316,4.538143911965137,0.04383303026277565
33.1589,4.43536401550499,0.04374561601839351
33.163496,4.335282422387788,0.04365408219956836
33.168076,4.2363446331465235,0.043538785194813114
33.172668,4.138184093638762,0.04343254353367154
33.177264,4.039124119683353,0.043319398778820004
33.181852,3.9431290032133246,0.04317433134958889
33.186464,3.849054940352737,0.04301570283629695
33.191052,3.7627872766440613,0.042802989129597756
33.195648,3.676519612935385,0.042583455790761615
33.20024,3.5889859606366232,0.04239023654624129
33.20484,3.5032511772331576,0.042193357732089834
33.209436,3.4166169593820443,0.0419864838055258
33.214028,3.326018449597903,0.04179971150776664
33.21862,3.2426154153949445,0.04161832875274317
33.223212,3.159867446211342,0.04145497119774477
33.227804,3.0751984234182985,0.04129487977023336
33.23238,3.000256853386607,0.04105848325558711
33.23698,2.9246602183355597,0.040778754916651644
33.241572,2.852783505789249,0.04047662088802322
33.246168,2.775676512719825,0.040235949048844345
33.25076,2.698569519650401,0.039972947856406024
33.255356,2.6139004968573576,0.039715711157041464
33.259952,2.5271882357407267,0.03946096630153408
33.264548,2.4396987248905937,0.039167354286854944
33.269144,2.354008082935757,0.03885464607421129
33.273744,2.269216875428567,0.038509854269725106
33.278336,2.1862245368166735,0.03814799972781461
33.282928,2.098246287109958,0.03780002830528071
33.287516,2.0120669062985383,0.03743969043270414
33.292108,1.9288301982583536,0.03703020036814624
33.2967,1.8428951868752246,0.03654643137231682
33.301296,1.7576152405114525,0.036092707452896486
33.305888,1.678753519995361,0.03564206119839258
33.31048,1.5973156808504716,0.035077429122875245
33.315072,1.5217631872480522,0.03439712723945786
33.319656,1.450707865883872,0.03374061104815472
33.324248,1.3686591031682545,0.03180667204095887
33.328836,1.2902080782432281,0.029909457571082487
33.333424,1.2153547911087932,0.028033158821510907
33.338032,1.1490851528597716,0.026133681195081956
33.342612,1.0844921987919003,0.024273735567985864
33.3472,1.0297930236481552,0.022422859814035287
33.351796,0.9843325624091798,0.0205895362872705
33.356384,0.9445130772843829,0.018789378850255833
33.36098,0.9054708418930885,0.017018691977345464
33.36556,0.8661842370735023,0.015300626073123585
33.370152,0.8276748819874187,0.013609646862142596
33.37474,0.7955837527490155,0.011947788058303318
33.37934,0.7643920579582603,0.010307841139211255
33.38392,0.7379419048340355,0.008703318387379434
33.38852,0.7194644770244958,0.007180583567355309
33.393104,0.7021308530908952,0.005640991384495437
33.3977,0.6876177172143839,0.004091929506640283
33.40228,0.6736374616430835,0.0026597355656911917
33.406872,0.6563479791581112,0.0013412538146575302
33.41146,0.6409795502825802,0.0
33.416056,0.6363601933301952,0.0
33.420648,0.6334175205589603,0.0
33.425232,0.6301082936452883,0.0
33.429816,0.6266768820174707,0.0
33.434412,0.6267210234660989,0.0
33.439004,0.6292971420948967,0.0
