Time,Force,Position
33.19248,0.193742656743551,0.0
33.197076,0.17554725658041417,0.0
33.201668,0.1535097491983946,0.0
33.206264,0.13249386097816857,0.0
33.21086,0.11147797275794254,0.0
33.215456,0.09508144149010143,0.0
33.22006,0.08072814854584738,0.0
33.224652,0.06702992062094983,0.0
33.22924,0.0543533118578458,0.0
33.233824,0.04595646839868384,0.0
33.238412,0.04921837094205458,0.0
33.243004,0.05122452452707922,0.0
33.247592,0.061335827772673324,0.0
33.25218,0.08776937542181322,0.0
33.256772,0.12684938641838994,0.011513809502399556
33.261351999999995,0.1856491516294407,0.02160663996633978
33.265944,0.25983782497950003,0.03121751996414586
33.270528,0.34815590110899963,0.04063914110343189
33.275119999999994,0.45054627210827825,0.04977553361179844
33.279712,0.5672597906361436,0.05867365741246838
33.284299999999995,0.6955265933146514,0.06753980540480115
33.288903999999995,0.8379943588076005,0.07621673252290223
33.29349199999999,0.9940521635442623,0.08482976823249655
33.298075999999995,1.166642680295872,0.0932598618341552
33.302671999999994,1.356787528224223,0.10149639818740987
33.30725999999999,1.567185010672259,0.10949929365346152
33.311851999999995,1.7938708357069508,0.11743190898046083
33.31643999999999,2.0365564924513797,0.12526705265901542
33.32104,2.2917222863804723,0.1330249697926244
33.325619999999994,2.550424953789273,0.14080869630138648
33.33022,2.8096605015032847,0.14857076559578958
33.334804,3.0764139374922874,0.15624634165157691
33.339395999999994,3.3443892206227477,0.1638901499077732
33.34399199999999,3.604592006418188,0.1715171314941804
33.348583999999995,3.861797738362026,0.16751689984939885
33.353188,4.098384281643742,0.1650178858624163
33.357783999999995,4.320847905376535,0.1629733105991026
33.36237199999999,4.529799533131133,0.1610786420814972
33.36696799999999,4.725527675784455,0.15941733623348056
33.371556,4.906399790603978,0.15800051771859291
33.37613999999999,5.0790784728656755,0.15654305319335324
33.380728,5.237800561741224,0.15525684717947194
33.385324,5.381744666048491,0.15401941644319195
33.389908,5.507068678568596,0.15296467022320673
33.394496,5.613117534282182,0.1520758635791696
33.39908,5.691429769017979,0.15151273196552062
33.403659999999995,5.75071121637555,0.15101698959640503
33.40824799999999,5.79353799498369,0.15054610924474693
33.41284,5.822652549633973,0.1500856280699857
33.417427999999994,5.843862182603346,0.14954141215389705
33.422016,5.85446859054887,0.14896615393799104
33.426612,5.8501409273950795,0.14847987841069984
33.4312,5.833699681199064,0.1480180676624417
33.435796,5.803756678656589,0.14763479925003295
33.44037599999999,5.761910560683289,0.14736221673162808
33.44497199999999,5.7234517128891795,0.14692888828789386
33.44956,5.683027670037001,0.14647939801587972
33.454159999999995,5.640394062698461,0.1460310857383229
33.45874799999999,5.593996391406556,0.1455957462245635
33.463356,5.545100644751369,0.14513117620967517
33.467935999999995,5.490764149961668,0.14469884714294803
33.472531999999994,5.434462460113898,0.14424827298065548
33.477124,5.381592181893944,0.1436784325599637
33.48172,5.3283112080829245,0.14307685021314173
33.48632,5.274541495415322,0.14250822516952147
33.490911999999994,5.227967258328902,0.14180956656576651
33.49549999999999,5.183069705423631,0.14108090360473588
33.500096,5.13989297814814,0.14037642914943035
33.504684,5.09410623042696,0.1398249734555441
33.509268,5.050695373354915,0.13930416366162993
33.513856,5.009049483361277,0.13886892919222846
33.518452,4.9768527748838105,0.13835086709843517
33.523044,4.952839259332431,0.13779905387977293
33.527632,4.940973228640166,0.13712021113219452
33.532216,4.935735891406985,0.13642030332392546
33.536804,4.935206194023445,0.1357488672503968
33.5414,4.937463082880104,0.13514272709526626
33.545984,4.947903164662851,0.13451626585565238
33.550571999999995,4.961662712991008,0.13396939458729323
33.555167999999995,4.981562215921665,0.13344862331065024
33.55975599999999,5.006335684864738,0.1329999300929847
33.564344,5.037371293124455,0.13257258973185176
33.568932,5.067639891282412,0.13233318477833741
33.573524,5.1027824554527825,0.1321651977499409
33.57812,5.144798082510526,0.13196704884977045
33.5827,5.194586206903294,0.131735536087534
33.5873,5.25141372034621,0.13152474843201958
33.591888,5.311272189457616,0.13136643884082572
33.596487999999994,5.384255621141302,0.13103327142425164
33.601076,5.458593324312331,0.13076368436036814
33.605675999999995,5.539759948922105,0.13041871537027516
33.610271999999995,5.621092899694655,0.13013521686787355
33.614867999999994,5.706556468563006,0.12983446041583907
33.61945599999999,5.792308548308276,0.12958189762383443
33.624052,5.879370758092261,0.12934674584993983
33.62864,5.964145360124368,0.12917786260411265
33.633239999999994,6.051862634927709,0.12895877424557578
33.637815999999994,6.136881606388108,0.12878752647288344
33.64241199999999,6.224066000886239,0.12856511487914657
33.647,6.315459056745691,0.12826941732621125
33.651596,6.40860684005181,0.12790915852479037
33.656172,6.496846755528623,0.12758478916677668
33.660771999999994,6.585286898985101,0.12719522054843238
33.66535999999999,6.675071074297181,0.12672254418704118
33.669948,6.759414501474745,0.126276884718956
33.674544,6.835496692460705,0.12590479245263184
33.679123999999995,6.904050755539934,0.12554930622422766
33.683716,6.9669977443218745,0.12518026510589458
33.688312,7.0173085093881165,0.12492292476625258
33.692899999999995,7.065321427070741,0.12458220342832019
33.697508,7.104906782398988,0.1242693506686823
33.702096,7.134920771496915,0.12400286295157988
33.7067,7.152787275735731,0.12380839113274114
33.711296,7.164147271229607,0.1236087566668137
33.71588,7.169900192426193,0.12339297428432199
33.720476,7.173521592401936,0.12312848705847144
33.72506799999999,7.170269929490304,0.12287913480336621
33.72966,7.159367953957796,0.1226460217684984
33.734252,7.140937850518556,0.12242152634525387
33.738851999999994,7.110893142525414,0.12227301626499056
33.743432,7.0731981219113935,0.12213770787444407
33.748028,7.037213687295413,0.12189633407571498
33.752624,6.995011254811415,0.12167112410199475
33.75721599999999,6.945324835869315,0.12149214919650575
33.761804,6.898170394107386,0.12124603276779308
33.76639599999999,6.847906953411447,0.12100746500998749
33.770999999999994,6.798254436286238,0.12072863995882446
33.77559599999999,6.7489684733034645,0.12042327743457226
33.78019199999999,6.700826314196628,0.12009233846970294
33.784792,6.652317600947358,0.11977823804756797
33.789384,6.603442333555647,0.11948404171869002
33.793972,6.563927964782852,0.11906791003445996
33.798551999999994,6.526745345210563,0.11864264143919706
33.80314,6.490872855676988,0.1182252140821861
33.807728,6.45733211534392,0.11779842322605184
33.812324,6.424568624744353,0.11736638984111793
33.816916,6.394914133078795,0.11692404976065784
33.821492,6.371844193423691,0.1164421953769
33.826083999999994,6.358956543569633,0.11588598262743445
33.83067199999999,6.3526534457260295,0.11529156506195969
33.83526,6.350525107426856,0.11471593488056292
33.839856,6.3479521717197285,0.11421688965791761
33.844444,6.353396102775915,0.113687485529905
33.849031999999994,6.3653024011284085,0.11313094916903857
33.85362799999999,6.374432352872442,0.11265494901557854
33.858216,6.389369606893428,0.1121455000614972
33.86282,6.405006067382399,0.11168666230797114
33.867411999999995,6.424040037682299,0.11125433820385985
33.87202,6.448348429953941,0.11077880968040371
33.8766,6.475521451731299,0.11031735236930511
33.881192,6.509767764375696,0.10979821603175983
33.88577599999999,6.542259349573425,0.10935117434130177
33.89037999999999,6.583623094533488,0.10883501165166874
33.894968,6.626541338960554,0.10831937388351344
33.899567999999995,6.672690767035775,0.10780100191878306
33.904152,6.717862717397831,0.10734264432120084
33.908744,6.765488601674538,0.10688068448818153
33.913335999999994,6.812870116522955,0.10643910049423456
33.91793199999999,6.849869113590663,0.10611463488795109
33.922532,6.887523175677728,0.10580194364275994
33.927128,6.92860864939261,0.10542992932234285
33.93172,6.96801743892634,0.10506634495554844
33.936311999999994,7.007382087011445,0.10466950975864105
33.9409,7.047479843381422,0.10423925942601162
33.94548399999999,7.088965773055629,0.10377402326365881
33.950076,7.130696072158129,0.10330097171400777
33.954668,7.175979967602591,0.10276337040545373
33.959252,7.220442471864923,0.10219156854222183
33.96384,7.264127726393754,0.10162904762754701
33.968424,7.3066250355980165,0.10105218768334424
33.973004,7.34576897643998,0.10049745117015067
33.977591999999994,7.381681733633788,0.09995193160051642
33.982187999999994,7.40770071190347,0.09948035350390975
33.986776,7.4348634940490905,0.09899314146342232
33.99137999999999,7.457773473384764,0.09852731497859586
33.995968,7.48484797263313,0.09796994731551237
34.000556,7.511511776290429,0.09739928535303591
34.00515599999999,7.536088200175513,0.09681682393481965
34.009747999999995,7.570514261536097,0.09613302794898015
34.01434,7.60015463978152,0.09545423721005372
34.018919999999994,7.624276226626912,0.0948211183152541
34.023515999999994,7.653383724567125,0.0941395477849998
34.028104,7.680570168897897,0.09348296917490266
34.032703999999995,7.704691755743289,0.0928667133238245
34.037291999999994,7.731633830645769,0.09223329718477356
34.04188799999999,7.758698090262394,0.09159962566120174
34.046468,7.783064046536077,0.09098682592370635
34.051064,7.808085067829116,0.09038655237829422
34.05566,7.8332282738362995,0.08978621563519928
34.060252,7.855428807072249,0.08921291409017625
34.064832,7.880449828365288,0.08862600867430928
34.069416,7.907514087981914,0.08802037077632446
34.074008,7.940341508426864,0.08737007255704766
34.078604,7.97329111358596,0.08671997774821597
34.083192,8.006362903459202,0.08606457860312855
34.087784,8.03306060893339,0.08548549151876039
34.092375999999994,8.054894588026903,0.08494660082234418
34.096951999999995,8.080081935482717,0.08440578701726525
34.101552,8.101427175719646,0.08389984427207654
34.10614,8.127802468500027,0.0833884065185735
34.110727999999995,8.156631695195061,0.082877250171354
34.11532,8.179697761061767,0.08241027000175837
34.119907999999995,8.198555165567155,0.08198739474085262
34.12452,8.214469897301308,0.08158679129739257
34.129104,8.228830129568458,0.08118625440512903
34.133708,8.237427201007284,0.08082522050382135
34.138299999999994,8.246801522179611,0.08046759109698855
34.1429,8.251189932257116,0.08015104105835248
34.147496,8.254434538458684,0.07985105339095748
34.152083999999995,8.260621817431485,0.07952917350677739
34.156687999999995,8.26026868584246,0.07924416986939635
34.161275999999994,8.257095066196346,0.07897516857261337
34.165884,8.251756023512499,0.07873031940136253
34.17046,8.24449592721921,0.07849816116347882
34.175059999999995,8.23891251510707,0.07826485106719794
34.17964,8.23819282937561,0.07799842040262053
34.184236,8.242214685310676,0.07770470445645387
34.18881999999999,8.241861553721652,0.07742222791938323
34.193411999999995,8.240608987684979,0.0771434934681161
34.198004,8.235103618838359,0.07686970242592059
34.20259599999999,8.226899946648793,0.07660481281647882
34.207196,8.221761131944609,0.07631413962918457
34.211788,8.219687174725804,0.07599712971568236
34.216376,8.223620747763617,0.07563518112608103
34.22096,8.224000724459467,0.07532029951445361
34.225548,8.232064915593082,0.07496057586967145
34.23014799999999,8.238985302850756,0.07461565166287303
34.234736,8.249092732307956,0.07423951314372014
34.23932799999999,8.256257488993922,0.0738828694941413
34.24392399999999,8.264321680127539,0.0735254698185808
34.248504,8.275084174604096,0.0731591675846382
34.253096,8.289200037442955,0.07279352883666121
34.25767999999999,8.30421533472946,0.07242621417301628
34.262268,8.320130066463612,0.07205759366083211
34.266859999999994,8.336044798197765,0.07169080600751279
34.27144799999999,8.35195952993192,0.07132702282382018
34.276036,8.370694749723164,0.07095501646026131
34.280632,8.389962849819618,0.07059593737965454
34.285216,8.411807068544867,0.07023747982258403
34.289812,8.43532797145127,0.06988000748292506
34.294408,8.466410904081291,0.06949161158366571
34.29899999999999,8.498803966750026,0.0691229469119308
34.30358,8.537082374961232,0.0687259352916118
34.308176,8.573195360134703,0.06835304420321502
34.31275599999999,8.616581864154874,0.0679279826560986
34.317356,8.658946749013253,0.06751648380256861
34.32194,8.702577622461716,0.06709056226914177
34.32653199999999,8.749928418414916,0.06665696905260124
34.33112799999999,8.80046625656764,0.0661992221514716
34.335724,8.84932741053922,0.06574437594886218
34.34032,8.898188564510795,0.06529154498601528
34.344919999999995,8.94627246874887,0.06483883500488682
34.34950799999999,8.995988915719467,0.06435986027275026
34.35410399999999,9.04325142877541,0.06387812088825442
34.358692,9.093823168745025,0.06337368330999402
34.363276,9.142596039819349,0.06287619294618539
34.367864,9.184950685045989,0.06239843652297523
34.37246,9.232657795509887,0.06188426749164242
34.377052,9.27713372232563,0.06136526573250045
34.38164,9.322875637731459,0.06083395456216344
34.386236,9.358845958927306,0.06031571245480535
34.39082,9.390274966436287,0.05977396539712411
34.395416,9.41132145616456,0.05926652730554558
34.400004,9.432856684749412,0.058743167304457666
34.404591999999994,9.44617481859129,0.05823650330858588
34.409195999999994,9.454585084603863,0.057718660101335424
34.41378399999999,9.46119648172114,0.057203736849844485
34.418375999999995,9.460734587971384,0.056692154959434214
34.422968,9.457574390878682,0.05618314769948318
34.427556,9.451471521014744,0.05568460448332748
34.43216399999999,9.442792532522008,0.05518249193453604
34.436764,9.429982925933471,0.054668819276865316
34.441356,9.412065223535963,0.05418095117995834
34.445944,9.394025336424313,0.05369562079193972
34.45054,9.366135811837166,0.05324706194890042
34.455119999999994,9.333749115011777,0.05279840222080235
34.45972,9.297520310967505,0.05235706534685685
34.464308,9.25270785803782,0.051936418972391915
34.468908,9.20303167872746,0.05152749477200472
34.473499999999994,9.14657071942698,0.05113637056763962
34.478092,9.08937665184163,0.05076846210607887
34.482679999999995,9.026585749590726,0.0504394986205003
34.487272,8.964694281787473,0.050105638850305834
34.491871999999994,8.892053742061071,0.04980373588466765
34.496464,8.815737421278563,0.04953720235798704
34.501051999999994,8.73357989640221,0.0493216612628077
34.505647999999994,8.645537025983389,0.04912310090914996
34.510236,8.551120071165515,0.048961794345446806
34.514827999999994,8.450695586091026,0.04882302160397905
34.51941599999999,8.346428993797653,0.04869158999902239
34.524012,8.23717649040946,0.04857803217681913
34.528603999999994,8.124370390679301,0.048497555690169385
34.533184,8.00580113012082,0.048430971002053985
34.537775999999994,7.882123773753372,0.048389446145307324
34.542356,7.758446417385923,0.048345805388979056
34.546932,7.63235926855245,0.04832750645659027
34.551528,7.504106696681243,0.04832567399599887
34.556116,7.374343766791662,0.04835029991820981
34.56072399999999,7.244092098045495,0.04839713303290276
34.565312,7.115639298194627,0.04844021785191597
34.5699,6.988330302219698,0.04846951495736497
34.574496,6.866906651787238,0.048472339597018625
34.579083999999995,6.743195393602899,0.04849793031892837
34.583687999999995,6.622959688495007,0.04853150610217954
34.58827599999999,6.503212722243697,0.04853991372613764
34.59287199999999,6.382810690973031,0.04854022419032024
34.59746,6.26114267111228,0.04856243627859219
34.602059999999994,6.145237812079852,0.04856533962125896
34.60664799999999,6.029088583619133,0.048585459327707047
34.611248,5.913716604891919,0.04861199791814836
34.61584,5.800143495059997,0.04863918398098148
34.620431999999994,5.686692569942222,0.048661205406485844
34.625015999999995,5.576961567329185,0.04867428752470435
34.629608,5.467474934144439,0.04867212416776455
34.634207999999994,5.355945062636105,0.04868677214506256
34.638791999999995,5.249278917508447,0.04867479781488115
34.643376,5.144533825990232,0.04865586948015841
34.647968,5.039011484738513,0.04863006318329934
34.652548,4.930668655429705,0.04861928054741957
34.65714,4.819138783921372,0.048646274473303976
34.66173199999999,4.704544054927658,0.0487013436442065
