Time,Force,Position
33.869948,3.3172857209056756,0.049184812345017925
33.874544,3.2425443788536477,0.049050439636191795
33.879144,3.166903602353972,0.04891391158315345
33.88374,3.087831414226479,0.04886953694557073
33.888316,2.9973550891564833,0.04892589737971342
33.892916,2.902914472153459,0.0490417739214693
33.897504,2.8067971709692845,0.049144542639720755
33.902103999999994,2.7046723395284946,0.049338964153673844
33.906687999999995,2.5920428055928495,0.049661513151240094
33.911288,2.475693349152468,0.049998479215296335
33.915879999999994,2.358200088836147,0.05041524755027956
33.920476,2.2399295787863234,0.050869429953453074
33.925059999999995,2.1161402773364677,0.05145694030452832
33.929652,1.9901855528488794,0.0490644399128737
33.93424,1.8638642742188536,0.04667216190182275
33.938835999999995,1.7375429955888282,0.044266446815811204
33.943424,1.6140422050158918,0.041846114110080816
33.94802,1.4954051408236317,0.039394452718424504
33.952608,1.380365814421963,0.03694028891794748
33.957192,1.264182684144355,0.03450087665550309
33.96178,1.1511865960662735,0.03202565551879006
33.966364,1.0377017691316093,0.02958288751218138
33.970956,0.9267930608257426,0.02713804273832693
33.975544,0.8198517425003763,0.024631632122247303
33.98014,0.7240701916892213,0.0220471590845454
33.98472,0.6356063011733945,0.019423689311830788
33.989307999999994,0.5524168326293093,0.016811149474498892
33.99392,0.47564558993290484,0.014153499437483447
33.998504,0.40721362669362227,0.01140316729889314
34.003091999999995,0.3431566509784333,0.008661516262022514
34.007687999999995,0.28461846666327706,0.005851812486613142
34.012276,0.2323763234816558,0.0029926181485247037
34.016872,0.18835127504301086,0.0
34.02146,0.14996720271854438,0.0
34.026056,0.11734629122240203,0.0
34.030635999999994,0.09114360557394033,0.0
34.035236,0.06853865771607001,0.0
34.039815999999995,0.050183414620675965,0.0
34.044416,0.0328528887345471,0.0
34.049,0.020915871486833684,0.0
34.053596,0.010658636467741955,0.0
34.05818,0.006039279515357029,0.0
34.062776,0.007183083391296222,0.0
34.067376,0.015885818943383596,0.0
34.071971999999995,0.028430661714353718,0.0
34.076547999999995,0.04379599254241306,0.0
34.081136,0.055563585579881,0.0
34.085724,0.0682306130649968,0.0
34.09032,0.08077545583596692,0.0
34.094908,0.08935600667390863,0.0
34.0995,0.09703712306420247,0.0
34.104096,0.10471823945449632,0.0
34.108676,0.1104783022353488,0.0
34.113268,0.11713779946384914,0.0
34.117856,0.11917793973996453,0.0
34.122448,0.12146244944437126,0.0
34.127044,0.12644526249172158,0.0
34.131632,0.12607870834928456,0.0
34.136236,0.1349138682472564,0.0
34.140823999999995,0.14580560414802568,0.0
34.145412,0.16402214192839062,0.0
34.150008,0.1874042546455617,0.0
34.154604,0.21443848623369116,0.0
34.1592,0.24626864056871814,0.010221106129991928
34.163792,0.28265034822235136,0.020255272833555098
34.168388,0.3246052283563842,0.030157248900346052
34.172964,0.3844368523609673,0.03923523963379254
34.177564,0.454827559940772,0.047996580744564886
34.182144,0.5347557319340048,0.05669859311106353
34.186744,0.6326828325119336,0.06506132201982599
34.191336,0.7408024625226467,0.07343344938292203
34.195932,0.8602584258420839,0.081684531858824
34.200528,0.9884746038414469,0.09002742546206598
34.20512,1.126350430968384,0.09828362068121976
34.209708,1.279160329194636,0.10650107948015933
34.214308,1.4392200840824378,0.11479802930144495
34.218896,1.6032985119836352,0.12318252366432
34.223492,1.7815676630675348,0.1314146781178576
34.228084,1.9602033682938713,0.13950166844607928
34.232672,2.1397724097847455,0.14754236947649227
34.23726,2.3160219847302086,0.1555216182049945
34.241851999999994,2.489807386129281,0.16339950521709973
34.246444,2.6580196150479534,0.17123876447307515
34.251036,2.817715998714991,0.1688049351269667
34.255624,2.971184144882272,0.16646937385867963
34.260212,3.116625184654502,0.16422545606021094
34.264804,3.2468877838991257,0.16282895612573567
34.269392,3.3632379312062266,0.16179312052555336
34.273984,3.467474495471102,0.16088967769012205
34.27858,3.557920792512602,0.16029756579999654
34.283168,3.6400956137307583,0.1596577646907625
34.287755999999995,3.7108119169260454,0.15915288028071803
34.292352,3.779841296308443,0.15844109484938645
34.29694,3.842686579639713,0.15771572239280024
34.301536,3.899469951634,0.15694574158873936
34.306116,3.951990281186601,0.15604957254942753
34.31072,4.002945871640458,0.15496775636720184
34.3153,4.048416572511172,0.1539565785093265
34.3199,4.086036732781347,0.1531547065337307
34.324487999999995,4.125455761946817,0.15233572485912533
34.329088,4.165163301989207,0.15157720988382906
34.333684,4.20503716819437,0.15089655683888425
34.338283999999994,4.2475312944769605,0.15024284254175682
34.342868,4.292279126694539,0.1496516190345151
34.34746,4.335316372914079,0.14923398037998864
34.352052,4.381262390087964,0.14887674973704368
34.356648,4.434203654863367,0.14845274383926518
34.361236,4.49557248199315,0.14795368869478343
34.365835999999994,4.567001414209834,0.14729586485520538
34.370424,4.643260170990304,0.1466545340213367
34.375012,4.7254925562105,0.1460006291844182
34.3796,4.813043504851065,0.14531365407030367
34.3842,4.897940291597315,0.14476675994937763
34.388788,4.980960166182753,0.1443447123814873
34.393376,5.065290170806903,0.14395991522055818
34.397956,5.151829739917415,0.1435862382586885
34.402536,5.234815712685962,0.14334841227706338
34.407132,5.313715208807338,0.1432260044924692
34.411724,5.395557377699948,0.1430278176005079
34.416312,5.4760894165538465,0.1428424144610932
34.420904,5.559031247873769,0.1425910882096901
34.425484,5.6420952639078354,0.14234053026182697
34.43008,5.724748584350838,0.14207570654064156
34.43468,5.806580513611711,0.1417711359544115
34.439271999999995,5.892576962785276,0.14131272267505454
34.443864,5.980939062976235,0.14074800118877095
34.448443999999995,6.064226969175117,0.1402073265566278
34.453044,6.143706669972005,0.1396517546347088
34.457624,6.216068938453229,0.13916652829052076
34.462228,6.281025263741866,0.13870354363113918
34.466812,6.337554026676126,0.13829092847736232
34.471416,6.389741703903182,0.13784330461872404
34.476008,6.440530968194268,0.13730139701263716
34.480599999999995,6.4878785812257975,0.13670312614788913
34.48518,6.527698066350596,0.13613761414989062
34.489776,6.557535489654012,0.1356196349788062
34.494364,6.5860966847356055,0.1349967875326501
34.498956,6.613137282167082,0.13428403839956768
34.503547999999995,6.636369674196564,0.13354213247035748
34.508132,6.651707384176879,0.13284998483599042
34.512719999999995,6.6577180973551675,0.13220793241789436
34.51732,6.654523998445575,0.13160166786772032
34.521908,6.644945575505192,0.13098768727844548
34.5265,6.6254292321920545,0.1304556962574908
34.531096,6.595852783792015,0.13001548398839827
34.535684,6.553395742247988,0.12970987362603703
34.540284,6.508440625340681,0.12937246628103696
34.544872,6.458455455889923,0.12907701033161983
34.549468,6.407282341114598,0.12875924486751222
34.55406,6.3565979651958555,0.1284049862576073
34.558651999999995,6.306524512847838,0.1280040266883758
34.563244,6.251709518833293,0.12767339563759625
34.567832,6.1926858634574256,0.1274252769042856
34.57242,6.133417838653267,0.12718799831966843
34.577008,6.072883825259024,0.1269867232699515
34.581599999999995,6.015458810798788,0.1267709457627555
34.586192,5.9569341339112425,0.12662570854300034
34.590771999999994,5.896165990720447,0.12658508531642046
34.595372,5.837607412016012,0.12653426456401617
34.599964,5.781913462817295,0.12648775151890945
34.604552,5.730516457877153,0.1264451474325407
34.609144,5.68725850441447,0.12634194542534377
34.61374,5.65062924441087,0.12623196184292523
34.618323999999994,5.624837339227672,0.12602977373553295
34.62292,5.60808391996958,0.12575730961544543
34.627516,5.603966724427187,0.12536775391114074
34.632104,5.601614495963202,0.12506166556146633
34.6367,5.601882527576641,0.12477705530354354
34.641292,5.603749200105713,0.124536183610021
34.64588,5.615675977721685,0.12421254881125746
34.650468,5.631899699596236,0.1239018332097607
34.655055999999995,5.656262472948244,0.12353939950852104
34.659648,5.686843244168271,0.12315546145556872
34.664232,5.720821525199227,0.12279444895318965
34.66882,5.762283792688284,0.12237681030588005
34.673404,5.812007296368945,0.1219076897618999
34.677983999999995,5.8640625492501135,0.12143164659961465
34.682576,5.927155384931348,0.1208165411410289
34.687172,5.992091230956506,0.12023910249928206
34.691759999999995,6.060258260629819,0.11964654462343831
34.696364,6.132023028093722,0.11902360707405939
34.700952,6.206486098900569,0.1183906216141931
34.705555999999994,6.279150300812121,0.11778873233900311
34.710152,6.35385774104726,0.11717090763968974
34.714735999999995,6.428687365996544,0.11656223760702776
34.719331999999994,6.499797068441091,0.11601390849673375
34.723928,6.574460367227601,0.11538922675440728
34.72852,6.654886826842436,0.11469603737761505
34.733107999999994,6.739277578390298,0.11395432583424202
34.737704,6.8145518007475365,0.1133281845435346
34.742284,6.889048773371274,0.11271513321364138
34.746888,6.962890680975657,0.11210989606240304
34.751476,7.036566262417265,0.11147970382793954
34.756063999999995,7.113795440200836,0.11078882780978908
34.760656,7.189059422926339,0.11009408084703022
34.765252,7.2608037111267665,0.10940357774827207
34.769859999999994,7.335857226240865,0.10866764618212149
34.774456,7.40293801604028,0.1080102543755626
34.779044,7.4660103724580384,0.10736615027133427
34.78364,7.532880694646051,0.10665643384342403
34.788228,7.595498214024116,0.10597813211885747
34.792812,7.653985115306378,0.1053280714933119
34.7974,7.711161886549928,0.10466967645510486
34.802,7.7642080396976745,0.10403760738679149
34.806588,7.813900824483122,0.10342623709853786
34.81118,7.864326717553441,0.10278349751089366
34.815776,7.914341915032695,0.10213426835577238
34.820364,7.960470863844443,0.10149654658179075
34.824956,8.00169194482688,0.10087780431419038
34.829544,8.04610006800885,0.10021923151001175
34.834128,8.084578704199714,0.09958465416757098
34.838712,8.121336514760802,0.09892741071878851
34.8433,8.154985326387882,0.09827423312705146
34.847888,8.183481900757366,0.09765149695956277
34.852476,8.209402356498051,0.09704306696501605
34.857063999999994,8.229026771105202,0.09647486458641233
34.86166,8.240800645111813,0.09594589724606117
34.866248,8.250120585203772,0.09542022167699313
34.870852,8.262749752209404,0.094850928910055
34.87544,8.265895835881972,0.09436018981569734
34.88004,8.267853974229975,0.09385028681392672
34.88462,8.266214374787385,0.09336039916585392
34.889224,8.264941329487234,0.09285359340747659
34.893812,8.259293296662987,0.09236494982532731
34.898412,8.252090764371736,0.09187383695199977
34.902992,8.241412679004043,0.09139671117663954
34.907588,8.223294748626873,0.09096889457419352
34.912175999999995,8.202356330192615,0.09056007997973956
34.916771999999995,8.180396292596564,0.09016001251157853
34.921364,8.154061267476418,0.08977633145939394
34.925956,8.133733772612889,0.08933402703870066
34.930544,8.106377128330948,0.08895606484963324
34.935128,8.07787668017307,0.08859208668022053
34.939708,8.043735255901014,0.08826445006562524
34.944303999999995,8.00947164691481,0.08794051792340318
34.948896,7.9779063412715505,0.08760023826502036
34.953475999999995,7.948917154257091,0.08724975063465772
34.958068,7.923647889747367,0.08687374809407493
34.962656,7.895558137180554,0.08651548984928628
34.967248,7.869145068794893,0.08615211234190628
34.971844,7.844042130447944,0.08580170548893408
34.976432,7.821637495443939,0.0854366016638243
34.981027999999995,7.798744121583351,0.08509411454648749
34.985616,7.782801853875655,0.08472906867577926
34.990204,7.769191335368464,0.08436843141806993
34.9948,7.754725523862254,0.08404732067207332
34.999392,7.7442681457377,0.08372736845072472
35.003996,7.736919766547156,0.08341436861936337
35.008592,7.733702005452412,0.08309894590918705
35.013188,7.733471058577533,0.08279615476084035
35.017772,7.730341580380046,0.0825550160525174
35.022372,7.736084261944893,0.08227944957224799
35.026951999999994,7.749799668824425,0.08197696120036797
35.031552,7.772265050752143,0.08164697355715891
35.036136,7.799760485223313,0.08131438875952637
35.040732,7.831019983647846,0.08100001876826558
35.04532,7.868331153777624,0.08067529847983405
35.049912,7.905031400336674,0.08038173077013101
35.0545,7.943041776934436,0.08010553781481256
35.059096,7.98824762911338,0.07980402529216342
35.063683999999995,8.035785230492833,0.07951154553772061
35.068268,8.084632961910996,0.07923713837715887
35.072855999999994,8.134257943062666,0.07896653197902741
35.077444,8.179918632281304,0.07872938511617365
35.08204,8.228277624842885,0.07848583879829142
35.086636,8.282521962946936,0.07820197004835881
35.091232,8.339953343250514,0.07788944184653354
35.095808,8.397629092982383,0.07756989980763485
35.1004,8.455671396856689,0.07723953676983566
35.104992,8.516001308482872,0.07688531432934731
35.109584,8.57849664314679,0.07651037550989274
35.11418,8.64148071666729,0.07612172720301093
35.118768,8.695348260997168,0.07577255241853263
35.123376,8.747905675288331,0.07541365527164194
35.127964,8.794655787302542,0.07505738820418842
35.132556,8.838663454525182,0.07467956949154934
35.137152,8.874820581147283,0.07431915173674092
35.14174,8.911710816054256,0.0739304856943343
35.146336,8.947945985941873,0.07353578631073075
35.150928,8.97747441910489,0.07314530009734829
35.155524,9.002217169152747,0.0727456724232469
35.160112,9.023850920266598,0.07233653819166981
35.1647,9.04429672605588,0.07190829385789899
35.169287999999995,9.065720009558328,0.0714411037408518
35.173896,9.07941493717438,0.07098092781495355
35.178487999999994,9.088857061980486,0.07052489972701315
35.183084,9.097521937053092,0.07006957400029125
35.187676,9.101934009315746,0.06961569738905923
35.192272,9.100050040444868,0.06917710438679711
35.196867999999995,9.091092780706953,0.06874997996503104
35.20146,9.079026522035027,0.06831139102097054
35.206052,9.05784373417248,0.06789701208885478
35.210636,9.039070738775955,0.06745189432979848
35.215224,9.01694437501713,0.06700406189638075
35.21982,8.99751631460125,0.06654961483750126
35.224408,8.976045015861779,0.06610738225775403
35.228995999999995,8.958538009055339,0.06564185622662726
35.23358,8.940253752515396,0.06517315175050062
35.238172,8.919515562060802,0.0646980674002843
35.242768,8.897755752444414,0.06422678654013181
35.247356,8.87509650838038,0.06375348347896367
35.251952,8.852559449030487,0.06327292540865079
35.25654,8.829778020252306,0.06280075496066086
35.261128,8.8045867990081,0.062354637571460106
35.265736,8.78683542277337,0.061885575689792416
35.270323999999995,8.769206231252783,0.061410314107892376
35.274919999999995,8.747202052208104,0.060935866728355055
35.2795,8.727773991792223,0.0604606645350759
35.284088,8.71308747304287,0.05996768177425337
35.288684,8.706618049036496,0.05945853478231355
35.293271999999995,8.701048059477769,0.05894713723989097
35.297867999999994,8.700097426871427,0.05842202287322859
35.302448,8.696859186513207,0.05791731680368009
35.307047999999995,8.694153826460198,0.05742545301882703
35.311636,8.686706924740657,0.056947245642722806
35.31624,8.679260023021117,0.05646728512481857
35.320832,8.670424947997347,0.05600869058841063
35.325419999999994,8.658280646059906,0.05557602854484068
35.330012,8.649734081913051,0.05513926532818057
35.334608,8.642742017233207,0.05470920427366369
35.339203999999995,8.641024374525102,0.05427911657061046
35.343796,8.640861231284,0.0538570784167264
35.348388,8.640575903328756,0.05343951698518686
35.352984,8.638369521764067,0.053025834454591116
35.357572,8.630932859676268,0.052645555193136254
35.362156,8.622108024284236,0.05228454756317162
35.366747999999994,8.614593318930917,0.05194091618504591
35.371328,8.604380310234655,0.05159762874257898
35.375924,8.588937021015278,0.05128521368595948
35.380516,8.564787898196343,0.05100050906378225
35.385112,8.537329548463738,0.05073965573492824
35.389692,8.507461406265106,0.050502806317116414
35.394284,8.479147763533481,0.05027384847348801
35.398875999999994,8.44842432833583,0.05006934221498683
35.403464,8.418355958157537,0.049872608968778945
35.408072,8.38702159938916,0.04968962082940688
35.412659999999995,8.349024645344809,0.04952187596609048
35.417264,8.31180494103396,0.049357554080198485
35.421851999999994,8.267556087304703,0.0492240648256989
35.426455999999995,8.221386179966004,0.04909426815853371
35.431048,8.168309307923042,0.048990464966830224
35.435635999999995,8.111390328661198,0.04889597055504865
35.440231999999995,8.051528676628116,0.04881045207602944
35.444824,7.990645405433243,0.04872840377448741
35.449424,7.921422854781248,0.04865702566961675
35.454004,7.8493798160721635,0.04858943883270677
35.458608,7.767853694030018,0.048544122124117045
35.463196,7.680075672302966,0.048537698930632936
35.467796,7.590498781680617,0.04853153933050832
35.472384,7.498878652734683,0.04853727294081492
35.476983999999995,7.4044380357316575,0.04854872163768498
35.481576,7.307421300099836,0.048554012519888154
35.486168,7.202964719458539,0.0485725053336029
35.490756,7.094377520721441,0.048572607916494724
35.495352,6.981048780317812,0.048585948809786034
35.499939999999995,6.862978498247653,0.04861302399964368
35.504535999999995,6.7438865970157,0.04864880209056743
35.509124,6.615311612450684,0.04871657125526316
35.513707999999994,6.48313889009508,0.04879015254611312
35.5183,6.345858071930506,0.048903292616752525
35.52288,6.205223885403632,0.04900627930418812
