Time,Force,Position
33.667407999999995,1.1511603602154976,0.01606321917563412
33.671988,1.0968277392141896,0.01457417795594279
33.676587999999995,1.034444349632679,0.013156166862628526
33.681184,0.9716944059087314,0.011814732576965
33.685776000000004,0.9081672124512816,0.010460387107115079
33.690372,0.8475826917650668,0.009140838986489777
33.694964,0.7953374505359739,0.007886858599241825
33.699563999999995,0.7450132629163223,0.006663688712855047
33.70416,0.7029061700396471,0.0055438742157747425
33.708748,0.6690161719059484,0.004543898346341489
33.71334399999999,0.6388460962769865,0.0036126754079703147
33.717924,0.617259669533438,0.0027645516294745962
33.722511999999995,0.5987381002752701,0.0019164278509788784
33.72709999999999,0.579483422732228,0.0012460020320693556
33.731696,0.5632936026745667,0.000588658899527586
33.736279999999994,0.5508237051216425,0.0
33.74086799999999,0.5432175339493945,0.0
33.745464,0.5372880469582966,0.0
33.750052,0.5339346785959965,0.0
33.754644,0.5335239830049314,0.0
33.75922799999999,0.5332354721280119,0.0
33.76381599999999,0.5339685804128859,0.0
33.768412,0.5394432303642906,0.0
33.773004,0.5487599875345779,0.0
33.777608,0.5637177208190438,0.0
33.7822,0.5793305191228661,0.0
33.786788,0.5891801565983643,0.0
33.791383999999994,0.5989076093597169,0.0
33.795964,0.6069583779399194,0.0
33.800560000000004,0.6111670393012391,0.0
33.805148,0.6143540815007653,0.0
33.809736,0.6117779628719674,0.0
33.814319999999995,0.6020505101106148,0.0
33.81891999999999,0.5982084028917322,0.0
33.823504,0.5932224917969102,0.0
33.828108,0.5882365807020883,0.0
33.832688000000005,0.5783869432265901,0.0
33.837284,0.5685373057510918,0.0
33.841871999999995,0.5577882338279457,0.0
33.846464,0.5516585188571848,0.0
33.85104799999999,0.5433633808486908,0.0
33.855632,0.5368671117354926,0.0
33.86022,0.5324140809458817,0.0
33.864824,0.5227307696331572,0.0
33.869416,0.5085163842653042,0.0
33.873999999999995,0.5004419534999511,0.0
33.878592,0.5013279653941871,0.0
33.88318,0.5135061691485189,0.00432160425167352
33.887764000000004,0.5326457186874809,0.009397020765122202
33.89235599999999,0.5597682331728666,0.01504647102356998
33.896944000000005,0.5992487001287697,0.020845199789855058
33.901548000000005,0.6535410534698424,0.02684220301180733
33.906136000000004,0.7264874004149675,0.03290507205866568
33.910724,0.805173246003266,0.03930064237901984
33.915308,0.8999811080154472,0.045787341843760446
33.919895999999994,1.0051478256231867,0.05245303186872668
33.924488,1.124393321331222,0.05926892896985621
33.92908,1.2551414765107547,0.0661777209633692
33.933676000000006,1.3946939878188416,0.07321750627848991
33.938256,1.5370433249988673,0.08047165176683344
33.942852,1.6929385599739775,0.08775156244594887
33.947444000000004,1.859192650544646,0.0951048361702678
33.952044,2.0386260847679627,0.10243161948648649
33.956627999999995,2.236058447575975,0.10970647658614448
33.961224,2.450335695461005,0.11682825779640986
33.965816000000004,2.6666561816696226,0.1239399978151581
33.97040799999999,2.8782351262117087,0.13116170396213836
33.975008,3.0846176920475714,0.1340650117319775
33.979608,3.2909119749861784,0.1361729117905153
33.9842,3.4959300297029623,0.1376424313250267
33.988792000000004,3.687734838950207,0.13903476615630708
33.99338,3.867958945460441,0.14025349205793566
33.997968,4.0330826547085845,0.14139202457961295
34.002544,4.187314628055958,0.14220018318652172
34.00713999999999,4.331143604359144,0.1427855622821448
34.011724,4.4624041605804114,0.14318329968247426
34.016304000000005,4.583794600062704,0.14337403525611223
34.02089599999999,4.694826183949435,0.14343586028895813
34.025488,4.7963983466882585,0.14334651290917003
34.030075999999994,4.890021446297547,0.143018023222457
34.034672,4.969810137234831,0.14266455278570817
34.03926,5.037929842537841,0.14221272404158958
34.043848,5.091315704721202,0.1417724649076574
34.048432000000005,5.130378419375974,0.14136914990800192
34.053020000000004,5.156472257989503,0.14107311528467265
34.057616,5.1778143153047615,0.14070681880275018
34.062212,5.202333175187807,0.1400796474687711
34.066804000000005,5.224964883278302,0.1393829422318067
34.071392,5.242888951519154,0.13867603853050067
34.075987999999995,5.254350652463697,0.13803744506613919
34.080572000000004,5.266134766102049,0.13731161374395562
34.085179999999994,5.280817411063005,0.1364739121692053
34.089776,5.293867513291438,0.13570527122224968
34.09437199999999,5.308227745558587,0.13494380894750768
34.098968,5.318667827341335,0.13433303474416286
34.10356399999999,5.333238527219885,0.13368156411185556
34.108144,5.3482199226895,0.1330607705967172
34.112731999999994,5.365899621502059,0.13240639526735354
34.11731999999999,5.387054873391062,0.1317135113041981
34.12192,5.413117993109371,0.13098525238821457
34.126508,5.4431895462093385,0.13022977830358426
34.131091999999995,5.475226294367374,0.12949356582331628
34.135679999999994,5.510249856745274,0.1287551369283054
34.140276,5.551980155847771,0.12796179474096633
34.144868,5.592732977237104,0.1272454364523961
34.149456,5.634307189808567,0.12659064336214335
34.154048,5.671594697753191,0.12610663133012362
34.158636,5.7076603585563594,0.1257169687848706
34.163231999999994,5.744425225827515,0.125387703241272
34.16781999999999,5.785076341766178,0.12504396401700213
34.172408000000004,5.829369336944063,0.12470506590211074
34.177015999999995,5.869497812209257,0.12451010485654901
34.181596,5.918742816665075,0.12419159201302231
34.1862,5.976204915863872,0.12377229502224493
34.19079599999999,6.035343699243816,0.12333724890536321
34.19539999999999,6.094770993500681,0.12294285259079506
34.199991999999995,6.155630602510406,0.12255852281107989
34.204584,6.213836049625815,0.12226206608801934
34.209176,6.269753888989347,0.12202751238856745
34.21377199999999,6.325427358924586,0.12182049364403413
34.21838,6.379301959964531,0.12163788064694929
34.222967999999995,6.432399311270973,0.12145898543343926
34.227571999999995,6.481121675053322,0.12132336302775985
34.232152,6.523303628273842,0.1212797779074034
34.236752,6.568261928102827,0.12115472006617638
34.241336000000004,6.611910097893096,0.1210226220966247
34.245936,6.653593072625297,0.12087258989015824
34.250519999999995,6.6966200792131,0.12064011761850062
34.255112,6.738825694618773,0.12036852869257197
34.259704,6.777511615499372,0.1200876589688055
34.26429999999999,6.812677841854898,0.11979725478227639
34.268888000000004,6.8494324694943165,0.11940718604317539
34.273484,6.874328123151539,0.11910986262294944
34.278071999999995,6.887897683131774,0.11891770737624764
34.282664,6.896803744710999,0.11873641775830908
34.287256,6.903333915641087,0.1185195332416471
34.291844,6.905567142312599,0.11829238838783569
34.296432,6.903869978867971,0.11803094983757198
34.301024,6.897753686450622,0.1177650043045389
34.305620000000005,6.884519961717608,0.1175228012250133
34.310199999999995,6.866622738583581,0.11729042373504824
34.314792,6.8507246123245125,0.11698102924041191
34.319379999999995,6.838746636549844,0.11656897461764767
34.323972,6.823615520392539,0.11611809715305707
34.328568000000004,6.803454351691782,0.1156981990616837
34.333156,6.781083618504664,0.11527478057970007
34.337751999999995,6.7601010586217765,0.1148115184414318
34.342348,6.733477522624709,0.11441421518337658
34.346936,6.703500618265343,0.11403505837944374
34.35153199999999,6.673645898620121,0.11364587708690824
34.356132,6.648654905355575,0.11318954820344578
34.360724000000005,6.623419542662739,0.1127459983962913
34.365303999999995,6.605379655551087,0.11223245467967065
34.369912,6.592980744553612,0.11165220502530304
34.3745,6.587122244117964,0.11099820990458771
34.379099999999994,6.579098320644583,0.11038165112171444
34.38368,6.573283961657562,0.10976931173685678
34.388284,6.5751979585569345,0.10910759160499288
34.392872,6.580220954390318,0.10844001233327594
34.39747199999999,6.589130198891209,0.1077670645525985
34.402056,6.606789418440289,0.1070303339772291
34.406648000000004,6.618729618609672,0.10640744907840341
34.41123999999999,6.62830416776166,0.10588233357642936
34.415824,6.6448739645151695,0.10535299443614801
34.420416,6.663941836631958,0.10485704353279353
34.425004,6.684319838787459,0.10437647558167369
34.429592,6.7058857862675305,0.10392009361383633
34.43418799999999,6.73812276240523,0.10338513286321856
34.438776000000004,6.775023236943942,0.10284986487292272
34.443372,6.815443406007728,0.10233887953443563
34.447968,6.850921805425321,0.10194153515887908
34.452560000000005,6.8902864535104245,0.10154913685515794
34.457151999999994,6.929817427758301,0.10119711948961158
34.461732,6.968615293721304,0.100891999748004
34.466328000000004,7.006557866685288,0.1006409246166578
34.470916,7.05235098024981,0.10034806785332995
34.475504,7.09765535495775,0.10008404057562531
34.48009999999999,7.140427752485521,0.09988030929438971
34.48468799999999,7.188596756699177,0.09964275179043171
34.489288,7.238442445093984,0.09940245630794144
34.493883999999994,7.283957287413327,0.0992309084229036
34.49847199999999,7.338955213065731,0.09897362743543654
34.50307599999999,7.3982839847936,0.09865570857477321
34.507667999999995,7.456957691502112,0.09833702261865503
34.512264,7.518940625124296,0.09797193786309627
34.516852,7.581700808479982,0.09761063709854978
34.521452,7.642906492368666,0.09725146175815744
34.526032,7.69679451596202,0.09695353304050669
34.530632,7.749250224802517,0.09665174380011583
34.535224,7.800762357746738,0.09632269246595096
34.539816,7.852108164528184,0.09596037151925184
34.544411999999994,7.897646669032678,0.09561571771781038
34.54899999999999,7.94493990098384,0.09522909514515517
34.553591999999995,7.993743490953379,0.09481187228757595
34.558184,8.040826255293139,0.09436649894851769
34.56278399999999,8.079159044584712,0.09396642097206001
34.567376,8.116426073265862,0.09354155705402438
34.571963999999994,8.150051222707793,0.09310251943204334
34.576556,8.17876850432042,0.09267626295996378
34.581136,8.201678483656094,0.09226197265529491
34.585716000000005,8.228630798190315,0.09177260375470343
34.590312,8.246833137676346,0.09132441208007899
34.594904,8.26168210880008,0.09088756330572076
34.59949999999999,8.271745396808653,0.09045115250990632
34.604084,8.276001382540274,0.0900256207914174
34.60867999999999,8.277270554052032,0.08959016080942678
34.61326,8.278661910277933,0.08914935123450117
34.617844000000005,8.276822082855684,0.08870784407586
34.62244,8.27277269094707,0.08825679829316248
34.627028,8.265125561247865,0.087823739963863
34.63162,8.260665473748185,0.08735536301086728
34.636212,8.259148059019742,0.08686249467633207
34.6408,8.251212418443616,0.0864060558972125
34.645396000000005,8.23608130228631,0.08598236422870661
34.649975999999995,8.21968419753892,0.08557903094304416
34.654572,8.205085961686823,0.08516566614357164
34.65915199999999,8.190732095263018,0.08473979796534212
34.663752,8.177155478572717,0.0843140399959384
34.668344000000005,8.161535623558827,0.08390661524983715
34.672944,8.15143455994497,0.08346851302569434
34.677527999999995,8.132383293303265,0.08310486931689903
34.682124,8.117051949166296,0.08271874893897779
34.686712,8.101476235601034,0.08234354705606871
34.6913,8.089908955417432,0.08197130693334789
34.695888,8.081450674167836,0.08160578485554137
34.700484,8.0744247076711,0.08124902890944638
34.705072,8.071363033107394,0.08086246247113038
34.709655999999995,8.07459739967722,0.08045072448702391
34.714248,8.082084569056997,0.08003388634026336
34.718844000000004,8.092392226493862,0.07960161592016446
34.72343599999999,8.097713972835903,0.07920923685267955
34.728032,8.09984867697842,0.07884934492890762
34.732628000000005,8.105336749483236,0.07848676221852066
34.737216000000004,8.119819166464533,0.07809182531976183
34.7418,8.136100452341124,0.07769127620446506
34.74638,8.155324410988948,0.0772718726534754
34.75095999999999,8.181499475789666,0.07684350276543983
34.755556,8.21192734340033,0.0764137561332705
34.76013999999999,8.246075133515731,0.07596827224192945
34.764728000000005,8.281899607812283,0.07552844086676792
34.76931999999999,8.327451534870189,0.07502964156145689
34.773916,8.37083803889036,0.07455523453709413
34.77852,8.416145596519973,0.07407356239292966
34.78311599999999,8.460920273844375,0.0735831403712473
34.78771999999999,8.504917701435275,0.07309254400702998
34.79230799999999,8.549281683168612,0.07258847414757306
34.796904,8.587882504073624,0.07212029305095492
34.801492,8.624684456083344,0.07166201328195256
34.80609199999999,8.660586973645412,0.07121139581330735
34.810680000000005,8.694324068169749,0.07078307547982364
34.81528,8.734845942684204,0.07032020125065941
34.819872000000004,8.779332109131687,0.06983400872530847
34.82446,8.825206448883401,0.06932951471737867
34.829048,8.863885313053931,0.0688468767866872
34.83364,8.902930731366899,0.06835281457962424
34.83824,8.941976149679867,0.06786407246918914
34.842832,8.973948277125798,0.0673925842337986
34.84742,9.001012536742424,0.0669160162913698
34.852008,9.029220600234988,0.0664325274595832
34.8566,9.051010437879874,0.06596893420210283
34.861188,9.065893310820494,0.06554533993726307
34.865776,9.084984845122436,0.06509268892210686
34.870368,9.10342131440502,0.06463511285621541
34.87496399999999,9.11891511091637,0.06419285682089354
34.879552000000004,9.135552711303658,0.06374099073276562
34.884136,9.153089746138594,0.06328954797699837
34.888724,9.173691638458912,0.0628201654012352
34.893316,9.195315149941022,0.06234758740896117
34.897912000000005,9.212319304470748,0.06188753595151508
34.9025,9.229567828428765,0.06141790867492306
34.907096,9.24411804904384,0.06095643771681907
34.911683999999994,9.257235954906053,0.06048580179672351
34.91627199999999,9.262914015758794,0.06003361681439848
34.92087599999999,9.271290379954479,0.05957727410780876
34.925464000000005,9.277623505826579,0.05913360234168914
34.93006,9.280114524479792,0.058704367531376124
34.93464,9.280684489523567,0.05828085913679061
34.939235999999994,9.280887900424903,0.05787031264587187
34.94382399999999,9.278393007983292,0.057464484508728444
34.948424,9.277819169151128,0.057050840452856036
34.953012,9.282475610842077,0.05660575586375308
34.957616,9.284433749190079,0.05616556218846262
34.962204,9.28140597644326,0.05574703177083798
34.966792,9.282464680343617,0.055307502867904576
34.971384,9.282868319224615,0.05486062753175274
34.97597999999999,9.283271958105614,0.054415222625243787
34.980576,9.280732924215378,0.053980880450606665
34.985176,9.27075404531567,0.053558737112690345
34.989768,9.262818404739548,0.05312482721003795
34.99436,9.257947621648807,0.05267643021003052
34.998948,9.251033600234477,0.05223833788421816
35.003536,9.242076340496562,0.05180952355557255
35.008123999999995,9.241336175501623,0.051372074027252405
35.01272,9.23789770716374,0.05093467301691894
35.017308,9.234703608254147,0.05048771565604415
35.02190399999999,9.23073225961105,0.05003453609351299
35.026495999999995,9.228559779863254,0.04957953258008789
35.031088,9.225610050381954,0.04911820944017002
35.03568,9.21460955232045,0.04868692002519605
35.040272,9.202587435097154,0.04825909395215608
35.04486,9.182514549293654,0.047863214930919246
35.049452,9.159665316881695,0.04750334287977181
35.05404,9.138737138079176,0.047136317788256984
35.058628,9.112578678753541,0.04679615348680654
35.063216,9.082089373352446,0.04648153512112213
35.067808,9.04505965738952,0.04617290528582757
35.072412,9.006886137550657,0.045871001837858326
35.077004,8.972310355502387,0.045566336203427496
35.081596000000005,8.937368019311677,0.04527419087888214
35.086184,8.894374914540762,0.045010902343339335
35.090784,8.843697595332085,0.04476086930175559
35.095364000000004,8.792531537266827,0.04452743329293589
35.099964,8.735357948944953,0.04431468252301484
35.104552,8.678839425642435,0.044108967844759844
35.10914,8.619788925159746,0.04392869111059857
35.113732,8.560494055248768,0.04375495251982938
35.118324,8.498012143138261,0.0435969813680746
35.122916000000004,8.436185296047114,0.04344624170195699
35.127512,8.379222175336642,0.04328071342722525
35.132104,8.319194197140789,0.04312606063738134
35.136696,8.258799664802497,0.04298474676515036
35.141284,8.196195567977846,0.04281946180590706
35.145876,8.131548232829608,0.04266036031064626
35.150468000000004,8.065102028786074,0.04249746834056382
35.15505999999999,7.999433074476042,0.04233833365838511
35.159656,7.934952065490577,0.04220388731473962
35.164248,7.866140210429648,0.042097389035792965
35.16884,7.796062366778632,0.04200393635927197
35.17341999999999,7.7240634695181765,0.04191237473836053
35.178016,7.654885060314809,0.041815498925155084
35.182596000000004,7.59188050753083,0.041727619229311404
35.187184,7.526832716423266,0.041648297654226146
35.191788,7.461129860296345,0.04155507509046759
35.196380000000005,7.394161015579338,0.04147644062444271
35.200968,7.32335006364345,0.041405352184212
35.20555999999999,7.24947425422218,0.04134700858252457
35.21016,7.174699010353264,0.041286444395141626
35.214755999999994,7.098779962608406,0.0412346749619152
35.219348,7.021594926273465,0.04119795639907839
35.223944,6.944409889938524,0.04115980342653058
35.22852,6.870534080517254,0.041092654657777394
35.23312,6.7932268594681675,0.04105686221918809
35.237700000000004,6.714898019257286,0.04102416997682723
35.2423,6.634525940722817,0.041000130166891816
35.246892,6.553498797168993,0.040959712939380645
35.251487999999995,6.469895534986372,0.04091002534771157
35.256072,6.391766922755155,0.04081159087950124
35.260667999999995,6.310817822466848,0.040714737020375286
35.265272,6.223206126902569,0.040627225301426734
35.269864,6.13085288967176,0.040544267946864825
35.274463999999995,6.035024099364505,0.04044803482339425
35.279056,5.937518624876099,0.040339836829902706
35.283643999999995,5.835926673740522,0.04025088750418357
35.28824,5.7279164967572616,0.04015912299696886
35.292828,5.621050123649941,0.04005100308323808
35.297411999999994,5.513406500809118,0.03992922455756731
35.30199999999999,5.402942389911207,0.039806022402042736
35.306596,5.284794064575529,0.03970310774166518
35.311188,5.164069620611054,0.039582949865965535
35.31576799999999,5.042567926913076,0.03944365114884456
35.320368,4.914281453224981,0.03931545751400677
35.324944,4.791103075345854,0.03914541022768385
35.329539999999994,4.668046882180872,0.03895537257132329
35.334136,4.5460123081776835,0.03874834616016197
35.338724,4.420912876689115,0.03855024400833569
35.343332000000004,4.29989992184772,0.038305661978941516
35.347916,4.174023240625649,0.03805364151637856
35.352512000000004,4.050434167155457,0.037746163264459946
35.357108,3.928888332008851,0.03740084773873049
35.3617,3.8084863007381844,0.03700944630024865
35.36629599999999,3.688084269467518,0.036593577468797996
35.370887999999994,3.5630628812444667,0.03613417852304983
35.375491999999994,3.439429666325646,0.03558734227919709
35.380072,3.320782362501647,0.034964515053546294
35.384668000000005,3.2032788625535873,0.03427074269202406
35.38925999999999,3.085653177891382,0.03353760461304338
35.39386399999999,2.970070731552764,0.03272223676029434
35.39845199999999,2.861761804060846,0.031755065881067836
35.403052,2.754352311016576,0.03071407097965665
35.407644000000005,2.6468206332581596,0.029596934564678427
35.41224,2.5410878243950394,0.028380457669814993
35.416816,2.431390723598891,0.027063540380735756
35.421412000000004,2.320549818926803,0.025642884999753746
35.426016000000004,2.211752152578303,0.02405825124971883
35.43060799999999,2.1039761053915957,0.02226794106338042
35.435196000000005,1.9921135815577145,0.020505155033830994
35.439792,1.882827176352631,0.01878162242376326
35.444379999999995,1.7692099250720825,0.017114439846386196
35.448964000000004,1.6639319532486556,0.015484092428189109
35.453552,1.5659716417205571,0.013903739514088747
35.458147999999994,1.4727528718589895,0.012357011971755276
35.46274,1.388772815902192,0.01086337367544843
35.467327999999995,1.3079017588794029,0.009453541883776381
35.471928000000005,1.2303840702189137,0.008119270814313729
35.476516000000004,1.1522554579876965,0.006866576967896423
35.48110799999999,1.0788683874230094,0.005666318159646593
