Time,Force,Position
35.807536,0.23572478073514191,0.0
35.812132,0.22104531869585678,0.0
35.81672,0.20558860692306946,0.0
35.82132,0.19205294875972354,0.0
35.825908,0.18800037392943883,0.0
35.830492,0.18754553688974548,0.0
35.835088,0.18198260404108454,0.0
35.839676,0.17257756397354085,0.0
35.844272,0.1634168933342885,0.0
35.848856,0.15989719880921463,0.0
35.85346,0.15241321235111233,0.0
35.858052,0.1486491483977471,0.0
35.862652,0.14578451889202976,0.0
35.867248,0.14676199660519515,0.0
35.87184,0.14684003987071267,0.0
35.876436,0.1451192142409345,0.0
35.881024,0.14531944222059767,0.0
35.885616,0.1424548127148803,0.0
35.890196,0.1402452482285194,0.0
35.8948,0.13060917641189482,0.0
35.899387999999995,0.12877640569970977,0.0
35.903988,0.12948585179943317,0.0
35.908584,0.13776756725451522,0.0
35.91318,0.15014599898851014,0.0
35.917764,0.16531101696270492,0.0
35.922356,0.18338480589124523,0.0
35.926944,0.2064106040977181,0.0
35.931532,0.2356985416208366,0.0
35.936119999999995,0.2651189034898396,0.0
35.940704,0.3013342849806989,0.009924727092880843
35.945296,0.3465542505797755,0.019747272160283373
35.949892,0.4015560500205716,0.029164455874293428
35.954476,0.4646629991219373,0.03842339301993864
35.959067999999995,0.5337096748461396,0.04759570350572847
35.963663999999994,0.6134376188597093,0.05662713061533693
35.968252,0.7037246464485006,0.06557493217791575
35.972836,0.8045707576125136,0.07426064821281433
35.977419999999995,0.9168753867993961,0.08290488911266083
35.982008,1.0390840345421437,0.09144542737203386
35.9866,1.174536731523846,0.09987804658783452
35.99118,1.3049285721926807,0.10833638146703012
35.995768,1.4373195097364742,0.11666639270127269
36.000364,1.5636146341263961,0.12507910148068452
36.004952,1.6937077242865723,0.1332842084792907
36.009544,1.8184042077608613,0.14166051950534697
36.014123999999995,1.9459211792922397,0.1499788676205369
36.018724,2.080633626404801,0.15813360052482164
36.023312,2.2233968420975647,0.16605071077735659
36.027912,2.375476814960616,0.17379720159639395
36.0325,2.5209722358132125,0.17169153675073462
36.0371,2.663803255139755,0.16965078952551058
36.041684,2.799472700702004,0.16802886583536902
36.046276,2.933132809757556,0.16649564726204222
36.050884,3.0608192903733813,0.165129899680538
36.05548,3.1846975655872134,0.16387392498188655
36.060076,3.3060336239891366,0.16262412494026707
36.064676,3.4171432511413857,0.1617094993298299
36.069264,3.5264437697666002,0.16069157560052114
36.07386,3.6323026371322586,0.1596972199556697
36.078448,3.730999930733624,0.15881654473538803
36.083032,3.8341943965732286,0.15783522476895392
36.08762,3.9352234393751,0.1569998577472276
36.092212,4.03768479692983,0.15612869346265965
36.096808,4.132950678903377,0.15551585001147056
36.101388,4.234468460561832,0.15464888675247537
36.105972,4.335575546629222,0.1537995343031036
36.110552,4.429320830952656,0.15313417073407373
36.11514,4.517014443570846,0.15267448276282106
36.119748,4.597346254445079,0.15237491692882146
36.124336,4.6826198349655055,0.15188023671367515
36.12894,4.76605040514201,0.15138455204966766
36.133528,4.850580637745825,0.1508031545323316
36.138128,4.929914491643418,0.15027591355855177
36.14272,5.011325485681486,0.1495698332087444
36.147308,5.08868390488927,0.14887080124648722
36.151912,5.160313065085619,0.14821209555614323
36.156504,5.231976127098857,0.14742894980822727
36.161096,5.292679649577547,0.14682986792255115
36.165676,5.3456106747212155,0.1463121550593573
36.170276,5.39587729833883,0.14573259581255976
36.174864,5.438737978763859,0.1452008488763483
36.179456,5.478157007929332,0.1446097984511498
36.184052,5.517443612748921,0.14386499816048157
36.188652,5.556886304099543,0.1429959776042258
36.193244,5.589045236971728,0.1421636611728321
36.197832,5.611466477450821,0.1413793875956763
36.20242,5.6315898705462955,0.14049963712321478
36.207016,5.640176702353384,0.13969064143452764
36.2116,5.640458156520238,0.13891856183681275
36.216196,5.629491560275627,0.13825733235182086
36.220784,5.6147167586290205,0.13755859036661955
36.225372,5.595889382152127,0.13684147304182986
36.229948,5.571987811683155,0.136124900691239
36.234544,5.538925570574934,0.13550548301118237
36.239136,5.500911320188776,0.1348736343873711
36.243724,5.459133005849254,0.1342476061939936
36.248316,5.40921564003227,0.13369002042282635
36.252896,5.361297371090248,0.13301910089146882
36.257488,5.310758842070799,0.13231698602741726
36.262084,5.254413010774398,0.13166656501125562
36.266672,5.1947138111156965,0.1310459092653032
36.271268,5.128962939751752,0.13050218267762945
36.275856,5.058470526721278,0.1300356746086335
36.280444,4.98245932229077,0.12965789644442893
36.285048,4.906448117860261,0.1292618662170523
36.289636,4.832235782325049,0.12882637138588973
36.294232,4.754592035162018,0.1284881437357537
36.29882,4.682877774990086,0.12806934732079941
36.303416,4.617992436256899,0.12754829303801316
36.308004,4.552007435096404,0.12712868232231625
36.312604,4.4831239026133,0.12683454749864173
36.317188,4.412241273255236,0.12664571556619594
36.321788,4.346921576745835,0.12639995756908617
36.326372,4.290884735589831,0.1260195814530559
36.330968,4.2399220884259075,0.125633091232299
36.335548,4.1904358974634714,0.12531151890278341
36.34014,4.152319941626648,0.12487731059488512
36.344732,4.116457691724814,0.12450107594603133
36.349324,4.085180896958475,0.12417645272414903
36.353912,4.057467938165838,0.12393560882008849
36.3585,4.038304726441726,0.12364844449267363
36.363088,4.0325549881668135,0.12320235022108689
36.367688,4.033556128065129,0.12274770998475198
36.372276,4.043229199746115,0.12224109797334408
36.37686,4.058631530438535,0.12176110123575647
36.381456,4.082339238771189,0.12127437795121278
36.386044,4.113819444438864,0.1207543719108466
36.390636,4.154993201051003,0.12018295997788488
36.395224,4.200219532493424,0.11966667742529456
36.399812,4.255750338451039,0.1190210551120818
36.404408,4.321096880067262,0.11829587495302617
36.408996,4.391517615675562,0.11757882640716315
36.4136,4.464558611361292,0.11691687461343733
36.418188,4.535478325457913,0.11640473094218762
36.42278,4.609384853774398,0.11590979770529387
36.427376,4.692940791586719,0.11530732077409345
36.431976,4.7751085560948106,0.11478727449222921
36.436568,4.858586450641614,0.11428881995590232
36.441148,4.943985398797858,0.11375695382306504
36.445752,5.041932287772545,0.11301804394802688
36.45034,5.139224111727875,0.1122958454265013
36.45494,5.22883172124544,0.11172983862699476
36.459528,5.313042724077117,0.11123537888681352
36.464128,5.3928787393847,0.11079405622456436
36.468712,5.464086964358242,0.1104353263093687
36.4733,5.529732256483123,0.11010677500432545
36.477892,5.594556157425874,0.10973727749232562
36.482488,5.6500972030152266,0.10945347209805337
36.487088,5.703262357955445,0.10913178991565785
36.491684,5.751886199208796,0.10881720067996385
36.496272,5.795313661755922,0.1085000838513999
36.500868,5.836853972510498,0.10810372602589381
36.505456,5.8740973390064966,0.10769211456548894
36.510052,5.908842630139215,0.10724220142946347
36.51464,5.937247738689771,0.10680995487476998
36.51924,5.954815492419925,0.106443875243941
36.523828,5.970007355500944,0.10603388908441694
36.528424,5.980125024589883,0.1056017073462738
36.533016,5.9887662374773365,0.10511594809197729
36.537596,5.981706369163711,0.10475611997507821
36.542188,5.966507449372626,0.1044214718650852
36.546776,5.95109806197014,0.10399473202558014
36.551368,5.9362554566897545,0.10347475504356819
36.555976,5.920058579922028,0.1028858408450748
36.560564,5.906638049762761,0.1022083918655528
36.56516,5.890475074811924,0.10150160823286172
36.569752,5.86580649424119,0.10083966448768278
36.574356,5.8401943377741805,0.10012978443898236
36.57894,5.805343467402401,0.09951302744701164
36.583528,5.766239794220676,0.09891390222162777
36.588124,5.724804371838442,0.09830710183019656
36.592704,5.677605788627883,0.09776708783312524
36.5973,5.628852705950321,0.09721764913574474
36.601884,5.5757246357486645,0.09669268960654265
36.606484,5.522840934975299,0.09614224549191927
36.611072,5.468935615040142,0.09560109618744699
36.615672,5.410044384010162,0.09512842841858583
36.620268,5.3555281405042745,0.09461512036223192
36.62486,5.297702670084717,0.09416170876153913
36.629444,5.245928871370402,0.0936627054329897
36.634036,5.198407875466035,0.09313404401445471
36.638628,5.153873693781531,0.0926108118247418
36.64322,5.108484219098007,0.09214294773581466
36.647808,5.0667366236537035,0.09169346911566487
36.652404,5.025033169658029,0.09129509810764254
36.656984,4.989792082958663,0.09088640213121628
36.66158,4.964611101346195,0.09044098782543723
36.666168,4.938863337611627,0.09009280758686107
36.670764,4.924808221696482,0.08964819375071824
36.67536,4.918114907525293,0.08919233786343832
36.679952,4.91494128787918,0.08877276278680989
36.684552,4.9202732738529615,0.08831766716906668
36.68914,4.9301465735136105,0.08788549485544729
36.693724,4.949302728527656,0.08742291223322321
36.698316,4.972878012514425,0.08699312488971793
36.702908,5.006635586302239,0.0865302973123807
36.707516,5.049920384871743,0.08602311322921745
36.712096,5.095414747927608,0.08554397031810658
36.716684,5.148759651584012,0.08503169120929255
36.72128,5.204314119726777,0.08454698064678352
36.725868,5.267719128470081,0.08404052317826426
36.730472,5.3311682786620125,0.08359698099493526
36.735064,5.402590154168631,0.08311913967960699
36.739656,5.479408636361134,0.08262691559380786
36.744236,5.561090844934315,0.08208987552604735
36.748836,5.641507064917411,0.08159592181865524
36.753424,5.718325547109916,0.08113503161079642
36.758024,5.80217317872083,0.08059257289247677
36.762616,5.887042429493537,0.08006315410714626
36.767212,5.972400419122827,0.07951940696892383
36.771796,6.056326093999257,0.07896626000724283
36.776392,6.138819454122829,0.07841197687790602
36.78098,6.219636130065252,0.07786634706001286
36.785576,6.299264860683106,0.07730874835369797
36.790156,6.37974888429998,0.07671050595001233
36.794744,6.454669975068195,0.07611201515298735
36.799332,6.523783763559456,0.07552390055525013
36.80392,6.589544183688417,0.07494605845040975
36.808512,6.6511739857215755,0.07437883566226529
36.813104,6.70789591992543,0.07381147885628665
36.817696,6.75382464075751,0.07329522856225636
36.822288,6.795334232616868,0.07274620019407231
36.826888,6.827316599694538,0.07222069140592972
36.831476,6.847073438647575,0.07172681301173274
36.836064,6.864376343685958,0.07123532025462122
36.840648,6.875339066142179,0.07072187904032844
36.845228,6.8830706049502455,0.07020028319223634
36.849832,6.883851037605421,0.06969251640486257
36.854416,6.873838256888821,0.06922101696243702
36.859004,6.855608381429247,0.068781435935182
36.8636,6.833370072588015,0.0683256618570384
36.868192,6.805979526489187,0.06787079863201988
36.872788,6.766896332570937,0.06744649866896021
36.877368,6.7186966094620635,0.06705184668283702
36.881968,6.664200845219654,0.06667103028624718
36.886556,6.60316467041542,0.06631612949805614
36.891156,6.539674561696531,0.06594774802758804
36.895748,6.471931650167696,0.06557151117467874
36.900348,6.394172775000588,0.06522248494293575
36.904948,6.313715596490537,0.06487287015797251
36.909548,6.233502787408778,0.06450203147625601
36.914132,6.152512728593516,0.06411498951367268
36.918728,6.071522669778254,0.0637186391846838
36.923316,5.990288241534702,0.06332641315339542
36.927908,5.8998150993863785,0.06296215346442718
36.9325,5.813594760048004,0.0625901183098978
36.9371,5.730194908766719,0.06219403395357559
36.941688,5.645406884181203,0.06182238513292153
36.946272,5.560130120739104,0.06147438889711773
36.950852,5.481393767858831,0.06108703562467626
36.955448,5.408586901969657,0.06069953007044275
36.96004,5.337334535547486,0.060314280133819426
36.964644,5.283904531915499,0.059838572448867505
36.96924,5.239224503331699,0.05935476607046301
36.973828,5.194055735891316,0.05889423110095528
36.978412,5.15878074737506,0.0584101101765884
36.983,5.1263703883645215,0.05796198929502691
36.987592,5.099889516345079,0.05752222159236106
36.9922,5.086000726592708,0.05705517814144011
36.996784,5.0762425549361385,0.05660049198153495
37.001372,5.072658239698958,0.05614273852517163
37.00596,5.073859607576938,0.05571589093518321
37.010548,5.082134266321955,0.05528759866368704
37.015144,5.100058334562806,0.05486169272587933
37.019736,5.130452300356581,0.05442533500513131
37.024328,5.163178015350864,0.05401481237382125
37.02892,5.19607005650792,0.053654402538435966
37.033516,5.237423561836244,0.05326408846426074
37.038108,5.288915215516984,0.05284673341653816
37.042708,5.33889651117935,0.05247697908375897
37.047296,5.387734002965775,0.052129354950633734
37.051896,5.4426231664574445,0.051796628342367174
37.056488,5.489339376654765,0.05154082477109269
37.061084,5.533112914080852,0.05130532399077336
37.065672,5.58216087347868,0.05107329754703273
37.070264,5.62748891037177,0.050856714281801045
37.074852,5.672939131979007,0.05063314750963363
37.079448,5.715446680815008,0.050428259903558044
37.084036,5.753090503270334,0.05025157448070447
37.08862,5.79073432572566,0.050075982023314536
37.093212,5.823270052372018,0.04994120749497021
37.0978,5.851064237351845,0.049823490529980814
37.102388,5.872850892075057,0.04974664848540472
37.106976,5.888219320950588,0.04968075965346071
37.111568,5.89794677371194,0.049632748910755954
37.116156,5.902277619787406,0.04958703948014801
37.120748,5.90439890137651,0.04951273359124032
37.12534,5.895771111042469,0.049493534393925905
37.129928,5.877782422089512,0.049499361278366544
37.13452,5.8506772039459305,0.04951622357218674
37.139112,5.819974248011757,0.04953360003023459
37.1437,5.78015476288696,0.04956092565012608
