Time,Force,Position
35.513996,1.3089258976736227,0.029286908462233342
35.518596,1.2042249476040352,0.027040126807786606
35.523184,1.096336955334921,0.024832022542551707
35.52778,0.9900034625328116,0.02265144705014867
35.532360000000004,0.8858353927684347,0.02044487997200369
35.536956,0.7871861144040906,0.018229707647338517
35.541552,0.6960988657633662,0.015985487507311002
35.546148,0.6081382114363,0.013794758121548375
35.550736,0.5285168365663561,0.011573275230501374
35.555324,0.4573569258676794,0.009284671083818613
35.559904,0.39519135964548147,0.0070120466524525825
35.5645,0.33752296566152284,0.004749281305381883
35.569096,0.28267505973465346,0.0024553652547248932
35.573696,0.23641080269319745,0.0
35.578288,0.196564771499422,0.0
35.58288,0.16019429338209232,0.0
35.58748,0.12550049944591263,0.0
35.592068,0.0963254969097657,0.0
35.59666,0.07356872022129947,0.0
35.601248,0.05212207357154623,0.0
35.605836000000004,0.03505041444588658,0.0
35.610452,0.019411070073085613,0.0
35.615032,0.0094127018144631,0.0
35.61962,0.0031342560605776663,0.0
35.624216000000004,0.0012307978307858163,0.0
35.6288,0.00022677404864181788,0.0
35.633408,0.0,0.0
35.638,0.0025687628808871415,0.0
35.642596,0.014142109869991579,0.0
35.647184,0.03480832386456961,0.0
35.651784,0.06751007763585615,0.0
35.65636,0.11285829475457952,0.008917872913350106
35.660964,0.17024205165001144,0.017708574138956587
35.665552,0.24104952162638238,0.026174288618116624
35.670152,0.31980605473228774,0.035037524718347375
35.67474,0.41251918122434295,0.04367262706220587
35.679332,0.5172678474931066,0.05227055191335366
35.683912,0.6359731071480202,0.06072148957422741
35.688504,0.7695343946367315,0.06901639408532306
35.693108,0.9141096027403577,0.07736882180472031
35.697704,1.0735408386777816,0.08559971423130702
35.702292,1.2444747340867033,0.09381773294113242
35.70688,1.4269112889671225,0.10202450131477542
35.71146,1.6195403732803264,0.11021732601068443
35.716056,1.8230170520456725,0.11839956838589245
35.720644,2.039795259177812,0.12652625095820916
35.725236,2.2690977449432417,0.13461391841326412
35.729832,2.5034817804486615,0.14261508188525807
35.734412,2.7325031110850846,0.15059233942493666
35.739004,2.954186302162702,0.15846875572452032
35.743596000000004,3.163545442586691,0.1663084687773682
35.748184,3.3567825665867983,0.16530079259803668
35.752792,3.5376956399332773,0.16438304600510417
35.757376,3.7073504232365497,0.16371488081229832
35.761968,3.8718324900187486,0.1625187392681055
35.76656,4.023335441127963,0.16146108579795723
35.771148000000004,4.163291591317052,0.1603960555478024
35.775744,4.285282714738335,0.1595287274738953
35.780336,4.388653746372453,0.15884679694085607
35.784932,4.479045662333587,0.15809750666196035
35.78952,4.553393605136354,0.15745143298231767
35.794108,4.613907139267118,0.15684334927090585
35.798688,4.66418400251647,0.15619118715123548
35.803288,4.707455378532563,0.15544782802541898
35.80788,4.737669595610155,0.15472697919247258
35.812464,4.7544159581581775,0.15401152139253232
35.81706,4.758349531195991,0.1532964113031652
35.821652,4.7554880846119465,0.1525870487462019
35.826252000000004,4.747918998178259,0.15187007996301613
35.830844,4.738184488706839,0.15122654544307468
35.835432,4.726284556197687,0.15065306484538737
35.840028000000004,4.721824468698007,0.14989986949454684
35.844616,4.717120011770038,0.1491678908857934
35.849204,4.7057529595660945,0.14860440232339023
35.853792,4.689033442124893,0.14821711572367183
35.858384,4.670314827808734,0.14795086857827716
35.86298,4.652373463226075,0.14767406299574776
35.867572,4.640483770348659,0.14728487478788926
35.872168,4.6351786294817,0.14679889388489867
35.876748,4.635680790891694,0.14622782782143454
35.88134,4.6374930823404,0.145663793860862
35.885932000000004,4.644335426332558,0.1450223088707076
35.890508000000004,4.650933400896422,0.14440790020196456
35.895104,4.654877213565973,0.14391472154092824
35.899692,4.664261774370035,0.1433748666480243
35.90428,4.6743455416420865,0.14290106206339637
35.908876,4.682552396753323,0.14253263345596182
35.913464,4.68737198168537,0.14234632792239
35.918060000000004,4.6982873797712905,0.14212022694412912
35.92264,4.7137440915440765,0.14186966419469035
35.92724,4.73513029030796,0.14153074535978336
35.93182,4.74936515493929,0.14139287397942543
35.936416,4.769529506561718,0.14117277340117468
35.941004,4.799832006536565,0.14074511760367575
35.945604,4.835164559054862,0.14024639688756507
35.9502,4.874217034077895,0.13967158737586557
35.954792,4.914457454425495,0.13912770489116852
35.95938,4.954986385650015,0.13863146153005956
35.963972,4.996170381893892,0.13815554830138482
35.968572,5.035188955100035,0.13775620852353507
35.973172,5.076783646934977,0.13732694203360682
35.97776,5.118256154055775,0.13691888619897144
35.982356,5.164103648700666,0.13646032971745686
35.986948,5.207497209430904,0.13602076332343832
35.991532,5.249702824836575,0.1355717808065982
35.99612,5.295217667155918,0.13503830679916792
36.000716,5.346862224446023,0.13436253109602486
36.005308,5.402182562792237,0.133555887377435
36.0099,5.4514512294332045,0.13284127722412387
36.014496,5.496833647406664,0.13216100688128496
36.019084,5.54282698895085,0.1314540008973119
36.02368,5.5932733612846475,0.13061797556094054
36.028268,5.637912431341493,0.12985735705420545
36.032864,5.677399264140743,0.12917704868966737
36.03746,5.717741389939013,0.1284466152119823
36.042048,5.757795004860367,0.12769763288725677
36.046648,5.795883424723647,0.12693964782483907
36.05124,5.830452150061854,0.12617515405580898
36.055828,5.858436323389608,0.12546646010137386
36.060424,5.885354736106936,0.12473421278461078
36.065012,5.905444227385521,0.12407070967475427
36.069608,5.922014024139029,0.12340012782327922
36.074188,5.928401531091493,0.12282970552091246
36.078788,5.940141503281216,0.12214077604776173
36.083376,5.947628672660989,0.12149329298492112
36.087976,5.9484091053161645,0.12090495688834475
36.092564,5.9431378662660945,0.12038063346494725
36.097156,5.935657062729666,0.11985467374339413
36.101748,5.927232683296959,0.11928717454324023
36.106344,5.914799870482597,0.11873742978978769
36.110924,5.893372713191755,0.11829870959318822
36.115516,5.872434294757497,0.11782310680561399
36.120108,5.849574822713798,0.11737556216471279
36.1247,5.825693731508303,0.11694576707023571
36.129292,5.794494980007481,0.11660929352678978
36.133876,5.7559785682113285,0.11636574759038915
36.138464,5.71398660333873,0.11615358710226106
36.143064,5.672894072913783,0.11592581551722801
36.147652,5.633478226669984,0.11568344147411413
36.152244,5.589320838759657,0.11551156466496823
36.15684,5.552603295858804,0.11522970716091242
36.161428,5.515152644673075,0.11499899834764812
36.166028,5.479911557973709,0.11477148396781675
36.170616,5.439806744893666,0.1146212210896805
36.175208,5.405220723213654,0.11439112236314307
36.179804,5.374520950201154,0.11414981579580123
36.184392,5.3489734144462515,0.11385904343282371
36.188988,5.325635443177709,0.11356999511234107
36.193576,5.306428090004968,0.11325296595344395
36.19818,5.294826908004475,0.11287687930154272
36.202772,5.290054647442728,0.11244271793419067
36.207364,5.284671463310253,0.11205490391351562
36.21196,5.283785451416016,0.11161599117032601
36.216548,5.283676689255282,0.11117570651603625
36.221148,5.292440086856882,0.11064542972709274
36.225736,5.308687470916582,0.11006747220794
36.230328,5.3276772997678545,0.1095085533398372
36.234908,5.35079774671493,0.10893373318866134
36.239512,5.382013103690835,0.10828114418747595
36.244104,5.420057382105487,0.10757575949822172
36.248688,5.455569683339968,0.10695300463289881
36.253268,5.4945575376508975,0.10630145515465157
36.257864,5.537920379485918,0.10560964625360669
36.262456,5.584514404969095,0.10490854197040199
36.267048,5.626533214948513,0.10432177602973722
36.27164,5.667530405766138,0.10375568091581192
36.276224,5.707261607993679,0.10323509054137729
36.280812,5.750712732725957,0.10268234423911819
36.285408,5.794818922477591,0.10214857303753011
36.289996,5.837004058619785,0.10165149088031128
36.294592,5.879189194761977,0.10116132834394737
36.299184,5.921129961475878,0.1006918721466078
36.303764,5.962704174047342,0.10025436050659224
36.308364,6.0068545052476034,0.09980652541573473
36.312952,6.045241675619542,0.09943761460269725
36.317544,6.081174912076828,0.09907919725454392
36.32214,6.1204173754477855,0.09866103269274326
36.326732,6.155817731599861,0.0982949177333003
36.331324,6.183778242742461,0.09801167999073032
36.335912,6.211328058293998,0.09770995201729535
36.3405,6.238467178254469,0.0973859836400618
36.345096,6.266217221785667,0.09702870188859206
36.349684,6.297276492230538,0.09662066697940447
36.35428,6.324982394313109,0.09622570499137871
36.35886,6.35660844688008,0.09573735092663421
36.36346,6.387701619141839,0.09523345573441554
36.368048,6.417606846079032,0.09470969779026268
36.372648,6.442237651044484,0.09422481921120769
36.377236,6.459917349857043,0.09377641074971782
36.38184,6.473344245859655,0.09334556159354207
36.386436,6.484805946804199,0.09289178197825441
36.391024,6.494180267976526,0.09242006962048042
36.39562,6.498646721319549,0.09195538596407114
36.400216,6.497428057099765,0.09149707649623141
36.404804,6.4941220131077655,0.0910172249567807
36.4094,6.491549077400641,0.09049322419662756
36.413992,6.485744958045362,0.08997292957285678
36.41858,6.47413353641313,0.08946021075580371
36.423168,6.464032472799275,0.08890345897151715
36.427756,6.447635368051886,0.08838573296406474
36.432344,6.428906514103989,0.08786047262134548
36.436936,6.402737815146619,0.08739322447002508
36.441528,6.367574771712769,0.08698043886929424
36.446116,6.333922086297296,0.08652074111384306
36.4507,6.292463001729911,0.08613880266477358
36.455288,6.2522699057526125,0.08572488777186638
36.45988,6.209256321718223,0.08533033438065858
36.464476,6.1644438687885375,0.08494218114667396
36.469064,6.124250772811238,0.0845154009974865
36.473672,6.088144153481114,0.0840326158709147
36.478264,6.049627741684965,0.08359343925877694
36.482852,6.013032383498255,0.08313150817188233
36.487448,5.979135328654491,0.08264947442275516
36.492036,5.947447838297086,0.08217795612218821
36.496628,5.92283363880672,0.08167149414317244
36.501208,5.897730700459771,0.08119327456737559
36.505804,5.871361773522737,0.0807391118815613
36.510392,5.855908244671622,0.08021765747167446
36.514992,5.839188727230423,0.07972206867115868
36.519572,5.828765250922758,0.07919171851430847
36.524172,5.821450773549102,0.07867197198029166
36.528756,5.823252825366071,0.07809855645634056
36.533348,5.8311065488882825,0.07750775695525644
36.53794,5.8400260330209175,0.07695542971986884
36.542536,5.856385362163026,0.07635092803271186
36.547132,5.872255952448554,0.0757794048431451
36.55172,5.890336107220438,0.07522392441198728
36.5563,5.912546880088127,0.07467099404130624
36.560892,5.936434337136966,0.07412215438381668
36.56548,5.959588685900928,0.07362366733495279
36.57008,5.989938510246075,0.0730971785791563
36.574668,6.018655791858701,0.0726213663055613
36.579252,6.052525310728923,0.07214411427852926
36.583848,6.0890931329420885,0.07165869207093936
36.588428,6.123495532117522,0.07121061601157576
36.59302,6.157653561864662,0.07077913622182806
36.597608,6.199007067192986,0.07032641121304523
36.602196,6.239216768645371,0.06990350389430994
36.606804,6.282002588726552,0.06948159946886298
36.611384,6.322500801055856,0.0690981209174135
36.615972,6.366841120604043,0.06869611246933106
36.620568,6.409138201828641,0.06832166342347823
36.625156,6.454255771110331,0.06794056685539801
36.62976,6.5021938284491085,0.06754970583254534
36.634352,6.550909135521389,0.06717048113866882
36.638956,6.605387603421994,0.06676429263539266
36.643536,6.6594553757315325,0.0663357279830517
36.648136,6.713112452450007,0.065889159407533
36.652724,6.767013898596773,0.0654374478632794
36.657324,6.820260279724182,0.06497815683917203
36.661904,6.8663111852704075,0.06454064181217369
36.666504,6.915426948302015,0.06407940225454399
36.671092,6.955670551571289,0.06363586654968631
36.675684,6.9952590898212055,0.06318642702278897
36.680276,7.030839194689466,0.06272341936830104
36.68486,7.065886419252514,0.062244549690305954
36.689448,7.091939299339087,0.06178855814243434
36.694044,7.111818323006269,0.06134184974308827
36.698636,7.125523490254062,0.06090062087056049
36.70322,7.139839581072582,0.06042878114936019
36.707808,7.145938577148128,0.05998029464770193
36.712404,7.148029139842016,0.05951503820325595
36.716996,7.139981554183486,0.05907908032968205
36.721588,7.1243277973527075,0.05863050282966085
36.726184,7.105076302731339,0.05818815993031378
36.730764,7.077363343938703,0.05777707743008937
36.73536,7.049406015717775,0.05737639899431524
36.739944,7.013642288344935,0.05701306298841098
36.744528,6.971993215429627,0.05667946573176852
36.749124,6.926746404723727,0.056347024228118325
36.753716,6.882643397893766,0.05599687450664819
36.758304,6.835964272435008,0.05564151921845992
36.762896,6.791983450319193,0.055278123379196444
36.767484,6.741584402355696,0.054923214638462545
36.77208,6.6899193658021145,0.05458269604800102
36.776676,6.635311656477299,0.05425309400659376
36.781272,6.581481196885986,0.053924128446745205
36.785848,6.5272841831522355,0.053610125090081256
36.790448,6.477584341656723,0.053287525664001245
36.79504,6.423798023514038,0.052989977995670456
36.79964,6.370788955104856,0.05269340132079881
36.804232,6.3161473439631495,0.052432193177085876
36.808828,6.264081851450243,0.05217138989525027
36.813412,6.213082119547757,0.051944785479998035
36.818008,6.158362465140534,0.05172303796850775
36.822596,6.101599572409725,0.051513011285583346
36.827192,6.045980483554854,0.05128462118100497
36.831772,5.995880186100017,0.051043242948098436
36.836356,5.947700942254619,0.05079024978969439
36.840948,5.902997251485668,0.05053868033832373
36.845536,5.85600595296484,0.05031256481588746
36.850116,5.805827612244484,0.05011275722810882
36.8547,5.758225390152927,0.04991609407849032
36.859292,5.71565322060482,0.04973623438834857
36.863872,5.676678788847305,0.0495523445294043
36.868468,5.637582172375644,0.04937227219035046
36.873056,5.599262805637484,0.049196676101123354
36.877644,5.5608212541851785,0.04902650804802787
36.88224,5.516372172476258,0.04889327428914501
36.886828,5.475520828557929,0.048757433368896416
36.891416,5.435202364944811,0.04864291180456976
36.896004,5.3947617166175466,0.048535312042576086
36.900592,5.353299449128489,0.048434019259239326
36.905188,5.312614431372934,0.048340307809485845
36.909768,5.273606097798528,0.04825137220219441
36.914368,5.23664100254771,0.048143539361707864
36.918948,5.195467245935571,0.04807465860573045
36.923544,5.15327187016164,0.04801311615172451
36.928136,5.109810505797624,0.04797543026924719
36.932724,5.0634064686623725,0.047953006476183675
36.937316,5.020722354031858,0.047921119288140815
36.941912,4.975339936058401,0.04788870191678585
36.9465,4.923294922808971,0.04788138658607921
36.951096,4.867529987054804,0.04788391262353437
36.955684,4.8067791402058155,0.047922298167720416
36.960272,4.750525465595065,0.047958493383452996
36.96486,4.69529341014611,0.047982751069789546
36.969444,4.6401835394113,0.047997134133141196
36.974032,4.591980633380754,0.047965498004966786
36.978628,4.539280555111967,0.04793093052922056
36.98322,4.484903792662031,0.0478873602802582
36.9878,4.433347518269184,0.047835304178968245
36.992396,4.381791243876338,0.047782297492994015
36.996984,4.328802654730632,0.04769804827923723
37.001576,4.271605404223606,0.047664809920363024
37.006172,4.2132643498406415,0.047648374056374974
37.010764,4.155167664885967,0.04761095713651235
37.015356,4.094617046016642,0.04754844804264685
37.019948,4.03173467794681,0.047450073335022436
37.024536,3.9669312562675363,0.047361715491611465
37.029128,3.892644751255202,0.04731784601459638
37.03372,3.8257980912523415,0.04724770287224603
37.038328,3.762793538468364,0.047153701638778286
37.04292,3.6982344862173817,0.04703256841596171
37.047512,3.6319987497852493,0.046900887848102556
37.052104,3.559466972219582,0.046760287918305936
37.056696,3.479006610787858,0.046696782489990485
37.061288,3.3976468149084864,0.046624971923261135
37.065892,3.306681750981907,0.04661345632863
37.070476,3.2145728831793896,0.04662938388974855
37.075076,3.1196435273197825,0.046664113379892305
37.07966,3.0195619342025792,0.04665583104985398
37.084256,2.922423013856611,0.04660548309032355
37.088852,2.8232408551870565,0.04657193476897947
37.093444,2.728389542592967,0.04644668954784808
37.098044,2.6305955572276427,0.0463597738246296
37.102644,2.531779952700525,0.04627849996584169
37.107236,2.4306767404215286,0.04626858051468625
37.111828,2.3308836581812455,0.04634183568759617
37.116416,2.230191141493314,0.04643602857347925
37.121004,2.1392260775667356,0.0463964746869346
37.125584,2.039677364754743,0.046445689894331524
37.130176,1.9373081638856622,0.046506883008639914
37.134768,1.8376372663595244,0.046541348479131585
37.13936,1.7428300952140627,0.0464759983437808
37.14396,1.6504768579832536,0.046465935682570264
37.148548,1.562987347133121,0.04643790425822247
37.15314,1.473332413245255,0.04411831456306362
37.157732,1.389318455471568,0.04176858824852243
37.16232,1.309024420202618,0.039402516378092375
37.166932,1.2324503074384048,0.03701852276261155
37.17152,1.1611506166459333,0.03467776598604935
37.176116,1.0879298722440203,0.03237999562891105
37.180704,1.0192063000803468,0.03008811065021014
37.185292,0.950116173774236,0.02784543074071723
37.189888,0.8869113930105949,0.025565037727053187
37.194488,0.8235844275328084,0.023291367326592476
37.199092,0.7670422420451393,0.020971486005095356
37.203688,0.7127876643093487,0.01859534358547244
37.20828,0.6662173010113236,0.016188220522011545
37.212872,0.6174815146755659,0.013879492791775755
37.21748,0.5752861389016344,0.011508464589084434
37.222068,0.5346452625947072,0.009139864250430334
37.226668,0.4947816360212823,0.006815282176779973
37.231248,0.45749412807665524,0.004580740400430778
37.235848,0.421106054579676,0.0023099628716753825
37.240444,0.3889266424440166,0.0
37.245036,0.36136658726074206,0.0
37.24962,0.33842588902985243,0.0
37.254212,0.31752842912254986,0.0
37.258812,0.2994514572723366,0.0
