Time,Force,Position
34.918803999999994,0.02535058490280326,0.0
34.923388,0.019709608788624808,0.0
34.927975999999994,0.013295139342166374,0.0
34.932559999999995,0.010478407686299344,0.0
34.937152,0.008561110478080168,0.0
34.94174399999999,0.00754324771750884,0.0
34.946335999999995,0.00754324771750884,0.0
34.95092399999999,0.00754324771750884,0.0
34.955512,0.00754324771750884,0.0
34.960103999999994,0.008316741049788823,0.0
34.96469199999999,0.011133472705655853,0.0
34.96928,0.01382801964737721,0.0
34.973876,0.016278197160807223,0.0
34.978472,0.017462386084152376,0.0
34.983076,0.017462386084152372,0.0
34.98766799999999,0.017462386084152372,0.0
34.992259999999995,0.021901994320351684,0.0
34.996852,0.03645233232259591,0.0
35.00145199999999,0.06447428125562953,0.0
35.006032,0.09668122936483231,0.0
35.010631999999994,0.14345569443091333,0.010535348343440514
35.01521999999999,0.2072516103685248,0.02005749151450436
35.01982,0.28451162443448125,0.02934647668880947
35.024404,0.37331843942056353,0.0386351805089239
35.02899599999999,0.47673691281215225,0.047658783096160874
35.033592,0.5929681757139516,0.05658236014589577
35.038183999999994,0.7221344128401072,0.06540347523458409
35.042787999999994,0.865501612780704,0.07404101720084809
35.047383999999994,1.0221703410880942,0.08256302663499308
35.051976,1.1874028124969696,0.09116930077232709
35.056568,1.3628719547872574,0.09972369157448181
35.061148,1.551109745139128,0.10818827030336461
35.06574,1.7523605529808732,0.11656032970088025
35.07032399999999,1.9666243783124924,0.12488843486996802
35.07492,2.195618290362541,0.1331308647807583
35.079511999999994,2.4370040566999975,0.14115135181417404
35.084092,2.677962404584134,0.14910283657189105
35.088688,2.913625851233052,0.1568748009679873
35.093276,3.1329568138466857,0.16463600140052864
35.097863999999994,3.3415182252736955,0.17238897815199794
35.102447999999995,3.541842062694251,0.16944642243657065
35.10702799999999,3.722402004451705,0.16754560958463952
35.11163199999999,3.8894499502309636,0.16581579953528056
35.116223999999995,4.042575204440961,0.16405043636825342
35.120811999999994,4.17781347514867,0.16253280353099156
35.12540799999999,4.2982296198394705,0.16104358462505572
35.13000399999999,4.4005144115996915,0.1596884927247796
35.1346,4.485078546020397,0.15852175905919214
35.13918,4.553065826977524,0.15745133857020682
35.14377999999999,4.609706534994189,0.15622004783041654
35.14838,4.648870955099629,0.15507292538324338
35.152975999999995,4.670070348437264,0.1540622511544777
35.157563999999994,4.676247387778327,0.15308868223513333
35.162164,4.667646442551109,0.15211090539843472
35.166748,4.6422242744320235,0.15119565544647326
35.171344,4.601012742214602,0.1504918920262591
35.17593599999999,4.5502298437668625,0.1499192940110343
35.18053199999999,4.492129285023793,0.14950698263033751
35.18512,4.433129291833076,0.1491092332570768
35.189719999999994,4.373107679480566,0.14874321448998554
35.194312,4.306834167443149,0.14857647973369342
35.198904,4.244158393196324,0.14831692039902408
35.203495999999994,4.181238249521207,0.1480645628610076
35.208079999999995,4.119506051170657,0.14782232090338604
35.212672,4.061782286201765,0.1475082637259365
35.21726399999999,4.005412792720213,0.14726001465076222
35.221855999999995,3.9556278512491163,0.14689743772801733
35.226448,3.906908670388441,0.1465711353935302
35.23103999999999,3.862486433786343,0.1462255413811405
35.23562,3.822894021748032,0.14587259517616638
35.240204,3.787354184540006,0.1455394427728608
35.244795999999994,3.7606084638287953,0.1450832973312473
35.249384,3.7383260135389342,0.14467302739319401
35.25398,3.723205137013366,0.14424479775066928
35.258571999999994,3.7136913347850884,0.14381772410746044
35.263175999999994,3.7087629876923067,0.14342731833090605
35.267768,3.7140610718491986,0.14291875142056296
35.27236799999999,3.725088415017525,0.14240219859928693
35.27696399999999,3.7444211358260846,0.14182989125733067
35.281555999999995,3.7715263539696657,0.14118445839107188
35.286159999999995,3.8053824502864746,0.1404945446863123
35.29073999999999,3.841247883109983,0.1398994282635503
35.295328,3.8824760208024878,0.1393477769013491
35.299916,3.927634548611132,0.13883384386100717
35.30451599999999,3.976601281821769,0.1383865375298203
35.309104,4.03076439373863,0.1379233492772001
35.313703999999994,4.08550452740933,0.13755999931047042
35.318299999999994,4.150182581452785,0.1370652882266181
35.322892,4.216703645840163,0.13661063153544892
35.327479999999994,4.281347798066729,0.13628288087734705
35.332075999999994,4.353842490893834,0.13582272580537202
35.336664,4.42687006402615,0.1354059439537029
35.34126,4.498876017996672,0.13501987460826287
35.34584399999999,4.568716548929461,0.13471635782269445
35.350432,4.639212144881607,0.1344267508983455
35.35502,4.71367203276678,0.1340460005608871
35.35961999999999,4.788865028936828,0.13363049795245163
35.364208,4.864302394535168,0.13320841976666611
35.36879999999999,4.934709707590058,0.13285686831954263
35.37339599999999,5.003151825586877,0.13250695735729673
35.377984,5.069095868220417,0.13213142253931592
35.38257599999999,5.137283377157207,0.13163961641984084
35.387164,5.200396692101919,0.13115353450887926
35.39176,5.265753473349882,0.13056028301708533
35.39635199999999,5.324359376424615,0.12998948364623558
35.40094,5.378135454935562,0.12940783991009847
35.405544,5.433255565302111,0.12873064499530665
35.410132,5.480725363047784,0.12810274296465976
35.41472399999999,5.523487520943816,0.1274457563804159
35.41932,5.562563658152,0.1267291161702701
35.423908,5.592190613844012,0.12607577368836945
35.428515999999995,5.615966125810443,0.12542675830324626
35.433108,5.637077236250821,0.12470059278522312
35.43769999999999,5.653847260983994,0.12391248125254353
35.442291999999995,5.667053449743465,0.12306422997114586
35.446887999999994,5.672731510596208,0.12223392594316528
35.45147599999999,5.666672782180897,0.12150877478928719
35.456072,5.650143253087624,0.12084398613198843
35.46066,5.633403256382946,0.1200784563481658
35.465259999999994,5.609545827362603,0.11934238941530331
35.469843999999995,5.581147084655394,0.1186067148170765
35.474439999999994,5.541544432985345,0.117981991389123
35.479032,5.500709694542101,0.11726843671722124
35.483628,5.448015982116661,0.11665326737685451
35.488223999999995,5.392213270757212,0.1160384696858855
35.492824,5.331258322140167,0.11546738693570145
35.497412,5.263474452084377,0.11494973128008315
35.502008,5.189516725609197,0.11449744855050582
35.5066,5.116702803009957,0.11399601412605723
35.51118399999999,5.043888880410716,0.11348246748693687
35.515772,4.968376654468532,0.11299566287302222
35.520368,4.890166125183405,0.11253414627628683
35.52495999999999,4.809545803432252,0.11213595995565599
35.529551999999995,4.72921399255802,0.11176289459331272
35.534147999999995,4.648393442827205,0.11141083810211201
35.53873599999999,4.566595415383226,0.11113630354411322
35.543316,4.491504124663845,0.11079656968487611
35.54790799999999,4.4256956892978625,0.11036526983130167
35.552491999999994,4.359687025952217,0.11000453853463615
35.557092,4.296176437969852,0.10968937506861486
35.56168,4.235163925350768,0.10941853957855911
35.566267999999994,4.183967148390291,0.10908174575399908
35.57086,4.135190403527578,0.10886364433733749
35.57545999999999,4.0948412210192435,0.10864039612233879
35.580056,4.065207208617166,0.10833884674628705
35.584652,4.043590062978401,0.10800048231229828
35.589243999999994,4.02884598022701,0.1076616429602861
35.593824,4.022651644544143,0.10730870741483738
35.59842,4.020143329549124,0.10704203072254373
35.603008,4.02336427356554,0.10681347442789699
35.607612,4.039632136888719,0.10651646820798977
35.612204,4.064449747280422,0.10621075562594623
35.6168,4.0970398550071465,0.10589647081480934
35.62139199999999,4.136625210335391,0.10558071133311402
35.625983999999995,4.182184194103361,0.10529118142933418
35.630571999999994,4.23702603322473,0.10493142886961615
35.63516799999999,4.2943659477093785,0.104632234919973
35.63974399999999,4.351750003642655,0.10440759832674462
35.644327999999994,4.414452622996301,0.10419441064615599
35.64892,4.483084729341046,0.10393558035192177
35.653516,4.5575241379627425,0.10364510284559364
35.658103999999994,4.633395861337298,0.10337797807564063
35.662696,4.7118437033406515,0.10308727255439949
35.667288,4.791968229525154,0.10279030454460529
35.671876,4.870171702100217,0.10254619949087158
35.676475999999994,4.9510734780182215,0.102286907253671
35.681059999999995,5.030054200326786,0.10206204188325141
35.685655999999994,5.112344149549023,0.10177121738720527
35.69024,5.195245022341986,0.10144022814615318
35.694827999999994,5.278756818705679,0.10107006949105943
35.69942399999999,5.354662443897123,0.100758646662542
35.704012,5.432078427106945,0.1004080136360945
35.708616,5.509205899439846,0.10003055339554441
35.713207999999995,5.580526069495795,0.09968191225706083
35.71779599999999,5.647060556436585,0.09934653586096767
35.722392,5.707132676081068,0.09903461388215005
35.726972,5.765361785381624,0.09869065696639828
35.731568,5.823791122661845,0.09828547637927598
35.736155999999994,5.87624683150234,0.09786318858637748
35.740756,5.92326179220832,0.0974420840772757
35.745344,5.963403690026927,0.09701252299242294
35.749948,5.996428155529867,0.09658793266383543
35.75454,6.022457373431288,0.09615674725097045
35.759136,6.0462328853977185,0.09567105095990093
35.76372799999999,6.0634238453536975,0.09520491424793959
35.76832,6.071454134670422,0.09477241013976004
35.77292,6.072489176385627,0.09432866233391034
35.777516,6.062320309137993,0.09394658544817654
35.782104,6.0410697176416654,0.09361535921714148
35.7867,6.0155221818867615,0.09325104131400988
35.791287999999994,5.987232201340286,0.0928541029811464
35.79587599999999,5.947982681259263,0.09249574568228633
35.800464,5.900960663843216,0.09211846347347422
35.80506,5.853117255245041,0.09168334333608033
35.80965199999999,5.7994665443699125,0.09125857167393059
35.814243999999995,5.741440845970692,0.09085504083178796
35.818839999999994,5.67862946445631,0.09044344288578546
35.82342,5.609522041808396,0.090071406844738
35.828016,5.536939066084035,0.0897113538604322
35.832595999999995,5.4656220789497585,0.08930753628928763
35.837188,5.396103960710778,0.08887863111659491
35.841784,5.325442038595859,0.08846722362268714
35.846371999999995,5.261198342328618,0.08798936110418173
35.850967999999995,5.193889788575999,0.08754502479262292
35.855563999999994,5.127358484556882,0.08709641700476511
35.86015199999999,5.062381680004769,0.08664490716560125
35.864748,5.002557112710252,0.0861621374574568
35.869344,4.9486620324068324,0.08565337960160374
35.873948,4.902373123275661,0.08511438177003426
35.878539999999994,4.855106736431324,0.08464112132051953
35.883132,4.811604413540353,0.0841840684944676
35.887716,4.775463892393338,0.08371723343974684
35.892312,4.747218053295491,0.08326322937184635
35.896891999999994,4.725556766208099,0.08280228076021685
35.9015,4.715343757511836,0.08227788191994634
35.906088,4.715801777473202,0.08169044612553879
35.91068799999999,4.725542652787966,0.08108671657814935
35.91528,4.740846460951391,0.08049454385959583
35.919867999999994,4.766699113058299,0.07985479320322109
35.92446,4.7970930788520745,0.07925479238171411
35.929052,4.83112892388507,0.07869789256281676
35.933656,4.875835797575695,0.0780915768329114
35.938252,4.921730616590884,0.07753450013188122
35.94284,4.972166749292944,0.07701112078798378
35.947432,5.030575607309688,0.07646016620966956
35.952023999999994,5.099655493984059,0.07587321401112568
35.95661199999999,5.179284224601914,0.07527001301562372
35.9612,5.26418737719151,0.07466167846398312
35.965796,5.353709886733491,0.07403494266684112
35.97038799999999,5.450672241284947,0.07336837088751297
35.974979999999995,5.553153387236435,0.07268658993172743
35.979575999999994,5.655512348473776,0.07202227111427054
35.984156,5.754151387206383,0.07139209153209322
35.988747999999994,5.848826134005959,0.07081725253945648
35.99334399999999,5.940802577462593,0.07027621983170944
35.997936,6.032779020919227,0.06975984437800727
36.00254,6.120136107423475,0.06928145497208148
36.007127999999994,6.210924605555541,0.06876113202274277
36.01171599999999,6.299914234792312,0.06826676395455866
36.016307999999995,6.386572114828575,0.06777135511350542
36.02089599999999,6.468977192054891,0.0672800870086448
36.025499999999994,6.548928335366554,0.06680118789458139
36.030092,6.624382306439979,0.06634130988113292
36.034688,6.698892701617126,0.06584474639058764
36.039276,6.76878373984189,0.06537787846672308
36.043876,6.8289031838566725,0.06494231665519586
36.048452,6.871933373366146,0.06455778346580197
36.053052,6.909156260598667,0.06416917391012567
36.057644,6.942126345021242,0.06378428644914055
36.06224,6.965857715539045,0.06343657711828764
36.066824,6.979939676561013,0.06310178636196657
36.07142,6.988991585039532,0.06275929812017209
36.076016,6.999553851536427,0.062383804686665496
36.080608,7.005208250204018,0.06199265083492988
36.085208,6.999825066071542,0.06163498512008623
36.0898,6.981727614957851,0.06130932339477242
36.094388,6.961542784071946,0.06095528865926964
36.09897599999999,6.9303203703859735,0.06063330571872295
36.103564,6.888959808347584,0.06034120590919629
36.108152,6.840403770728011,0.06005917047594407
36.11274399999999,6.787717115012637,0.05976143139020893
36.117332,6.724892310944845,0.05949094775547574
36.12192399999999,6.659980127104836,0.05918630411822592
36.126512,6.59224745520774,0.05888698002895976
36.13109599999999,6.518585296319547,0.0585728899696862
36.135684,6.4413253996407605,0.0582578447122779
36.14027599999999,6.369462109647862,0.057928523342839294
36.144868,6.292857277988433,0.057611784444128164
36.149452,6.211755274090764,0.05729358252024351
36.154048,6.131019824335532,0.056947440129282094
36.158644,6.0482411362567134,0.056609329199649304
36.163236,5.969426740110922,0.05623555103820551
36.167836,5.882805944813222,0.055899902416311265
36.172428,5.799660702591966,0.055558380987874946
36.177032,5.726775793437274,0.055176364994088845
36.181608,5.658510241234967,0.054772661420663574
36.18620799999999,5.586935462118988,0.05439999160707121
36.190796,5.520635104974749,0.054021438776601344
36.19539999999999,5.45997572394469,0.05361512213111147
36.199988,5.4016480921151375,0.0532221403916345
36.204588,5.351415370314415,0.05281470077930782
36.20918399999999,5.305679820751933,0.05239557860699147
36.213776,5.264729954304609,0.05200630227751359
36.21836,5.22137029539126,0.051652724604034486
36.22295199999999,5.180220200964272,0.05132208073349637
36.227544,5.144344528509026,0.05099009425521103
36.232136,5.10961265992972,0.050637002499912674
36.23672799999999,5.081831897503303,0.050292189045743445
36.24131199999999,5.057037949296752,0.04998191496394713
36.2459,5.037396238347794,0.049682711093464754
36.2505,5.022906764656435,0.04939417916984835
36.25508799999999,5.006540378804261,0.04917083651436584
36.25968,4.999412706856858,0.04892579127150617
