Time,Force,Position
37.492676,0.3845728790833188,0.0
37.497272,0.3638417453387901,0.0
37.50186,0.3450316652037028,0.0
37.506456,0.3299415075733525,0.0
37.511048,0.318326903019448,0.0
37.515632,0.3032367453890977,0.0
37.52022,0.2926437599969866,0.0
37.5248,0.28564851239546707,0.0
37.529392,0.2743665601671101,0.0
37.533984,0.2730327679432465,0.0
37.538576,0.2842232543526741,0.0
37.543156,0.3084708997006037,0.0
37.547752,0.3438105089289658,0.007803394663799694
37.552352,0.39097519032263445,0.015609106288267135
37.556944,0.4340636347008678,0.024309360203246644
37.561532,0.4856679243307357,0.03297813902273099
37.56612,0.5452993203556555,0.041661415274565655
37.570728,0.6102595194326838,0.05063195124685801
37.57532,0.6863116823901445,0.05942712969065578
37.579908,0.7748439825322684,0.06808334079361937
37.584504,0.8690716398689375,0.07685158216801442
37.589096,0.9782333683049218,0.08545674999717146
37.593688,1.0941120730972451,0.0942052898083061
37.598276,1.2163412001034704,0.10304112744980955
37.60288,1.347619052666541,0.11185394505527996
37.607472,1.4956298452242227,0.12046495027284372
37.612068,1.6525230371759758,0.12900077941932037
37.616648,1.8147450321798375,0.1376937122596644
37.621256,1.9911577503664015,0.1462815209344901
37.625848,2.1617087851956462,0.15474759700568588
37.630444,2.3179366724963044,0.16327227758068508
37.635036,2.4593085319631647,0.17181072866582361
37.639632,2.592653285034973,0.17248431291820462
37.644228,2.721368441522657,0.17303947902513397
37.648824,2.854037650311631,0.17257447233396825
37.653428,2.9795011438876835,0.1721301269631167
37.65802,3.09591591190689,0.1716567150671588
37.662612,3.207246246302281,0.17084010730478297
37.667212,3.3087506054073232,0.17012926767861308
37.6718,3.3987964464894964,0.1695981440645989
37.676388,3.4838019953964805,0.16891660195250466
37.680976,3.5582484607282425,0.1683862783050452
37.685572,3.6294535027801125,0.1676496026430425
37.690168,3.697128610675169,0.16669863440448768
37.694748,3.754444862974668,0.16574044932457135
37.699344,3.797726478622499,0.16500843335708446
37.703932,3.830082456552671,0.1644037798797433
37.708528,3.859807934773678,0.1635549083793664
37.713116,3.883882197248768,0.16270312575517104
37.717704,3.9066904711337735,0.16193677925531194
37.7223,3.930808875057491,0.1611614027274197
37.726888,3.95546015928642,0.16039563446987984
37.731476,3.979989258801204,0.15965468160432938
37.736064,3.999488305772537,0.1590398028271144
37.740656,4.019476091600453,0.15839750517437573
37.745252,4.040196985713243,0.15768378291740448
37.749848,4.064759987044916,0.1568623538559508
37.754448,4.091244041986029,0.15599887478818408
37.759028,4.115562673889411,0.15522505216835425
37.763628,4.144622847459322,0.15431914943200742
37.76822,4.172905771295732,0.15343226828336462
37.77282,4.201188695132141,0.15254994839658126
37.777408,4.227917119501547,0.15169963223640737
37.782,4.251702871099718,0.150957403659216
37.786596,4.277453817755958,0.15023143622455032
37.791192,4.304881448593347,0.14947419538507464
37.795772,4.336029001935474,0.14862124843034547
37.800368,4.365910566687518,0.14784216412765863
37.804972,4.393871077830119,0.14713537094680953
37.809572,4.422731023420367,0.14641846133935596
37.81416,4.453634207334202,0.1456346282469553
37.818756,4.487357879305128,0.14478206122857104
37.823348,4.521858801009555,0.14393245508848332
37.827944,4.559957460504573,0.1430124716260473
37.832528,4.590249720847681,0.1423168906647042
37.837124,4.615311700667674,0.1417877961836457
37.841708,4.6364093885546405,0.14138097759982562
37.8463,4.652643350060931,0.14110701986842103
37.850892,4.669898930729014,0.14080175966822742
37.855472,4.683923327748942,0.1405430051162777
37.860064,4.699091528644809,0.14024711371562126
37.864656,4.712949599501965,0.13994225469319221
37.869244,4.731793581453942,0.1395152843751106
37.873848,4.7499824983865615,0.13908578942071334
37.878436,4.769026708318202,0.13858586690807173
37.883024,4.786882972925275,0.13806597243597818
37.887608,4.802529673045987,0.13755795459338982
37.892196,4.817354981984567,0.13700018308861694
37.896792,4.82907129198914,0.13646602950158063
37.90138,4.836290429755473,0.13601296238732077
37.905976,4.843343241359032,0.13551354825944806
37.910564,4.848064303762086,0.1350320558853793
37.915164,4.8487769327834815,0.13458654773214562
37.919752,4.845236758994931,0.13419940940792718
37.924352,4.845005812120052,0.1337087210764745
37.928948,4.84652959269184,0.1331207629482213
37.933544,4.8463766890824775,0.13255215099833453
37.93814,4.84941082767264,0.1318904211956081
37.942736,4.85064609736751,0.13125902212732296
37.947324,4.848572140148706,0.1307290826252717
37.951916,4.843144814567603,0.1302424186515997
37.956508,4.837473119558208,0.129776441010372
37.9611,4.823095590949254,0.1295107180818058
37.965688,4.808595877626154,0.12925517723283772
37.970272,4.787067014884647,0.12917640825995078
37.974852,4.765948847734204,0.12912452792680296
37.979448,4.744586311155469,0.1290927729288742
37.98404,4.721346862415921,0.12916373979495022
37.988628,4.697129935963209,0.12932749198622495
37.993224,4.677287997034587,0.12942237955146313
37.997812,4.658267449288098,0.12957040442602402
38.002404,4.639291042990236,0.129780588370228
38.006992,4.624200885359886,0.1299663122999613
38.011572,4.610420857768249,0.13016557349041702
38.016168,4.598195329643616,0.1303522879481251
38.02076,4.592676538243584,0.13045536540032257
38.025352,4.591654919081791,0.13048149933760086
38.029936,4.590921810796917,0.1305462638490843
38.034528,4.596606928359724,0.1304964209190669
38.039124,4.6067892181607695,0.13037163280742958
38.043708,4.618692333591594,0.13028763776562086
38.048312,4.63611424042245,0.13010794653531843
38.0529,4.656356635310396,0.12987085324715855
38.057496,4.677498464645989,0.12962110835909138
38.062084,4.707756823172208,0.12921205526570673
38.066684,4.738015181698426,0.12880300217232207
38.071284,4.770072409119939,0.1283694658797812
38.075884,4.8062161131886265,0.12783833735963132
38.080468,4.8487339016563675,0.12713864920322174
38.08506,4.891373874838254,0.12643966814816596
38.089656,4.934502586876723,0.1257088663942212
38.094244,4.978486591914211,0.1249059269221726
38.098832,5.022837151094136,0.12408377606201962
38.103428,5.071274186921236,0.12317827643463415
38.10802,5.118933973014832,0.1222885852119618
38.112604,5.159764837669685,0.1214899327887949
38.117192,5.196098530086298,0.1207614576772664
38.121788,5.230877723035906,0.1200434617033079
38.12638,5.259483059566124,0.11941528479679929
38.13096,5.287022635485921,0.11875964773460898
38.13556,5.314640254671236,0.11803997573911779
38.140148,5.335062398275368,0.11742525386989115
38.144732,5.35458510743185,0.11682230904810498
38.14932,5.3726755018354755,0.11621712132669602
38.153908,5.3840591595145,0.11567403484546455
38.15852,5.398874228821343,0.11504401101516162
38.163108,5.411357548927679,0.11442374318088777
38.167696,5.418688631776419,0.11385555456020552
38.172292,5.42152254238692,0.11334871548751714
38.17688,5.4220247037969145,0.11284872775814056
38.181476,5.417374627949313,0.1123950490400788
38.186068,5.412602367387567,0.11195084579254487
38.190672,5.406642161501252,0.11148314042817577
38.19526,5.396184783376699,0.11106948406418253
38.19986,5.38507234023279,0.11064783179600106
38.204448,5.3747371468223815,0.11022311954474553
38.209048,5.368610614773293,0.10971159444490713
38.213636,5.361051767971347,0.10919151425566402
38.218236,5.355169605350549,0.10865884412143942
38.22282,5.3498203230349635,0.1081444559622764
38.227416,5.343449421557584,0.10764846627875589
38.231996,5.339776823423149,0.10712063176977692
38.23658,5.341090136383534,0.1065107628589794
38.241172,5.342036895201484,0.10592682877426689
38.245764,5.346581391810024,0.1053035544812422
38.250344,5.347938846219037,0.10474951816234145
38.254928,5.349706996219117,0.10422172677803843
38.25952,5.353684710705558,0.10369973188305862
38.264112,5.360238543820796,0.10316119334875275
38.268708,5.364626953898302,0.10266543066427297
38.273296,5.371224928462168,0.1021741459888552
38.277884,5.378600152759536,0.10168472020374625
38.282464,5.383199030448443,0.10128581541060819
38.287044,5.388575157870852,0.10088692079546173
38.291652,5.394606350312618,0.10049890524867161
38.29624,5.406278518868563,0.10004425951543289
38.300844,5.415418710244337,0.09966384665569136
38.305436,5.427012835534764,0.09927606357584495
38.310024,5.439262025844548,0.09889882680402266
38.314612,5.449590162544889,0.0985482232527721
38.3192,5.465559275359409,0.09813556640909069
38.323796,5.479485149850346,0.09775584137318243
38.328376,5.490101797427607,0.0974492021696944
38.332976,5.505337801957253,0.09709700605740801
38.337556,5.51943000261096,0.09677240969763393
38.342152,5.5334000185505205,0.0964572339169807
38.346744,5.546714969470726,0.09613253793129649
38.35134,5.565260200914045,0.09572443799474448
38.355932,5.5836832476432186,0.09533012003222159
38.36052,5.608646704934218,0.09487015052477671
38.365124,5.640394942215334,0.09433380670892333
38.36972,5.673164798658245,0.09378869535798
38.374308,5.710920566195976,0.09317794287291768
38.378904,5.746755280124267,0.09258870162941349
38.383492,5.782589994052558,0.09200469338856795
38.38808,5.813805351028464,0.09147330274859244
38.392668,5.843344023823221,0.09094542036585701
38.397248,5.87390431577977,0.09040891585595615
38.401844,5.907773834649991,0.08982159101105451
38.40644,5.941887722948503,0.08921805659796073
38.411032,5.968972461828607,0.08871245552512713
38.41562,6.0020647309653254,0.08813463371390946
38.420208,6.032825250901538,0.08755211739837199
38.424796,6.058311348866009,0.08700315500236946
38.429384,6.083553077402188,0.08647077144433893
38.433988,6.110960228976101,0.08590741427864003
38.438576,6.139511184425952,0.08532429477792249
38.443172,6.162054609619189,0.0848219910411127
38.44776,6.181899731469481,0.08433905820457131
38.452348,6.196226061919742,0.08390035787728929
38.456948,6.203234732074673,0.08351689096676652
38.461536,6.209343967781957,0.08314146805708315
38.466132,6.211733280984506,0.08279591688778175
38.470724,6.216043647796492,0.08243190818393176
38.47532,6.220476199322626,0.08206220077859283
38.4799,6.22208826279167,0.0817138800813087
38.4845,6.227786802907888,0.08131655523838457
38.489084,6.232585908576459,0.08092679378646911
38.493684,6.228801365359615,0.08060962974006919
38.498276,6.22591625659042,0.0802874418490899
38.502872,6.224297136411311,0.07993696682960146
38.507452,6.218835909013319,0.07962187498682517
38.512044,6.213374681615327,0.07930509846317849
38.516644,6.206891835055539,0.07899818386312767
38.521236,6.20191934651413,0.0786501269649996
38.525816,6.1950258043632775,0.07831920092830674
38.530404,6.18968676167943,0.07799506480523727
38.534992,6.184592088423874,0.07765542804938969
38.539588,6.178720165434815,0.0773113645132559
38.54418,6.172848242445757,0.07696544620709915
38.548772,6.169674622799643,0.07660644851418978
38.553364,6.163802699810584,0.07625958012631985
38.557952,6.157153527088024,0.07590803493068021
38.562556,6.150748723793757,0.07554170088159544
38.567136,6.140379628566459,0.07521264578630998
38.571728,6.130665598358519,0.07489217832714774
38.576324,6.11698727621755,0.07460951912428553
38.580912,6.100366281305346,0.07435277108378542
38.585504,6.088242458631381,0.07407442070363411
38.590092,6.077018070405063,0.0737919412658531
38.594684,6.069757974111775,0.07347221269837238
38.59928,6.061476258656693,0.07316308086210653
38.603872,6.0567922809922035,0.072838964481027
38.608468,6.056727660280098,0.07248883741890014
38.613048,6.057195919873202,0.07215912905371269
38.617644,6.0565203755903685,0.07184734429454939
38.622232,6.053146527964591,0.07154656220303462
38.626836,6.048628876462874,0.07126263608782268
38.63142,6.047586778037602,0.07097253436020928
38.63602,6.051164036564717,0.07065925696256434
38.640616,6.049999753425299,0.07037601533539747
38.645208,6.050634339181179,0.0700857228752968
38.649796,6.05678771633709,0.06977059103110363
38.654392,6.066661015997739,0.0694393538595144
38.658976,6.081642411467355,0.06905763309744702
38.663572,6.102753521907733,0.06861823764707031
38.66816,6.127584554852846,0.06816184059557445
38.672748,6.156502064445134,0.06766786638719957
38.677336,6.187829366503448,0.06713758567064841
38.681936,6.222099341332996,0.06659344868718224
38.686524,6.254326077838956,0.06607578446088112
38.69112,6.288596052668504,0.06554202921598411
38.695712,6.323110396926344,0.06500180411129874
38.700304,6.358890729774267,0.06444750636500698
38.704904,6.39389381288869,0.06389367467325106
38.709484,6.429019080717257,0.0633327007241568
38.714076,6.467209206031205,0.06274940560247849
38.718664,6.5084641888305335,0.06214128384356053
38.723252,6.546243618553415,0.06153715387404539
38.727856,6.580669679913998,0.06093316259267728
38.732444,6.62073671738876,0.06030444655612647
38.737044,6.661703189311168,0.05967805926276794
38.741636,6.697028685119399,0.05908066997408127
38.746228,6.7283898889946006,0.05851655631732473
38.75082,6.756031170365066,0.05796898622300271
38.755416,6.776110422011912,0.057456060623071854
38.760016,6.791692501420517,0.056951106684531114
38.7646,6.8064973310956205,0.056445793694363304
38.7692,6.818237303285344,0.055966183630256884
38.77378,6.823314680199096,0.0555156401819873
38.778388,6.82299545042696,0.055069759572887456
38.782976,6.820755167045383,0.054632816985263954
38.787576,6.811607918959542,0.054233143820677066
38.792172,6.796575325331232,0.05386416957973369
38.796764,6.776023940302888,0.05350424724819466
38.801356,6.753018621359894,0.05313057946239175
38.805952,6.725149576036222,0.05277824939028364
38.810552,6.696381096264902,0.052425349290167025
38.815148,6.667490431779437,0.05207600105760137
38.819736,6.639132647599182,0.051743480966335346
38.824332,6.609220363951925,0.051398204458912286
38.82892,6.5744443539239885,0.05107235915888949
38.833508,6.536847855838964,0.050750402410576954
38.838088,6.491933697458611,0.050433744863318385
38.842692,6.445753550488176,0.05013314442957086
38.847284,6.401005718270597,0.04984818485639384
38.85188,6.356912951072375,0.04957272808487279
38.856472,6.301704557808569,0.04936398262204831
38.861052,6.24240968789759,0.049180933119663116
38.865648,6.1801721452153755,0.049009110168385155
38.870236,6.117445863676578,0.04886182135308293
38.874824,6.050755290204753,0.048733486670459854
38.87942,5.986885204790017,0.04859531719757349
38.884008,5.922526380518698,0.048485053953190235
38.888596,5.856779382943148,0.048403006708110374
38.893184,5.789522027349221,0.04835522093328619
38.897776,5.720343618145854,0.048312374358132903
38.902372,5.646057113133519,0.048305705894092915
38.906964,5.566540327598072,0.0483492916884738
38.91156,5.480238762072506,0.04842721781572071
38.916144,5.386908047128532,0.04855113784129956
38.920744,5.293699516898704,0.048667464920561315
38.925324,5.201146051688231,0.04880237019414229
38.929928,5.111046520392411,0.04895717410677953
38.93452,5.01788213161121,0.04914354339773595
38.939116,4.92189725477292,0.04934438716821439
38.943712,4.822969705163395,0.049567492376649036
38.948304,4.7308269355439885,0.049764804287893476
38.952888,4.63982796980052,0.049947210858260545
38.957484,4.551649492114142,0.05012085220725111
38.962072,4.462693764694261,0.05029206149895123
38.96666,4.37259423339844,0.05049291649075219
38.971244,4.278652594883737,0.05072104577778262
38.975832,4.181357588006734,0.0509422312090895
38.980416,4.087371808043403,0.05111109508808052
38.985012,3.996983765870663,0.051285198644851086
38.989596,3.906106984841341,0.05151436072245162
38.994184,3.8180506918691077,0.0517372021717003
38.99878,3.7362462985817815,0.05188276150906033
39.003356,3.6564851436180423,0.05201454958235154
39.007944,3.5803217264448945,0.05215271574235213
39.012552,3.5030145053958073,0.05232193843118277
39.01714,3.425829469060866,0.052486896943006414
39.021744,3.352608724658953,0.052609863048867965
39.026328,3.2824528377424205,0.052697933263978654
39.03092,3.2133185699876816,0.05277869989655441
39.035504,3.145328106108882,0.0528351822947549
39.040104,3.07656039249658,0.05287913310501399
39.044696,3.006648875008339,0.05295750257542087
39.049288,2.9357157383583043,0.05305287966739269
39.05388,2.869279773946509,0.053144944675869374
39.05846,2.8088513397913295,0.053151577628920865
39.06306,2.7476456559026476,0.053151883983050124
39.067644,2.688238840909261,0.05315332170214986
39.072244,2.629364906221085,0.05319446870924053
39.076828,2.569303026208343,0.053143333463493266
39.081412,2.5088304506045347,0.053032476563787734
39.086,2.4429612683148396,0.052931905210773914
39.090596,2.370551675463318,0.052861070621013424
39.095188,2.2982642673259424,0.052765230639736205
39.09978,2.222501306112121,0.05266378785341714
39.104372,2.149025952650178,0.05245178562057832
39.108956,2.077593837511822,0.05217078521628086
39.113544,2.000520746259287,0.05192054623316537
39.118136,1.9214044166831659,0.05172005096760575
39.122732,1.8424102718211897,0.05147585436763557
39.127324,1.7614950733497723,0.05124317888343416
39.131916,1.6804576901642092,0.051022101849690686
39.136504,1.602485164464027,0.05067337229026041
39.141088,1.5233688348879055,0.047993985159805415
39.145676,1.4406547675211927,0.04531239999530688
39.15026,1.351155920164362,0.04268627506901659
39.154868,1.2660320603316249,0.04004700787220069
39.159452,1.1846281230036249,0.037397381795675734
39.164044,1.1006480670468273,0.03474335762137001
39.168636,1.0141360339098597,0.0321672001995049
39.173236,0.9310995538493378,0.02960324012876411
39.177828,0.853459680474703,0.027025766537253654
39.182408,0.7828930979671055,0.024458584549549706
39.187004,0.7138810149265123,0.021909178295502183
39.191588,0.6483444849623649,0.019346260932697982
39.196188,0.5832186505892826,0.016870402224764828
39.200776,0.517040393284989,0.014455990905471349
39.205376,0.45715817711423046,0.012039964490673368
39.209972,0.4018953178958568,0.009584646583429226
39.214572,0.35010801175392886,0.007165966573365538
39.219164,0.303717312297888,0.004745003014125057
39.22376,0.2609243506324386,0.002322197113594385
39.228348,0.21968588843399353,0.0
39.232944,0.1831889679020791,0.0
39.237548,0.15118921960840387,0.0
39.24214,0.12560769716240924,0.0
39.24672,0.10194722832585605,0.0
39.251308,0.07906400922280504,0.0
39.255896,0.06055577764384761,0.0
39.260492,0.04678908773142077,0.0
39.265084,0.034821266714289645,0.0
39.26968,0.024652314592454216,0.0
39.274272,0.014483362470618787,0.0
39.27886,0.007134898405872582,0.0
39.283452,0.002606922398215604,0.0
39.288044,0.0,0.0
39.292636,0.0,0.0
39.297224,0.0,0.0
39.301812,0.0,0.0
39.30642,0.0,0.0
39.311008,0.0,0.0
39.315608,0.0,0.0
39.3202,0.0,0.0
39.324792,0.0,0.0
39.329396,0.0,0.0
39.333984,0.0,0.0
39.33858,0.0005636840746285575,0.0
39.343168,0.001127368149257115,0.0
39.347768,0.0036121058333270463,0.0
39.352348,0.006996277965044829,0.0
39.356948,0.011934949563766973,0.0
39.361536,0.021737347543165385,0.0
39.366132,0.028719257465474574,0.0
39.370716,0.03300286404484021,0.0
39.375312,0.03932970894779289,0.0
39.3799,0.04962084578377399,0.0
39.384488,0.06273247067684432,0.0
39.389076,0.07584409556991464,0.0
39.393664,0.09063240464413501,0.0
39.398252,0.10542071371835536,0.0
39.402844,0.11918740363078219,0.0
39.407424,0.1319324743814155,0.0
39.412016,0.14377811068440094,0.0
39.416612,0.15472431253973856,0.0
39.421192,0.16669213355686968,0.0
39.425788,0.17583946651691157,0.0
39.430376,0.1835236809546771,0.0
39.434968,0.19030846094479473,0.0
39.439564,0.1924738839825275,0.0
39.444152,0.19104156922966875,0.0
39.448748,0.19034236276168412,0.0
39.453328,0.18069295326584908,0.0
39.457916,0.17371104334353993,0.0
