Time,Force,Position
37.373788,0.5970616413616254,0.013762524019523631
37.378372,0.5455495084174066,0.011396516144131048
37.38296,0.4995561668732204,0.009069687389856475
37.38756,0.4551173247960386,0.006816508423922953
37.392152,0.41631945883303534,0.004536026252642711
37.396748,0.3807527765181864,0.002304094559827606
37.401328,0.3546691775363987,0.0
37.405924,0.333571489649433,0.0
37.410504,0.3169709740007065,0.0
37.415112,0.30384601142842577,0.0
37.4197,0.2884334411042666,0.0
37.424296,0.28172670437966646,0.0
37.42888,0.26991187184609877,0.0
37.433472,0.258097039312531,0.0
37.438076,0.2507793790172025,0.0
37.442672,0.24550495704546105,0.0
37.44726,0.24521644616854155,0.0
37.451844,0.24684898890106344,0.0
37.456432,0.2484815316335853,0.0
37.461024,0.24897027049016798,0.0
37.465616,0.2511356935279007,0.0
37.470204,0.24868175961324848,0.0
37.4748,0.2402202954419808,0.0
37.47938,0.2280638421221645,0.0
37.483972,0.21780350905560114,0.0
37.48856,0.20508924207438556,0.0
37.493152,0.18931011760778943,0.0
37.49774,0.17139050345964899,0.0
37.50232,0.1544925084733021,0.0
37.506916,0.13895775343499725,0.0
37.511504,0.128164540063223,0.0
37.516096,0.11228816423866964,0.0
37.520692,0.1057579933085821,0.0
37.525276,0.1101195582792639,0.0
37.529872,0.12124224105491274,0.0
37.534452,0.14092491053082434,0.0
37.539052,0.17121080503058575,0.009881979159530563
37.54364,0.21001254478198172,0.019400138067710244
37.54824,0.2632154753274822,0.02829031565085513
37.552824,0.3322519114199458,0.03690284553291986
37.557424,0.4122581266786961,0.045438879559731554
37.562016,0.5060546091608225,0.05380350911454381
37.566612,0.6177278355134992,0.06191649157268008
37.571196,0.7404680923904198,0.07007999014486341
37.575788,0.8672519556369241,0.0783213770570781
37.580388,1.0089698899827437,0.0863918222129736
37.58498,1.1610025384754936,0.0944537952712119
37.589568,1.326023271101929,0.10244670438018522
37.594164,1.50123653316115,0.11043672448967129
37.59874,1.686545073295198,0.11839427014751723
37.603336,1.8803694586808812,0.12633692614054123
37.607924,2.089469535952128,0.13418157698918648
37.61252,2.3003831758431197,0.14186705260666324
37.617112,2.4993393192229214,0.14952954731967164
37.6217,2.6921452683684834,0.15709375276984525
37.6263,2.8762249046510093,0.1645909205606168
37.63088,3.0461035781190935,0.16224524906140222
37.635468,3.2063226024596037,0.16027619686067107
37.640064,3.352262620720156,0.15897908114796744
37.644648,3.487477229242713,0.15789898856501164
37.64926,3.6143762204932965,0.15677628890298786
37.65384,3.724009391444059,0.15594136097319797
37.65844,3.819197230152089,0.15534109966069015
37.663032,3.9084012007886546,0.15457392724471627
37.66762,3.9895000217646497,0.1537758388043135
37.672216,4.053865902746035,0.15323627729451458
37.676808,4.106606939541776,0.15271039553567792
37.681404,4.144902644094785,0.1522949913953145
37.685992,4.175293426966887,0.1517841414472659
37.690592,4.198189983749147,0.15121401187447556
37.695172,4.209095142203327,0.15068908556148292
37.699776,4.206087848719986,0.15027093630285443
37.704368,4.198949937140842,0.1499295387299161
37.708964,4.198518762286298,0.14946880877071844
37.713548,4.197232294432735,0.14909870105737993
37.718144,4.198688271370743,0.14873589580725108
37.722732,4.207217539175789,0.14822560885134312
37.727328,4.215746806980835,0.14771454613826562
37.731916,4.228651062309974,0.14711545608219243
37.736512,4.242088197944325,0.14654033084269882
37.7411,4.2518495525225655,0.14612621025474287
37.745688,4.272281935758437,0.14548765602158248
37.750276,4.296067687356608,0.14480259787505448
37.75486,4.318343080936402,0.1442111678581951
37.759444,4.343438962573286,0.14355032230677545
37.764032,4.375730319791352,0.14273604303579515
37.768628,4.412807360124578,0.1418741736541803
37.773216,4.456713321896549,0.14090370055998608
37.777808,4.495144633717115,0.1401208230115791
37.782404,4.529367284176361,0.13947797202340606
37.786984,4.569763791054997,0.1387257731729321
37.79158,4.613635851010079,0.13791874689797465
37.796168,4.6550981184991365,0.13721503642063201
37.80076,4.689531236569785,0.1367161023789943
37.805356,4.724985973802226,0.13619378736739884
37.809944,4.758764026853518,0.13570541411491197
37.81454,4.787023288504778,0.1353406941590282
37.819128,4.8156491042984735,0.13494301773185285
37.823728,4.8409215517298705,0.13459424841382966
37.828312,4.865416749427764,0.13425641166927368
37.832912,4.890278501268096,0.13388143822945295
37.8375,4.908189146955534,0.13362415095478414
37.8421,4.9235236740141755,0.13340928630213228
37.846692,4.936648636586456,0.13320088171680905
37.851288,4.9494850882818175,0.1329578368489878
37.855868,4.957413672147875,0.1327687283057855
37.860456,4.963743615098299,0.13253413356933383
37.865044,4.965287874933564,0.132339746509797
37.86964,4.971529534986731,0.1319900652188332
37.874228,4.980669726362506,0.13151667880399667
37.878812,4.981304312118386,0.13115116641850985
37.883392,4.983815810035077,0.1306947014942355
37.887984,4.9869382315224975,0.13018705469653116
37.89258,4.990138696275436,0.12960629249909164
37.897172,4.991251781256159,0.1290190860482929
37.901768,4.993630854826968,0.12839119433151777
37.906356,4.995477048092565,0.1277436333832266
37.910948,5.000388098843542,0.1270289311751877
37.915536,5.006565138184604,0.12626982307571605
37.920124,5.010166058896869,0.12554131161799267
37.924736,5.014910783485071,0.12477826816805306
37.929316,5.023619800006304,0.12393223519042602
37.93392,5.029508328470446,0.1231334178103766
37.938512,5.0342530530586505,0.12236531807047762
37.9431,5.039775027380356,0.12160039999907202
37.947696,5.048650370064362,0.12080415264884234
37.95228,5.053849931692259,0.12012916641321625
37.956876,5.059704558339512,0.11946149283058029
37.961456,5.066991499739625,0.11880537372282925
37.966056,5.074689136730802,0.11818265806172648
37.970644,5.092158367931959,0.11743687316107271
37.975248,5.102109710858126,0.11687942684658759
37.979836,5.114881541841382,0.1162822775882896
37.984436,5.132316871225651,0.11567345651403203
37.989028,5.150940145934487,0.1150917184729557
37.993624,5.16547694399615,0.11459734760303658
37.998204,5.185410348743698,0.11403852138539303
38.0028,5.200890722701636,0.11359620667076001
38.007388,5.216659607536494,0.1131923394634492
38.011984,5.238846718219031,0.11270645201162671
38.016572,5.263487762816222,0.11221238317222629
38.021156,5.285474645519096,0.11180932934128963
38.025748,5.311714331031919,0.11136971769826351
38.030344,5.3443722423924225,0.11085145057411279
38.034924,5.375764165162841,0.11037791899016879
38.03952,5.403969045733732,0.109974008586117
38.044112,5.43229611101877,0.10955533865810485
38.0487,5.4596015571420144,0.10915703916987439
38.0533,5.485885384103465,0.10878589602914099
38.057888,5.506406050236592,0.10850303319802765
38.062484,5.5201419363796,0.10833275709990708
38.06708,5.538374994760849,0.10810953229873697
38.071668,5.552399391780777,0.10797468349026569
38.076276,5.567034712371433,0.10779873386432218
38.080864,5.582691652123884,0.10760602032093478
38.085456,5.600025276057486,0.10740102130856993
38.090052,5.611351369734471,0.10730075944720335
38.09464,5.623044017553893,0.10717278549642917
38.099244,5.636124838677546,0.10700128056683088
38.103832,5.6433203142587285,0.1069248362633306
38.108428,5.647939671211114,0.1068690313257873
38.113016,5.650227278962992,0.10681485803708395
38.117616,5.652104191123806,0.10673564798804114
38.122204,5.650383365494027,0.1066941887139976
38.126804,5.644942617359512,0.10669824991329423
38.131392,5.640890042529227,0.10665847375518381
38.135992,5.64247844381312,0.1065463036221512
38.140588,5.6467651484399575,0.10640709350838103
38.145188,5.647331930562059,0.1063129687428636
38.149772,5.654439123245985,0.10613755489901254
38.154364,5.66076906619641,0.10596137403034447
38.158956,5.665011629374619,0.10577002632054648
38.163548,5.6703979964287665,0.10555175534108611
38.16814,5.671820071549887,0.10539715712523431
38.17274,5.6733643313851525,0.10523524431621015
38.177328,5.6779734487057985,0.10502228620342098
38.181916,5.686791227387765,0.1047317430052804
38.186496,5.698307309412673,0.1044158851546483
38.191092,5.707780153113997,0.10413644992937164
38.195684,5.716597931795962,0.10384705811592777
38.200276,5.72504915633549,0.1035832577601482
38.204872,5.737997553113258,0.10327571981880283
38.20946,5.751601014910382,0.10297948000134713
38.214052,5.765204476707507,0.10268559749361039
38.218644,5.784693284047103,0.10230806909828205
38.223232,5.809045817767373,0.10187129232709868
38.227836,5.828656809821112,0.10149553276241541
38.232424,5.847368367427205,0.10113101007340278
38.237028,5.868000978642739,0.1007408847849553
38.241616,5.887978524838916,0.10034818865967869
38.246216,5.914863035739356,0.0998651688502509
38.250808,5.943424230820948,0.09937709415452514
38.255408,5.975050283387919,0.09884793288456113
38.26,6.007697955116685,0.09830357640962847
38.264592,6.0387911273784445,0.0977638820452523
38.269184,6.065631496830258,0.09724930157008581
38.273772,6.092716235710359,0.09672693763841393
38.278376,6.117591410104103,0.09619821857322237
38.282964,6.141933704192634,0.09565411638335408
38.287564,6.170362474928339,0.09505366331650139
38.292148,6.200668157824859,0.0943883047534459
38.296748,6.2326063834539,0.09368074771684187
38.30134,6.26041399098714,0.09298453617690923
38.305936,6.283968795710431,0.09230479907609261
38.310516,6.304292416785567,0.09163409872763281
38.315104,6.31717619285123,0.09103397564147875
38.319696,6.333735749973002,0.09035830693280601
38.324292,6.351805665113148,0.08964488226902391
38.32888,6.369464884662231,0.08890841669284207
38.333468,6.383648551134868,0.08819043995161718
38.338056,6.391413991759824,0.08752592018182342
38.342656,6.397869302346066,0.08684485149698268
38.347244,6.3989280062464235,0.0861983449263514
38.351832,6.398432210679775,0.08554698348044455
38.356424,6.39421649260839,0.0849217821395077
38.361012,6.389101340089357,0.08429824407383778
38.365604,6.380021895637294,0.08371850260834929
38.370196,6.37159751620459,0.0831475873014176
38.374784,6.3661158095431185,0.08254758497737183
38.379392,6.354993126767469,0.0819912228419603
38.38398,6.343748259277675,0.08144327297320098
38.388576,6.3264958615312645,0.0809598278985021
38.393168,6.312963386289592,0.08044840964184723
38.397756,6.304827517733807,0.07990761871390965
38.402352,6.297224529483231,0.07938339502158247
38.406944,6.290398790966158,0.07885850309631072
38.41154,6.2803860102495594,0.07837668922405866
38.416128,6.266531122314077,0.0779261686528803
38.420732,6.254352918559745,0.07747384736133808
38.425312,6.243851398986563,0.07701897950696417
38.429912,6.234127129146883,0.07656526179539637
38.434504,6.224935739612414,0.07612830171414439
38.439096,6.218320468706744,0.07568482572744903
38.443692,6.214525685858162,0.0752220510557954
38.448292,6.215228075247821,0.0747383991656351
38.452884,6.224269744094601,0.07421008732245572
38.45748,6.234333032103174,0.07366950463690217
38.462088,6.246317373721189,0.07311775280205311
38.466684,6.254093053977884,0.07261734525017538
38.471272,6.268409144796404,0.07207922820931167
38.475868,6.279416008701253,0.0715877427512202
38.48046,6.297085467882075,0.07105411761115574
38.485044,6.312711688739309,0.07054343923686279
38.489632,6.32731629043475,0.07004715737618407
38.49422,6.34192089213019,0.06955240036031524
38.498808,6.359468166596867,0.06903540300798028
38.503404,6.3784477558164,0.0685347527402619
38.507996,6.398204594769436,0.0680378745152068
38.512576,6.417061999274825,0.0675470996488112
38.517172,6.436163773208505,0.06704487927422374
38.52176,6.45706441603748,0.0665390664966262
38.526352,6.479108862742395,0.066020253313005
38.53094,6.504095982218543,0.06548531515283343
38.535528,6.531781405037636,0.06495094232467521
38.540136,6.560732816446814,0.06440011874969699
38.54472,6.582122198132372,0.06389353502759192
38.549324,6.606698622017456,0.06335816936147527
38.55392,6.631275045902541,0.06282870208395089
38.558508,6.656095839215917,0.06228429642127694
38.563104,6.678995578919852,0.06175640482441644
38.567696,6.704060741661519,0.06120536254222058
38.572288,6.723362743574864,0.060688257124598
38.576876,6.742664745488207,0.060171350363309395
38.581476,6.756325771287371,0.05967561974754466
38.58606,6.77292946985777,0.0591661003653778
38.590664,6.788633733980523,0.05866082216173413
38.595252,6.803682933083918,0.05814585730934263
38.599852,6.820653185796754,0.057623332847906224
38.604448,6.837501253795444,0.05710897611755293
38.609044,6.855004386813492,0.0566087807420717
38.613636,6.870708650936242,0.056112550558468484
38.618232,6.884003122592969,0.05565148586945504
38.622832,6.889613379811932,0.05522463823656065
38.627428,6.887417237878982,0.05483848071079383
38.632016,6.877048142651686,0.054509379566656274
38.636612,6.871054034948483,0.054181946994561594
38.641204,6.8615063309033175,0.0539017697691702
38.645792,6.84913813880106,0.05363051108826434
38.650372,6.8421665533846925,0.053354758483390746
38.654964,6.833151729644737,0.05309287324340188
38.659552,6.825691405371785,0.05284244540626972
38.66414,6.821051569155921,0.052583410596940244
38.668724,6.8173111673877065,0.052323452455578685
38.673312,6.821132795343112,0.05203965995146356
38.677908,6.819069077756048,0.05178429034652691
38.682504,6.816516621312399,0.05155371692302286
38.687092,6.811920926545165,0.05133590105590059
38.691684,6.806059243187846,0.05113725771558531
38.696276,6.799175940668734,0.05094480934340371
38.700864,6.793069887883123,0.05075875314789431
38.70546,6.78671946566922,0.050584390647732444
38.710048,6.780491228169464,0.050403406667159166
38.714644,6.778882347622093,0.05021358447716949
38.71924,6.781115574293605,0.05000929910206993
38.723844,6.791033015402881,0.049776722626135805
38.728436,6.796453284273919,0.04954622668630624
38.733036,6.798930880373721,0.04932732186041248
38.737624,6.7992430534357915,0.04912679041694112
38.742224,6.791993196774242,0.04894691648998889
38.746816,6.782822286503252,0.048772652499604385
38.751416,6.768909834565729,0.04861150522279553
38.756012,6.748989852371592,0.04848209590365575
38.760612,6.725760643263783,0.048384352458854994
38.765196,6.695868838880002,0.04830532216457922
38.769792,6.6648332306202835,0.04823856505931898
38.774388,6.63134368844591,0.04815827720602486
38.778984,6.596055277376243,0.04807683831466935
38.783572,6.556802574373546,0.04801532681997021
38.788168,6.514362829171324,0.04798013393457885
38.792756,6.462440000636038,0.04797233240866572
38.797344,6.407574499329519,0.0479782968083973
38.801936,6.351154498555996,0.04796849958546181
38.806524,6.290770205849444,0.047978713402110885
38.811116,6.225522186762216,0.04800922828303991
38.815712,6.1557769954367485,0.048036895155136275
38.820308,6.0810458930164595,0.048093017369100634
38.824896,6.004882475843312,0.0481296141833597
38.829492,5.926675820346577,0.048183109160965104
38.834068,5.846548111240399,0.04824600010280644
38.838664,5.763355544648842,0.04833362321077623
38.843248,5.677342490000196,0.048431731846925986
38.847836,5.594638662265223,0.048491157025837166
38.852428,5.512301388672686,0.048529155796057516
38.85702,5.429719745651859,0.04858349414472051
38.86162,5.3472602873451756,0.04863195106728436
38.86622,5.263657025162554,0.04869482942419697
38.870808,5.1837736854846685,0.04874596302635826
38.875404,5.1042568999492195,0.04877448248136449
38.879984,5.024984483842063,0.048789376657468166
38.884584,4.948532555791997,0.04879990030464822
38.889172,4.875023300513164,0.04879300267934101
38.893768,4.8001258719301,0.04881852880434005
38.89836,4.724206824185244,0.04885785851121865
38.902952,4.649309395602181,0.04889031354858845
38.907536,4.571469294247884,0.0489395988397891
38.912124,4.496571865664821,0.04897398930598446
38.916716,4.425272174872348,0.049005302022207216
38.921308,4.3525401693270185,0.04901027842766437
38.9259,4.280829782943482,0.04900715551722442
38.9305,4.21091826545524,0.049010737561891796
38.935088,4.141906182414647,0.04901823739805138
38.939676,4.065864949955645,0.049094953987747054
38.944268,3.9868810447254077,0.04919794787836477
38.94886,3.906997705047523,0.04930947757322422
38.953452,3.828135984531432,0.04940898702717645
38.958044,3.7482526448535474,0.04952703613382018
38.96264,3.661462340471399,0.049717729273038774
38.967232,3.5738947863557486,0.049893242703857296
38.971828,3.4864494169542435,0.05005765966126284
38.976416,3.4011694705904714,0.05018256827071465
38.981012,3.3092269289507272,0.050362176870045496
38.9856,3.216384952863335,0.05055767883016011
38.990188,3.125830584527822,0.050699842479961316
38.994784,3.0343767817446605,0.05084934087621558
38.999376,2.944599663142649,0.05102455509180307
39.003968,2.8539231100929903,0.05120929571432808
39.008552,2.7622249378815376,0.05141141871597478
39.013144,2.6740023187465307,0.05163039525663173
39.017748,2.585779699611523,0.05186137257376808
39.022344,2.4972685695995964,0.05200808816720572
39.02694,2.4081023745683137,0.0521290171796326
39.03152,2.32649820926065,0.05220896400025499
39.036112,2.2489805206001616,0.05219515534355511
39.040696,2.1724844511014667,0.0521694649608159
39.045288,2.09124683993624,0.052200858272535705
39.049876,2.008210359875718,0.05226627233776683
39.054476,1.926439868405281,0.05230079058687461
39.059068,1.843281203630614,0.05247159842863447
39.063664,1.7583236699606506,0.05265050840121974
39.068252,1.673121766862396,0.05288210700717856
39.07284,1.5920063404113156,0.0502733178089471
39.077428,1.5110130986743804,0.04763806069646351
39.082016,1.4300198569374458,0.04503465361021914
39.086604,1.347882811324572,0.04242279401850314
39.091196,1.268688438482933,0.039783464549188886
39.095788,1.192314553698383,0.03713338428824169
39.10038,1.1142639847326832,0.03447637903314648
39.104976,1.0381344693764245,0.03181205587518335
39.109564,0.9647032573631095,0.029134567752249825
39.114164,0.8945032289979491,0.026516379787967406
39.118752,0.8277787537092344,0.023909730834926042
39.123344,0.7601548439728718,0.021300756964575333
39.12794,0.6899989570563393,0.01876757002189395
39.132528,0.6195987007115156,0.016227972756502333
39.137124,0.5554944855002266,0.013642449016096398
39.141712,0.4988301152984121,0.011003474183172752
39.146316,0.4476845364966302,0.00834144033221662
39.150912,0.40128049936137894,0.005567163419868856
39.1555,0.36194975309316485,0.002795403016202946
39.160104,0.32249682211080505,0.0
39.164696,0.28651944420489095,0.0
39.1693,0.25606085769900977,0.0
39.17388,0.22985507400307637,0.0
39.17848,0.21325455835434984,0.0
39.18306,0.19743129243912558,0.0
39.18766,0.18328471070505123,0.0
39.192252,0.17404599680028138,0.0
39.196844,0.16468509818136587,0.0
39.20144,0.15442476511480252,0.0
39.206036,0.14109957456285857,0.0
39.210632,0.13227155624915388,0.0
39.215228,0.122666288201947,0.0
39.219828,0.11804693124956207,0.0
39.22442,0.11739186623020557,0.0
39.229012,0.12070109314387749,0.0
39.233604,0.12196708173396234,0.0
39.238196,0.12221145116225368,0.0
39.242784,0.12221145116225368,0.0
39.24736,0.11759209420986877,0.0
39.251948,0.11477160615277954,0.0
39.256544,0.11156535586081358,0.0
39.261132,0.10733748640705411,0.0
39.265728,0.10131074805799893,0.0
39.270308,0.09131971777591531,0.0
39.274904,0.08132868749383171,0.0
39.279496,0.0713376572117481,0.0
39.284084,0.06081374662445366,0.0
39.28868,0.05118927048480708,0.0
39.293264,0.04426309768810404,0.0
39.297856,0.04130121682442942,0.0
39.302452,0.03564103261781126,0.0
39.307056,0.032556967039990975,0.0
39.311652,0.028451282300377162,0.0
