Time,Force,Position
37.263412,0.2811301159938319,0.0
37.268004,0.2624422205728902,0.0
37.272596,0.2455531940472442,0.0
37.277188,0.2323840900263353,0.0
37.281772,0.22089167018657643,0.0
37.28636,0.215040226460996,0.0
37.290952,0.20882222859297855,0.0
37.295548,0.20325929574431761,0.0
37.30014,0.19181101735318684,0.0
37.304732,0.18024055424791047,0.0
37.309316,0.17136839448557764,0.0
37.313908,0.16748214581806672,0.0
37.3185,0.17211174240219043,0.0
37.323088,0.18411338036200955,0.0
37.32768,0.20732916691640688,0.0
37.332272,0.24024874404700614,0.0071481803582160814
37.33686,0.2833167091617618,0.01430824943643526
37.341456,0.33269095504179136,0.021548907915902773
37.346052,0.3908254156017468,0.02882539109647487
37.350648,0.45657628696568897,0.03629352280051283
37.35524,0.5335413069242093,0.043817791571210844
37.359836,0.6227420946391014,0.05143499138844562
37.364424,0.7196814778721259,0.059121762169455847
37.369024,0.8265248796610155,0.06671217572996976
37.373616,0.9372647697491548,0.07454346248300471
37.378216,1.056398320374783,0.08240003617473024
37.3828,1.1862131392897786,0.09020374103077489
37.3874,1.329040975694648,0.09793472915720357
37.391984,1.4857812640370391,0.10567905564208215
37.39658,1.6560233087258869,0.11334417513758893
37.401172,1.8323272647517173,0.1210579359258609
37.405768,2.0172692507433276,0.12872682241410996
37.410356,2.196926575131458,0.13638915804569157
37.414948,2.3662691853726576,0.14411511202546115
37.41954,2.526685254771158,0.15179823817723428
37.424124,2.675109925841577,0.1523831073328087
37.428716,2.815962327556638,0.15293469811748361
37.433304,2.9491202752021954,0.1534236115962996
37.437892,3.0736843343306006,0.15390875133800394
37.442484,3.192186482122023,0.15416678865088915
37.447084,3.3016399043566005,0.15431616904523823
37.451672,3.4018002316060403,0.15437261839305058
37.456268,3.4912792905661134,0.15443675606380927
37.460856,3.5706099615420297,0.15460075050183356
37.465448,3.6493975125809963,0.15441649273418884
37.470036,3.7215902719777696,0.15412311321824393
37.474616,3.7843677516752607,0.1538328037885381
37.479208,3.8333549641493754,0.15364746212898908
37.483796,3.868429724685969,0.15355643990823697
37.488384,3.891923782485547,0.15354462467685667
37.49298,3.9103775481099357,0.1533996447759623
37.497576,3.9189272951784595,0.15328995470065304
37.50218,3.931275008017238,0.15299493469360462
37.50676,3.9465653936272513,0.15260168570103652
37.511352,3.9603454212188884,0.15229898330687924
37.515944,3.976701567439324,0.15193775398744006
37.520536,3.9915032141927544,0.15159791431889727
37.525128,4.006671415088622,0.15121862351679427
37.529724,4.024249408450514,0.15073098850873748
37.534312,4.039373467897754,0.15028689572940765
37.5389,4.050655420126111,0.14995897456170484
37.543492,4.065002229839848,0.1495289909694439
37.548084,4.084457135362554,0.1489226210373247
37.552676,4.103256975865902,0.14831275155843623
37.55726,4.117926198273448,0.14778520864248298
37.561852,4.131818170947493,0.1472772954648324
37.56644,4.141501482260217,0.14691595197657245
37.571024,4.153516542773448,0.1465273918102562
37.57562,4.175914121067388,0.1458582792980926
37.580204,4.1992111338089755,0.14517046954258755
37.58478,4.215723366560446,0.14467974547401521
37.589364,4.228515676807179,0.1442826388545028
37.593952,4.235955521816653,0.14408993953443777
37.59854,4.246460224311507,0.14380370925215855
37.603148,4.259130349844094,0.14343847321641767
37.607736,4.272167029519118,0.14303877347051458
37.612328,4.28532589390829,0.14262701583478057
37.616924,4.299750746887545,0.14216405146899777
37.621512,4.310577862076207,0.1417836864908742
37.626116,4.326268703645547,0.14127659934663228
37.630716,4.349399390224361,0.1405975105907009
37.635308,4.367788535136646,0.14004264394599547
37.639904,4.382335572830046,0.13959235624409144
37.644508,4.3982707838276776,0.1390794912130516
37.649084,4.414983244558811,0.1385637887713464
37.653684,4.4297746516805026,0.13810096820178433
37.658272,4.449019089591806,0.13748009362761415
37.662872,4.468219386054481,0.13679824713066774
37.667464,4.481245826097767,0.13624475661138463
37.67206,4.493739385835841,0.13567668199291721
37.676652,4.5124848452588235,0.13492160936754732
37.681244,4.537482204366712,0.13398424709611192
37.685852,4.560147814274094,0.13305638183949495
37.690448,4.578071882514945,0.1322495879968468
37.695052,4.593542016841145,0.1314707587639603
37.699644,4.605292228662607,0.13076865125662
37.704224,4.618064059645862,0.1300415839114881
37.70882,4.624051110639,0.12947409358504125
37.713408,4.628239292736842,0.12893580835842514
37.717992,4.62666431400636,0.12853644395639816
37.72258,4.620714347751785,0.12821091945595725
37.727172,4.616807619820796,0.12782883798777978
37.731768,4.613800326337456,0.12742986381188373
37.736356,4.6086276098163825,0.1270976448812719
37.740948,4.601900393828303,0.1267745103294574
37.74554,4.592474874497283,0.12649851028450274
37.750132,4.585503289080914,0.126198152784669
37.75472,4.578820214541464,0.12593845100772424
37.759308,4.571770585859578,0.12571194591663282
37.763924,4.565253837482902,0.1255036149465204
37.768512,4.557593285230287,0.12533229619625394
37.773108,4.544824637168705,0.12528911785474078
37.777696,4.538474214954803,0.12513136313022424
37.782284,4.5326566730461115,0.1249917514256945
37.78688,4.532113553109162,0.12477666262297689
37.79148,4.535290355676949,0.12449243441235708
37.796072,4.538467158244736,0.12421008313848814
37.80066,4.551004859431439,0.1237535126611059
37.805256,4.567140298408733,0.12323812201071127
37.809844,4.586995659890764,0.12265641288054122
37.814436,4.603541794459124,0.12216810154180158
37.819024,4.620498624618549,0.12171173829220716
37.823624,4.641053192568566,0.12120592643031508
37.82822,4.665205498309173,0.1206489467588034
37.832812,4.692711172412081,0.12006483929731983
37.837408,4.724591834039082,0.1194214436239583
37.842,4.751853138713698,0.11886548208567885
37.846588,4.779236628102462,0.11830329427512919
37.851188,4.803555260005842,0.11780750491336003
37.85578,4.826075023013928,0.11733877363429653
37.860372,4.85039365491731,0.11685207321907103
37.86496,4.8811305126683715,0.11626854630849308
37.869548,4.9068814593246115,0.11579854621241491
37.874136,4.931855156247349,0.11532884373639588
37.878732,4.9531089306653495,0.11492817826740694
37.883316,4.9777160734456505,0.11450713030215244
37.887904,5.003877715692955,0.1140886231654681
37.892504,5.024276197111937,0.11377778638293636
37.897084,5.044552493816772,0.11347942910563193
37.901676,5.064584421093316,0.1132056661044557
37.906272,5.09050169391233,0.11282287245171232
37.910856,5.117440585893137,0.1124219490852234
37.915464,5.137961252026264,0.11211288798422457
37.920052,5.157582483711742,0.11182088243104074
37.924648,5.174383227340131,0.1115748101499096
37.929236,5.190651090663311,0.11131450297570628
37.933824,5.206552399844053,0.11108090602165006
37.93842,5.222331524310649,0.11085863331836557
37.943004,5.242197125424419,0.11055293839739562
37.947608,5.265005399309424,0.11019732253146823
37.952188,5.285770434870842,0.10988732029956073
37.956788,5.299339994851077,0.1096646971599094
37.961364,5.313931173993107,0.1094211000629025
37.965964,5.331587210620516,0.10911941585342588
37.970548,5.350142681695574,0.10880889059550436
37.975144,5.361869231331886,0.10855611054033866
37.979736,5.369342978158248,0.10833720033312447
37.984324,5.378082713574696,0.10807984960403778
37.988912,5.384368515076493,0.1078345064970162
37.993508,5.387300948215989,0.10761179254965027
37.998096,5.388556697174335,0.10740208752602488
38.002684,5.386581262484527,0.10720477802338997
38.007272,5.387792869994246,0.1069399122320125
38.011872,5.385651109141663,0.10669652683484153
38.01646,5.383875902431518,0.10642565595829978
38.021048,5.380956891845434,0.10618335188538924
38.02564,5.38056985843952,0.1058668486592025
38.030228,5.380671563890188,0.10551530596617537
38.034828,5.381794888502649,0.10514753389770039
38.039408,5.381119344219815,0.10479992203393328
38.043984,5.376190997127033,0.10447923901296213
38.04858,5.3702410308724575,0.10417399841697719
38.05316,5.362736565150878,0.10386862974973587
38.057748,5.3511456227821235,0.10363768026752182
38.062336,5.338777430679868,0.10340677086380498
38.066928,5.330784226101706,0.1031372543458619
38.071532,5.321647217647603,0.10289386323880713
38.076112,5.313287458927004,0.10265018424972835
38.080712,5.311345926054085,0.102333292009733
38.085304,5.310059458200522,0.10202395417120692
38.089892,5.306607567309227,0.10176055605455032
38.094476,5.308430098389674,0.10145253599122549
38.099076,5.311562759508833,0.10116414859213799
38.10366,5.317027169828498,0.1008758241417082
38.108256,5.323146645167521,0.10059782723183423
38.112844,5.3273450668971005,0.10034563550738754
38.11744,5.332975803379541,0.10010544937193319
38.122028,5.336318932110102,0.09991870156860412
38.126624,5.340439310574167,0.0997346541982486
38.131212,5.343538069876436,0.09956773406697776
38.135796,5.350889631988654,0.09937565286309774
38.140388,5.3668248429862855,0.09907433685488266
38.14498,5.389056095117452,0.09871902098701632
38.149572,5.413574955000495,0.09831101881692328
38.154164,5.436950011007601,0.0979288247404681
38.158756,5.459303447852912,0.09756780170389781
38.163348,5.491262152745431,0.09708965652869625
38.167948,5.524486846228035,0.09658451497309542
38.172536,5.552070563596461,0.09614996535220266
38.177132,5.58259695373612,0.09567770372752307
38.181728,5.615166582199366,0.09517439152067585
38.186308,5.640418550367285,0.09474155423557948
38.190916,5.664238203782345,0.0943016702407677
38.195504,5.687280607463903,0.09386219137864513
38.200092,5.708524142250164,0.09343824700655742
38.204688,5.732832534521807,0.09296738867167889
38.209276,5.753787558431151,0.09251257538397804
38.213872,5.776908005378225,0.09201957381870841
38.218452,5.796430714534708,0.09155870684883538
38.223048,5.8199177156242206,0.09104910054116691
38.227628,5.844670705303819,0.09051255588820194
38.232228,5.862883284421588,0.09004527181968902
38.236816,5.875943626281764,0.08960664317973012
38.241416,5.891702271484882,0.08915303253746266
38.246,5.91166957804932,0.08863782034124251
38.250596,5.930981819594402,0.08811541716959938
38.255176,5.938889924196982,0.08770910368584758
38.259772,5.940912683257091,0.08736989840658708
38.26436,5.942158192583698,0.08702747521311516
38.268956,5.943525886624451,0.08667975661633448
38.273544,5.944238515645848,0.08632326009463877
38.278132,5.9517359246573625,0.08589522623157841
38.28272,5.961276571992464,0.08544332932518015
38.287316,5.974004261527091,0.08494765223575035
38.291908,5.988775189385306,0.08442670184011432
38.296492,6.003668301957667,0.08390195982979366
38.301084,6.018561414530026,0.08337716329832347
38.305676,6.0334545271023865,0.08285594825483893
38.31026,6.050513062712479,0.0823037453388828
38.314848,6.062952241370187,0.08178736760011525
38.319436,6.0755136047420395,0.08126871831071521
38.324028,6.092694325066279,0.08072078834033947
38.328616,6.10758743763864,0.08021001296327497
38.333208,6.1200266162963475,0.07970315935169346
38.3378,6.131444175792261,0.07921451431380483
38.342392,6.144127723878261,0.07870239971856115
38.346996,6.164739855830317,0.07811143653658756
38.351588,6.1923811372007815,0.07744743259137016
38.356192,6.224886144951923,0.07674458766009608
38.360772,6.25391559962662,0.07605476381507775
38.365368,6.284866107910756,0.07535621136774162
38.369948,6.310952889814217,0.07470367041230806
38.374552,6.33193157590871,0.07410757026881568
38.379144,6.343671548098433,0.07356288813036523
38.38374,6.353734836107006,0.07302012630418522
38.388324,6.362898689667932,0.07248357419093918
38.39292,6.375782465733596,0.07192892612587197
38.397516,6.387888992065755,0.07137324818502498
38.402112,6.396808476198389,0.07085662132982726
38.4067,6.408548448388113,0.07032361314588421
38.411292,6.4175901172348935,0.06980293013921224
38.41588,6.422134613843433,0.06929988977021016
38.420468,6.433708259870382,0.06873509653616307
38.425056,6.444260286735538,0.06818152757097731
38.429652,6.448271903038866,0.067661345872585
38.434244,6.448974292428524,0.06718488271843813
38.438832,6.445834574599299,0.0667355513608369
38.443424,6.437831130389396,0.06632112072819525
38.448012,6.4250861445129654,0.06593356799948483
38.452596,6.412096789208244,0.06555743140993193
38.457184,6.395920391703994,0.06521609752315853
38.461772,6.383463916704482,0.06485786173009281
38.466364,6.371496180561552,0.06446901456822707
38.470952,6.366479550571514,0.06407171622551588
38.47554,6.36134073586733,0.06368042505224566
38.480136,6.35301487896362,0.06332239314898996
38.484724,6.339947480393378,0.06298976410304949
38.48932,6.323937409051903,0.0626758453290686
38.493908,6.309071141586365,0.06234414793959043
38.498504,6.293183254959036,0.06202120759929339
38.503084,6.276806629475122,0.06172484084967765
38.507684,6.262228872886505,0.06142297295923248
38.512268,6.243809009079005,0.06114294211159331
38.516868,6.226699275310217,0.06088620298177153
38.521452,6.2142088984938155,0.06061117234546887
38.526048,6.20184070639156,0.0603274875181718
38.530636,6.19270369793746,0.06005791584184991
38.535224,6.187042242559803,0.05978820764685554
38.539808,6.183834721096798,0.05952689987992185
38.544404,6.186145991033828,0.05924984753989274
38.548996,6.189478880132651,0.05896416082062443
38.55358,6.191912334783826,0.05868178493489171
38.558172,6.203217949197333,0.05839400028398023
38.562764,6.218487855543868,0.05808403528515695
38.56736,6.237233314966851,0.05777746907184397
38.571948,6.2655840424370375,0.057428106452817464
38.576544,6.297410322983674,0.057081412132995966
38.581124,6.335532644663841,0.056728239736887
38.58572,6.37815213858225,0.05637359510479366
38.590308,6.421426697520015,0.05603349102731328
38.5949,6.467888298657307,0.055666410786290255
38.599508,6.517048203137541,0.0553011023604203
38.604088,6.565719368761194,0.054964027665831694
38.608692,6.6156565229749305,0.054609768073039765
38.61328,6.6673925460839625,0.05425807384238803
38.617868,6.723625741431234,0.053904773796491445
38.622464,6.77470669952091,0.053546127513322474
38.627064,6.825909842324731,0.053186032917514524
38.631656,6.878378973718639,0.05281054205077271
38.636244,6.928149801769602,0.05244317064532049
38.64084,6.973179088154034,0.05209011354979008
38.645432,7.016531690357317,0.05173534597511949
38.650028,7.049868328922328,0.051396636959082
38.654608,7.075765122477865,0.05107727675166034
38.659196,7.093200451862134,0.05077969118679744
38.66378,7.100253263465693,0.050513619001185416
38.668376,7.100354968916361,0.05023703823273188
38.67298,7.09146232989055,0.049963098060698354
38.677572,7.072064988369885,0.04972248945462639
38.682164,7.047393224877478,0.04947560604120846
38.68676,7.014259997213803,0.049247105714610925
38.691348,6.970988621197711,0.04903078738247631
38.695936,6.920643954314582,0.04880684980117542
38.700524,6.861960007974331,0.04859378677616895
38.705104,6.795836216624606,0.04839121181646279
38.7097,6.724560188017286,0.048172177358199245
38.714292,6.652018170819879,0.047968669375637006
38.718888,6.567172582232323,0.04779519710389933
38.723476,6.471045041416411,0.047642870493380174
38.728076,6.363635548372141,0.04751314806695074
38.732656,6.2565926094703075,0.047356801279936564
38.737236,6.140721652254769,0.04723706524665709
38.741844,6.022807456715645,0.04712682711337061
38.746432,5.899130100348196,0.047034244463387144
38.751044,5.775819298123183,0.04691511108807706
38.755632,5.64891075810758,0.04678904593371853
38.76022,5.521757848663685,0.046668630055055546
38.764816,5.391662266448556,0.046555833953278926
38.769404,5.261155988642361,0.04640500481019817
38.774,5.128728657226726,0.04625124653606795
38.778596,4.997200760258738,0.04608837170596269
38.783192,4.868248981919548,0.04592815555968303
38.787776,4.7383977691327095,0.04575478534922927
38.792376,4.60548169886049,0.04560267736779913
38.796964,4.47064457497883,0.045449486247184034
38.801572,4.324936194459878,0.04536443474553191
38.806156,4.1708885344838045,0.04529668038773516
38.810756,4.018884112831317,0.045207008976099826
38.815352,3.86855637535998,0.04512743940130455
38.819948,3.7201496914980843,0.04503120474964253
38.824532,3.564836042931926,0.04498461325515959
38.829124,3.4087451446322645,0.04493197550010242
38.833716,3.245991651056632,0.04494189278241932
38.838308,3.084259776642792,0.044937945203400866
38.8429,2.922527902228953,0.04488233273922385
38.847492,2.7567095511679396,0.04492539940142552
38.852084,2.588725777069193,0.045061720996048715
38.856672,2.4234403063133905,0.04279265597306801
38.86126,2.2616303886340337,0.04054924006480031
38.865856,2.1016193398499725,0.03832170862049224
38.870448,1.9434071599612068,0.036110209145686155
38.87504,1.7842955456247935,0.03390333182225673
38.87964,1.6304583532601213,0.03171722781216768
38.884228,1.4825065064379195,0.029517699940311115
38.88882,1.3370085935303695,0.027327254340899478
38.893408,1.205857490336557,0.025097888939488007
38.897996,1.0876650235522516,0.022852286949202938
38.902592,0.9749913481679787,0.020616625350227215
38.90718,0.8678364641837386,0.01837333620880233
38.91178,0.767999240494827,0.01614155691432048
38.916376,0.6800990340536289,0.013886027464061677
38.920968,0.6031142256983508,0.011623091331597456
38.925564,0.542275095952106,0.009299483567590411
38.930152,0.48683257289174797,0.006983715949849464
38.934756,0.43449904876539874,0.004739959787799534
38.939336,0.3943469113150542,0.002410315707604589
38.943928,0.36163461887418386,0.0
38.94852,0.3353405522809943,0.0
38.953124,0.30778049709771976,0.0
38.957708,0.2814083872390126,0.0
38.9623,0.2564685921331641,0.0
38.966884,0.23986807648443764,0.0
38.97148,0.22686529862630256,0.0
38.976072,0.21799313886396968,0.0
38.98066,0.21296308632051958,0.0
38.985248,0.2067892299011303,0.0
38.989844,0.1967732662628583,0.0
38.994432,0.19215390931047333,0.0
38.999028,0.18945560596752978,0.0
39.00362,0.18933342125338412,0.0
39.008212,0.1904772251293233,0.0
39.012804,0.19072159455761464,0.0
39.017396,0.18598005289108402,0.0
39.021992,0.18508061844343615,0.0
39.02658,0.18622442231937533,0.0
39.03118,0.1892892798047559,0.0
39.035768,0.19337575645193,0.0
39.04036,0.19823948283260628,0.0
39.044956,0.20976580448925453,0.0
39.049548,0.22550078750722255,0.0
39.054144,0.24237957440112978,0.0
39.058728,0.25043034298133227,0.0
39.063332,0.25860329627568046,0.0
39.067916,0.2659989998365265,0.0
39.072504,0.27711462590210956,0.0
39.0771,0.2860648289299599,0.0
