Time,Force,Position
36.931524,0.7162394709995734,0.02621386187956325
36.936112,0.6869246883696313,0.02330384726099284
36.940704,0.6583871554731914,0.02036364325461395
36.94529599999999,0.6278063842531645,0.01733897407311122
36.949888,0.595304559423696,0.014300891121699619
36.95447599999999,0.558960627375345,0.011326706354421701
36.95906,0.5199183919840504,0.008352521587143785
36.96363999999999,0.4760124302120795,0.005488134157203152
36.968236,0.4306313320475507,0.0027750857746202877
36.972828,0.3871712874924633,0.0
36.977408,0.347431165442113,0.0
36.982004,0.31026716202056054,0.0
36.986592,0.2747798427801581,0.0
36.991188,0.24235738102513635,0.0
36.995772,0.2138992112031429,0.0
37.00035999999999,0.1873620949905909,0.0
37.004968,0.16352328212098238,0.0
37.00956,0.13637524233770196,0.0
37.01416799999999,0.11102607144971723,0.0
37.018756,0.08951900778061526,0.0
37.02334799999999,0.06866700913086984,0.0
37.027936,0.04961387937642008,0.0
37.032524,0.03248180323141172,0.0
37.03712,0.020213453467079624,0.0
37.041696,0.010765591759836754,0.0
37.04629599999999,0.004138218109683105,0.0
37.050876,0.00020914780247301243,0.0
37.05547599999999,0.009132505723499778,0.0
37.060068,0.027269595555216842,0.0
37.064664,0.056454507818738245,0.0
37.069256,0.09308950472347263,0.0
37.07384799999999,0.13374317464160235,0.013457858030296168
37.078448,0.18405649368730587,0.025790891777164544
37.08304,0.2440294618605832,0.03736144475099114
37.087636,0.3160718716274583,0.047947451845837936
37.092228,0.3962194310549029,0.058280028511165545
37.096816,0.48602663960992143,0.06831859178873999
37.101408,0.5875367356161008,0.07793000856889923
37.106,0.6984621113215624,0.08741981198554988
37.110596,0.8190471361545979,0.09675815689579907
37.11518399999999,0.9512128637246486,0.1058526845173385
37.11977199999999,1.0925053601170625,0.11482578789602589
37.124352,1.2402263219888956,0.12381033627741159
37.128932,1.408067494034529,0.13215507543276422
37.13352799999999,1.5761530355084539,0.1404662672359659
37.138116,1.7461596305918203,0.14869834162940013
37.142692,1.9193532678747127,0.15677474139356415
37.147304,2.0817377152529555,0.16489443823309202
37.151892,2.233318709627685,0.1730747691158847
37.1565,2.3706648393710843,0.18141601262013868
37.161092,2.5001943303308334,0.18980815121058256
37.16568,2.627748386600774,0.1846447478601952
37.170272,2.7449877287237845,0.18060423503218048
37.174872,2.8526896064333664,0.17730942626785356
37.17946799999999,2.9453793697781165,0.1751295511982018
37.18406,3.0297196140340055,0.17323747887787175
37.188656,3.1065656322000534,0.17152324382864584
37.19323599999999,3.169909894019644,0.17030081112725676
37.197832,3.223428180548888,0.16916404196445767
37.20242,3.2676533720929943,0.16812739178514896
37.207028,3.2996427958807293,0.1673326140021476
37.21160799999999,3.319684962789012,0.16677539045623244
37.216204,3.3343202833796695,0.16615597026055456
37.220796,3.3292019479389627,0.1661243339505388
37.225384,3.3269041005553452,0.1659790413684647
37.229972,3.3230517537047244,0.16586235480179104
37.234564,3.3140913110451353,0.16598095120142736
37.239156,3.307584802300198,0.1660416335266075
37.24374,3.305331096365209,0.16598196093163745
37.248328,3.3072860517915394,0.16571426055501567
37.252908,3.312428049417397,0.16529001947032027
37.257504,3.313483570396079,0.16505541588380584
37.262088,3.3162157755559116,0.1647764934280704
37.266676,3.321768468772834,0.1643948074562466
37.271256,3.3339837572657283,0.16375538544514434
37.275848,3.347587219062853,0.1630236128046768
37.280444,3.3591474425363903,0.16239263190872436
37.285028,3.3734059693528717,0.16167040928380572
37.289624,3.389751875941568,0.1609468591761956
37.294212,3.4074079125689773,0.160238056366974
37.298816,3.4293167520063346,0.15943077019813098
37.303412,3.4595648709008144,0.15834970715621186
37.308,3.4923891084240917,0.15722841539758778
37.312604,3.5265234759860817,0.15612851643686276
37.317196,3.5535065094155174,0.15532130318764026
37.321792,3.583598541778962,0.15448743025000863
37.326368,3.615733812465993,0.15356025277076402
37.33096799999999,3.6452929645242276,0.15269270588321007
37.335548,3.673541986543747,0.15183477454816832
37.34014799999999,3.7008915741156194,0.1510102366226255
37.34473599999999,3.724643423896901,0.15029994013872547
37.349336,3.7546471733630886,0.1493425580234441
37.353928,3.7856725419910697,0.14836289706957162
37.358524,3.8148990417237556,0.14745591492734142
37.36312,3.839628369218202,0.14668358527990338
37.367716,3.8612928392272674,0.14602390479318786
37.37230399999999,3.8810362556268925,0.14542186405826418
37.3769,3.8980813686835734,0.14488943958831305
37.381492,3.9136941669873964,0.14436708786809005
37.386084,3.9261979663572104,0.1438837114851979
37.39067599999999,3.9354705820788696,0.1434597804526285
37.39526,3.9395909605429327,0.14315266692003883
37.399848,3.938436917035255,0.14296574548409757
37.40444399999999,3.9357283740605724,0.1427957451388884
37.40903599999999,3.939393915484943,0.14238356079831688
37.41362399999999,3.936885600489924,0.14211188259155613
37.418224,3.9343772854949046,0.1418401984038278
37.422812,3.938409381061712,0.1413926701778056
37.427404,3.942074922486082,0.1409883335335951
37.431992,3.9463955289298087,0.14059085859262685
37.43658,3.952392819554685,0.14016486939337544
37.441188,3.9541814488182423,0.13989401223785952
37.445776,3.9520057861487707,0.13974495770780782
37.450364,3.943700408508538,0.13980108515176487
37.454956,3.9409138222683375,0.1397181455361613
37.459556,3.94478983130411,0.13945490844368197
37.46416,3.9540624470257693,0.13907325679334406
37.46875599999999,3.969753288595109,0.1385447027547142
37.47335999999999,3.9841781415743642,0.1380736653896316
37.47793599999999,4.000690374325835,0.13760691374542539
37.482532,4.015692249058928,0.13722412266701164
37.48712,4.0281621466118525,0.13695691281612857
37.49172,4.042963793365284,0.1366668546050816
37.49630799999999,4.058787059280508,0.13634677916907686
37.500916,4.072444902158,0.136110928964284
37.505504,4.089822667540228,0.1357809655437934
37.51010399999999,4.105279379313015,0.13550149369950815
37.514688,4.113174061362183,0.1354219610931886
37.51928,4.118736994210844,0.13536219112115574
37.52388799999999,4.125688100363735,0.13523296446880206
37.52848,4.1321063262114155,0.13508575496408481
37.53307999999999,4.136603498449655,0.13498877747628726
37.53768,4.145309332049214,0.13475052921199968
37.542268,4.162188118943121,0.13425013980722156
37.54686399999999,4.169828191932258,0.13397174316289726
37.55145199999999,4.173215462111448,0.13376853778772704
37.556036,4.1706732452995405,0.13365847452066756
37.560628,4.1631009759441815,0.13361974591436643
37.56522,4.158837933502495,0.13346401775403896
37.569816,4.153509130450385,0.13326914213556187
37.574412,4.149690685416654,0.13299369957656365
37.57900399999999,4.14648316395365,0.13265350491945496
37.583592,4.1449081852231675,0.1322221674753602
37.588188,4.1405127184355965,0.13185648376573678
37.59277599999999,4.1343183827527294,0.1315255623737548
37.59736399999999,4.127468982050507,0.13118753745035233
37.601972,4.126504926890752,0.13069521133464998
37.606564,4.130893336968258,0.13002830092313286
37.611172,4.138102235102853,0.12929674798994956
37.61576,4.142368460466213,0.1286450979737752
37.62036,4.144469262791839,0.1280628641925445
37.624952,4.151800345640579,0.1273236774914301
37.62954,4.159786493508676,0.1266040609175172
37.63414,4.16507433803383,0.12594159223895182
37.63873999999999,4.176125343387307,0.1251397804451199
37.64334399999999,4.186687609884202,0.12438840400784988
37.647936,4.20162486390519,0.1235690546753823
37.652532,4.216073379069596,0.12279614671734367
37.65712,4.226679787015119,0.12211495356046433
37.66172,4.2387185097135,0.12144072678910132
37.666308,4.250635047697736,0.12078115113880608
37.670912,4.266271508186709,0.12005021359643701
37.67549999999999,4.27974254563795,0.11939275192285445
37.6801,4.295667517003842,0.11871130801411331
37.684688,4.316211845322119,0.11794596457996383
37.689284,4.335490185050312,0.11723143978420594
37.69387199999999,4.349782613683682,0.116647468256807
37.698468,4.360399261260944,0.1162046077085452
37.703056,4.368850485800472,0.11582690151309354
37.707648,4.379222763949443,0.11540976019298094
37.712236,4.395236018212591,0.11488712002911824
37.71681999999999,4.4098610991715095,0.11443514588280511
37.721408,4.416679780978516,0.11414849275125241
37.72599999999999,4.426729646433678,0.11384600100269503
37.730592,4.434614088851107,0.11360530337386432
37.73517999999999,4.441721281535034,0.11336633098050143
37.739772,4.443964747838283,0.11322837537579218
37.744352,4.44633039885568,0.11307845098301617
37.74894799999999,4.452049418235375,0.11289730850872426
37.753532,4.4567468184532775,0.112741678273381
37.75812,4.463120902852331,0.11257216954185055
37.762728,4.472071105880181,0.11238005840566846
37.767316,4.481021308908031,0.11218848995983162
37.771928,4.49058243550661,0.11194419845707368
37.776516,4.4963014548863045,0.11177337190313813
37.781116,4.505085331751381,0.11153420637966267
37.78570799999999,4.515790262225899,0.11125994382287728
37.79029599999999,4.528904985166442,0.11090727348074661
37.79489999999999,4.547905053649453,0.11044545041527712
37.799492,4.5640846340753765,0.11003061230279974
37.804088,4.575767042263059,0.10967995601375848
37.808668,4.584751147107799,0.10936580510268137
37.813268,4.601908205246888,0.10887206656869534
37.81784799999999,4.610970353357145,0.10848300807598035
37.82245199999999,4.624896227848078,0.10800884256972205
37.827044,4.641764775110246,0.10748259946904508
37.83164,4.663741418181383,0.1068469772663917
37.836224,4.691481222080842,0.10612352564065716
37.840816,4.717788711227444,0.10539735923071979
37.845408,4.748427046449511,0.10457907816862042
37.85,4.781352989423457,0.10371780966910411
37.854584,4.807982891263866,0.1029382493192004
37.859172,4.834857162532568,0.10214166278634909
37.86375999999999,4.859688195477683,0.10138936297477308
37.868344,4.885907401727027,0.10058821165316581
37.872936,4.911104988814579,0.09981624427174668
37.87752799999999,4.935647510882774,0.09903883449865568
37.882124,4.959412783217467,0.09826765445579137
37.8867,4.976759829704479,0.09757983242122492
37.891296,4.995128495353286,0.09687001338836432
37.895884,5.016439833773327,0.09611877888075204
37.90047599999999,5.037751172193368,0.09536524225025889
37.90506,5.055997653128028,0.09467621379867493
37.909648,5.080784544624514,0.09390375657007234
37.914252,5.097354341378025,0.09322088909107554
37.918844,5.112003084522093,0.09257009554547158
37.923432,5.126651827666162,0.0919284248513571
37.92802799999999,5.135659594696052,0.09136140850347883
37.932628,5.146466230621238,0.09078286907932348
37.93722,5.151265336289809,0.09030076710381155
37.94179999999999,5.149401846682407,0.08990051020185387
37.9464,5.149581595398592,0.08946619207989513
37.950988,5.14886190966713,0.08903904291509378
37.955588,5.150185462259254,0.08857978161234507
37.96017199999999,5.152286264584882,0.08812431042820393
37.96475999999999,5.153609817177006,0.08766826889661385
37.96935199999999,5.156732238664428,0.08720105957370303
37.973944,5.161286974904708,0.0867498485778774
37.978532,5.169439448935578,0.08627348549145922
37.983128,5.182455649347125,0.08574311697813831
37.987728,5.193428611435086,0.0852469871428514
37.99232,5.205545377398984,0.0847272982718934
37.996912,5.2148416553057935,0.08423297231212211
38.001496,5.2231163140508095,0.08375765204573776
38.006088,5.23768701392936,0.08323804933341354
38.01068399999999,5.249559410464968,0.08273497726948167
38.015272,5.259266383962843,0.08227364166100813
38.019868,5.268196107727216,0.0818080877060978
38.024452,5.275326962596293,0.08135741462972974
38.029036,5.286177739970107,0.08087575843050117
38.033628,5.298827386239218,0.08037997813777943
38.038216,5.312132097527684,0.07989894942351958
38.042804,5.327235677711446,0.07940880676630228
38.047412,5.342217073181063,0.07893181430197337
38.052,5.355277415041237,0.07847585951454855
38.056592,5.367438322453764,0.07802614392967007
38.06118,5.376778741809202,0.07760278867293978
38.065768,5.383543042535843,0.07718761247089585
38.07036399999999,5.389407908814834,0.076780838723655
38.07495599999999,5.392207917608447,0.07641826238345246
38.07956,5.396029545563853,0.07604396940436126
38.08414799999999,5.398951739071609,0.07567443416798397
38.08874,5.407637093407691,0.07525368382784912
38.09332,5.415545198010269,0.07483095469804657
38.09791599999999,5.423697672041141,0.0743961166568205
38.10250799999999,5.43941217579563,0.07390671239364487
38.107108,5.456026113997769,0.07341478069799114
38.111692,5.474316736381057,0.07292275477621732
38.11628,5.4933846084978475,0.07243766597187659
38.120868,5.510775796433488,0.07195607553911476
38.12546,5.529965853264423,0.07146822139586727
38.13004399999999,5.548256475647712,0.07098660165201257
38.13464,5.5646260444215585,0.0705222457874875
38.139228,5.580751243767114,0.07007686479642442
38.143812,5.597775877560318,0.06962838969251874
38.1484,5.616477195534672,0.06918252744217437
38.152996,5.638243370994407,0.0687060076052823
38.157588,5.659110112006492,0.06823184766010627
38.16218,5.6799768530185775,0.0677618313432554
38.166772,5.699044725135369,0.06729988003087661
38.17135199999999,5.716313728356864,0.06684644194078446
38.175944,5.736403219635447,0.06637918375819386
38.18054,5.755715461180528,0.06591465651116406
38.185124,5.777970375496845,0.06543179952518932
38.18972,5.800225289813162,0.06495551394432351
38.19429999999999,5.814918174405859,0.06452648203100153
38.198888,5.827401494512196,0.06407564728070662
38.203484,5.839229749599175,0.06361294367006187
38.20808399999999,5.849747874647442,0.06312682877691239
38.21268799999999,5.858467130800413,0.0626450008914802
38.21728,5.87037342915291,0.062132763260050246
38.221884,5.884322965828995,0.06160490909574783
38.226472,5.900193556114519,0.0610671681924618
38.23107199999999,5.9128329627518905,0.06051481846790117
38.23566399999999,5.927637792426993,0.05994048962796052
38.240264,5.939211438453943,0.05935150539094309
38.244852,5.94387811977663,0.05880967446965164
38.24945999999999,5.949688604975256,0.05824999093129438
38.254052,5.949980298773848,0.057704699630084
38.258648,5.951293611734234,0.05715024208922922
38.26324,5.949786436637531,0.056604046493681906
38.267836,5.94737982709318,0.05606251167573931
38.272432,5.9390878720063585,0.05555715874276834
38.277028,5.920291214424683,0.05509883196813892
38.28161599999999,5.895731396014683,0.054667827824071064
38.286208,5.875913119271214,0.05421442398862581
38.29079599999999,5.856627722832957,0.053779119778519256
38.29538399999999,5.837997391414055,0.05335608246654573
38.299972,5.81581346365319,0.052984199779022745
38.304572,5.791586297568737,0.05262501601249859
38.30916,5.758653297884727,0.05230861660595618
38.31375599999999,5.717014464601157,0.052033879211885264
38.31834799999999,5.66883522075576,0.05177575203032677
38.322928,5.621066672501429,0.05154351947819698
38.327528,5.565247355666894,0.0513680427323432
38.332108,5.5066516922239,0.051253708053954745
38.3367,5.450998701552139,0.05111886967377991
38.34129599999999,5.394079722290296,0.05100417043139143
38.34588399999999,5.341535730552544,0.050891312646740426
38.350484,5.284250197148263,0.05079373302125031
38.355076,5.2294185976586345,0.05070854540913648
38.359664,5.166780599017092,0.05066582793368262
38.36426,5.1047976653949085,0.05063924123984798
38.36884799999999,5.049232957620404,0.050599369306345475
38.37345199999999,4.9935460651317545,0.05056708364212099
38.37802799999999,4.926210666272312,0.050602189274070945
38.382628,4.854910975479841,0.050666084633914005
38.387216,4.778625373592549,0.05077033018798181
38.39180799999999,4.704383010028842,0.05085679870922992
38.396392,4.632061700074576,0.05093000013005594
38.400992,4.557574967082577,0.05103733450123674
38.40557999999999,4.486030906861815,0.051126837456766744
38.410176,4.418984018879291,0.05121181185654022
38.414768,4.345396720334941,0.05132849448681954
38.419364,4.276018083151911,0.05139228311689341
38.42395199999999,4.2098264881684075,0.05141753895421114
38.428548,4.137749547642433,0.05149211771536705
38.433136,4.063751553507018,0.05157920905866013
38.437724,3.981292095200334,0.0517137035974847
38.442312,3.9006315057889474,0.051845545907912474
38.446908,3.81829423219641,0.051967462223332435
38.451496,3.73967688110861,0.05208115409178715
38.45609199999999,3.6602822802873076,0.05219000922822355
38.46068399999999,3.5760239530853295,0.05234788550848987
38.465276,3.4889451378262617,0.05253339458994832
38.469872,3.4085289178431664,0.05268969044511469
38.47445199999999,3.3255365792312728,0.05285126760797407
38.479044,3.243032979475962,0.05296514195621843
38.48364,3.1577088916635616,0.053100549416140536
38.488228,3.0673988927563394,0.05331465737094704
38.49282399999999,2.980808816353854,0.05353114911697169
38.497412,2.8931971207895755,0.05377398115797975
38.502,2.8028871218823532,0.05402171940228637
38.50659199999999,2.7201391526987506,0.05421891548835921
38.511192,2.635225760477416,0.05446600734020179
38.51578799999999,2.5476140649131374,0.05472141534771807
38.520368,2.4648660957295347,0.05493278313521291
38.524964,2.3821181265459326,0.055158140578019994
38.529544,2.3030900798670673,0.05539835648523233
38.53414399999999,2.220219925969319,0.055722054899910334
38.538732,2.1314644265291016,0.05623195788605342
38.543332,2.0380895701364987,0.05687373340304335
38.547916,1.943038029562746,0.057560882244351304
38.552512,1.848475227845576,0.05822262701774959
38.557104,1.7567329141854953,0.0589367837319034
38.5617,1.6652349699537055,0.05620507104741069
38.566296,1.5791336324078036,0.05345401094310664
38.570896,1.4915219368435246,0.05072545782555493
38.575488,1.401867002955659,0.047984015870421594
38.58008,1.3162985457149676,0.04518331654690999
38.58467199999999,1.2301972081690653,0.04235207268723211
38.589256,1.1467941739661065,0.039501606107323936
38.593844,1.0611035320112692,0.036656506550902045
38.59844,0.9746356403229296,0.033829435698681576
38.60303199999999,0.8870239447586511,0.030985853153164798
38.607624,0.800067314213729,0.028143936952726933
38.61222,0.7141323028306004,0.02531305144251115
38.61679999999999,0.6314195552728163,0.022463382480163795
38.621388,0.5543125622033924,0.019560258162631548
38.62597999999999,0.48263739744567397,0.016582795642630474
38.630568,0.41942369685922315,0.013428582877065996
38.635176,0.3635276565681009,0.010138064129141977
38.63976399999999,0.31290603824872004,0.0067960053012682785
38.644356,0.26743665718693505,0.003439151351712985
38.648952,0.22556501391574138,0.0
38.653544,0.18614730455919995,0.0
38.658148,0.14852846409795414,0.0
38.662736,0.11667278446503247,0.0
38.66732799999999,0.09135751539393716,0.0
38.671908,0.06849618023749403,0.0
38.67650799999999,0.04898821344335096,0.0
38.6811,0.031279115544503605,0.0
38.6857,0.019333178473980365,0.0
38.690284,0.008941740870461496,0.0
38.69487999999999,0.0032918449334732236,0.0
38.699464,0.0013618715012220278,0.0
38.70405999999999,0.0009863975359751926,0.0
38.708656,0.0009863975359751926,0.0
38.713252,0.0,0.0
38.71785599999999,0.0,0.0
38.72244799999999,0.0,0.0
38.72704,0.0,0.0
38.731632,0.0,0.0
38.73622,0.0,0.0
38.740804,0.0,0.0
38.745392,0.0,0.0
38.74998399999999,0.0,0.0
38.75457599999999,0.0,0.0
38.75916399999999,0.0,0.0
38.76376,0.0,0.0
38.768348,0.0,0.0
38.772944,0.0,0.0
38.777532,0.0,0.0
38.78212,0.0,0.0
38.78671599999999,0.0,0.0
38.7913,0.0,0.0
38.795904,0.0,0.0
38.800496,0.0,0.0
38.805084,0.0,0.0
38.80967999999999,0.0,0.0
38.814272,0.0,0.0
38.818868,0.0,0.0
38.82344799999999,0.0,0.0
38.828048,0.0,0.0
38.832636,0.0,0.0
38.837236,0.0,0.0
38.841828,0.0,0.0
38.84642399999999,0.0015973211067035497,0.0
38.851008,0.006015130270496325,0.0
38.8556,0.007490266663054203,0.0
38.860188,0.009620468074968592,0.0
38.86478399999999,0.009620468074968592,0.0
38.86937199999999,0.014693342258117876,0.0
38.873968,0.018622412565327966,0.0
38.878556,0.025616340357918627,0.0
38.883144,0.02786872648397868,0.0
38.88773199999999,0.028322243714743043,0.0
38.892328,0.03004174953559226,0.0
38.89692,0.030041749535592265,0.0
