Time,Force,Position
36.960872,0.4527731696926456,0.0
36.965468,0.44161340217843437,0.0
36.97006,0.4304536346642231,0.0
36.974652,0.4189273130075749,0.0
36.97924,0.41561808609390305,0.0
36.98384,0.412308859180231,0.0
36.988428,0.4077336436764743,0.0
36.993028,0.4039356779062197,0.0
36.997612,0.3952739857552888,0.0
37.002212,0.3850577941373536,0.0
37.006796,0.37664047141471413,0.0
37.011388,0.3681009639779288,0.0
37.015984,0.3605830757029373,0.0
37.02058,0.35269863328550866,0.0
37.025176,0.3419937028109907,0.0
37.029776,0.3333320106600598,0.0
37.034368,0.3124311287136503,0.0
37.03896,0.30162449278846426,0.0
37.04354,0.2950028560394475,0.0
37.048124,0.30005020492470214,0.0
37.052716,0.32342913472020024,0.009307792621041512
37.057308,0.3559789747866895,0.01857937513671464
37.0619,0.398476974857672,0.02762423708441962
37.06648,0.4525556776656697,0.0363514123931629
37.07108,0.5117188140974844,0.04522689593783992
37.07566,0.5868817822390361,0.05381820620896728
37.080252,0.6755906481756724,0.062350112602544264
37.084848,0.7778454119073935,0.07076454520283296
37.08944,0.8989985386714583,0.07884088098966013
37.094036,1.0297332712975793,0.08702057878088432
37.098628,1.1710712289475502,0.09522346434096234
37.10322,1.3259550843926056,0.10339821284367448
37.107804,1.488621676804423,0.11162314592486254
37.112396,1.6652007211537616,0.11969566624311975
37.117,1.8543040441363914,0.12775254641044198
37.121576,2.05515439601881,0.13578248995435527
37.12618,2.2976028617752795,0.14324925399606847
37.130768,2.5346544817284262,0.15063067382999962
37.13536,2.76903146052378,0.15788549231194596
37.139944,2.997458473064558,0.16500928928193892
37.144544,3.1997033640945536,0.16294948538717058
37.149132,3.3946983984630004,0.16089032668388373
37.153728,3.579090207807596,0.15903604718706582
37.15832,3.7510018799675295,0.15753901269421683
37.162912,3.9184400420743755,0.15576977174431517
37.1675,4.071144361061568,0.15426950278936644
37.172096,4.2154108780626425,0.15274636327262928
37.176684,4.346375866696924,0.1513466497113514
37.181272,4.459341926746509,0.15033987758779213
37.185864,4.569266791495865,0.14909907347437035
37.19046,4.671653288706751,0.14775654324448534
37.195048,4.76278149587443,0.1464114124823274
37.199644,4.844328097180052,0.1450058707180209
37.204236,4.911184996814651,0.14375274171664523
37.208824,4.968582475301338,0.1424542325746241
37.213424,5.014477294316527,0.14116246373213803
37.218004,5.030358124233789,0.1404539356150191
37.2226,5.046771834456264,0.13977041151148534
37.227192,5.059099068031564,0.13920344262210682
37.23178,5.06480784777952,0.13883774496950843
37.236376,5.081309840899252,0.13827231106787896
37.240964,5.097401138427917,0.13768765728278498
37.245552,5.115291304851878,0.13707614899090415
37.250148,5.134447459865923,0.13641520179265318
37.254736,5.147596084623352,0.13590681566159757
37.25934,5.162421393561932,0.1353794358815868
37.263936,5.172382976119835,0.13496302718951866
37.26854,5.186186665896624,0.13446823618333334
37.273128,5.203177397872937,0.13388505227748665
37.277732,5.2126061001256305,0.13346044489019823
37.28232,5.220113748768883,0.1330807689115877
37.28692,5.228032093003201,0.13272776294025157
37.2915,5.236972056399314,0.13235178035006803
37.2961,5.245912019795425,0.1319757977598845
37.300684,5.253585994601452,0.13164723354830388
37.30528,5.264613337769779,0.13128536077805492
37.309872,5.280670733481556,0.13087007490974617
37.314468,5.292397283117868,0.13056956668799705
37.319056,5.303757278611743,0.13029808765617948
37.323652,5.325377607172181,0.12984699116912693
37.32824,5.341645470495358,0.12953411029043488
37.332828,5.357058040819518,0.12929105581246642
37.33742,5.368261949782357,0.12915099300228572
37.342004,5.380898173498054,0.12901322708329724
37.346596,5.396765580861906,0.12884861105336512
37.351196,5.411899879940885,0.12874234486081587
37.355788,5.430631916810455,0.1285812898115835
37.360372,5.444255857871057,0.12853739838301473
37.364968,5.459189928970373,0.12850628903571482
37.369556,5.478621172307927,0.12840858522688411
37.374148,5.498829665378984,0.12831004305221821
37.378744,5.519160343164185,0.1282030300030712
37.383336,5.539002282092805,0.12813475433260463
37.387944,5.558066971287923,0.12806997119178223
37.392532,5.573411737978304,0.12806588406159122
37.39712,5.584259332430444,0.12812815023750773
37.401708,5.593141731824517,0.12817441835203197
37.406296,5.606232792579909,0.12812300256650375
37.4109,5.62071202663953,0.12802223124403245
37.415492,5.625053112346734,0.12808064309829506
37.420088,5.634991032719487,0.1279939485807528
37.424676,5.643863192481821,0.12787747632948632
37.429276,5.659886686376708,0.12761152160185685
37.433864,5.673944985213527,0.12732964412039077
37.43846,5.686282458420566,0.1270135912052464
37.443052,5.6989423443214156,0.12662080055386604
37.44764,5.710169915469406,0.12622791004300574
37.452224,5.7267499518546545,0.12571381356130973
37.45682,5.739321554858248,0.1252251032950665
37.461424,5.749561408661332,0.12474920102260746
37.46602,5.754160286350239,0.1243604957646337
37.470624,5.758348468448083,0.12394939249242354
37.47522,5.761593074649649,0.12350016848152084
37.479808,5.76495986556536,0.12304096139323682
37.4844,5.77343475229004,0.12247826643143399
37.488988,5.78329781231895,0.12186822451240623
37.493576,5.790995449310127,0.1213095005187933
37.498168,5.796116967672507,0.12077870013324303
37.50276,5.797640748244295,0.1202928463594702
37.507352,5.803906070482613,0.11972912713007725
37.511944,5.803386612730813,0.11928191701415858
37.51654,5.8026227855507235,0.11885147289209955
37.521128,5.795196363094661,0.11852918448318789
37.525724,5.790101689839106,0.11819980476460606
37.530316,5.785295527460469,0.11790278774456973
37.534908,5.78000062622525,0.11764075506639145
37.539504,5.775605159437679,0.11736797554044333
37.544084,5.768144835164727,0.11715420914484889
37.548676,5.764404433396512,0.11688900808742758
37.553268,5.756577554981124,0.11670007775442849
37.55786,5.753614402946411,0.11643039623374073
37.562456,5.7511841312169105,0.11617655594316284
37.567044,5.7530066622973575,0.11588879486148064
37.571652,5.757527496720746,0.1155707115373871
37.576244,5.760660157839906,0.11529923814410745
37.58084,5.760483592045393,0.11510032430063422
37.585428,5.761084275984383,0.11489944246803109
37.59002,5.762462209656874,0.1146968336806792
37.594612,5.770136184462902,0.11442373220549983
37.599204,5.777932343983073,0.11414407107199795
37.603796,5.790225675741485,0.11381260293296522
37.608392,5.805583864985278,0.11342755977094449
37.612984,5.823107477266802,0.11299674531162211
37.61758,5.839076590081322,0.11257199675646133
37.622168,5.856678245628364,0.11208960575209184
37.626768,5.873380466727759,0.11161732860250005
37.63136,5.887140015055919,0.11119138441258368
37.635952,5.900244498364723,0.11075901738753549
37.64054,5.909873428597081,0.11035822907146527
37.645128,5.92587644322849,0.10983287036975833
37.64972,5.942246012002337,0.1092868533110581
37.654312,5.959226504346913,0.10870378658192882
37.658904,5.969910955557953,0.10818745693618462
37.663496,5.977364223120839,0.10768391482986454
37.668092,5.986694402844538,0.10711035833278167
37.67268,6.0005997980719945,0.10643573647150378
37.677276,6.014583236564968,0.10570566395545926
37.681864,6.02803379475273,0.10496072350038321
37.68646,6.036576485111188,0.1042390689785935
37.691056,6.0453635448979375,0.10350575811116895
37.695648,6.053084844074266,0.10274259495717393
37.700244,6.057208405460001,0.10201355204373724
37.704836,6.0606769018263815,0.10127729977107618
37.709424,6.064389767621052,0.10052666672775898
37.714012,6.065937210377992,0.09981697319189418
37.718604,6.067851207277368,0.09908245382868099
37.7232,6.071153377480973,0.09830616857245757
37.727792,6.0743333629704335,0.09753685837121398
37.732384,6.080211651802838,0.09674550594636101
37.736964,6.083025083149861,0.09600365592265929
37.741564,6.083140211153941,0.09528409829779179
37.746156,6.082111535282081,0.09458977878509842
37.750756,6.085824401076752,0.09384503268032682
37.755344,6.092113385500222,0.09308812534690605
37.75994,6.092394839667076,0.09241100180053656
37.76452,6.093086989424994,0.09176264065321416
37.769108,6.0940676500598325,0.09114696561232212
37.7737,6.095581190999882,0.09054806216199299
37.778296,6.102369153911674,0.08992283823964826
37.782884,6.108912747395173,0.0893164306877908
37.787472,6.117543720650888,0.08873269710826957
37.79206,6.128506443107108,0.08815405378581574
37.796656,6.13861387256431,0.08762775674545649
37.801256,6.151419605364454,0.08708910232072702
37.805848,6.16782307595519,0.08653125453316798
37.810444,6.187579914908227,0.0859705005764943
37.815032,6.211589556671211,0.08540316697063005
37.819632,6.239196936224787,0.0848189595386179
37.824212,6.266437761635925,0.08426090862575118
37.828804,6.295888151533425,0.08371916499297911
37.8334,6.329469159526727,0.08317784927774935
37.837992,6.362683613377592,0.0826606724657407
37.842596,6.393610459476578,0.08218692937103322
37.847184,6.425969620328424,0.08173071571733806
37.851772,6.465524256761452,0.08123909776050466
37.856368,6.503157839585038,0.08076851557222683
37.86096,6.545410779361009,0.08027615322744563
37.865556,6.59048420719407,0.07976896257810404
37.870148,6.631471158379957,0.07931430571850585
37.874748,6.673601913441782,0.0788483478084119
37.87934,6.71483323405596,0.07839128948892013
37.88394,6.758474347136163,0.07789914247169298
37.888528,6.80644630629183,0.07735432010110135
37.893128,6.851353407962117,0.07684840271442063
37.897716,6.894583825451254,0.07635079373404345
37.902324,6.934216505149799,0.07587284281762519
37.906916,6.968574762876603,0.07541491092236925
37.911512,6.998435848365169,0.07497787317259151
37.916104,7.026986803815021,0.07452381714716226
37.9207,7.055371433102097,0.07403848578236959
37.925284,7.078481640417435,0.0735684954790547
37.929884,7.102857836322855,0.07307805512499235
37.93448,7.126578967208919,0.07257846898337816
37.939076,7.146169479999182,0.07207789659749489
37.943664,7.158442332494116,0.07161026241634819
37.948252,7.170959554417341,0.0711309913380666
37.95284,7.175914746616947,0.07069732301927177
37.95742,7.1784160049019,0.07026244408611523
37.962016,7.179484948433995,0.06981371345631324
37.966608,7.175690165585412,0.06939814472188521
37.971204,7.17136250243162,0.06896722204219437
37.975792,7.162948362630655,0.0685734080514595
37.98038,7.152613169220247,0.06819275418653738
37.984968,7.137658618857454,0.06782892758654073
37.989564,7.119883580437572,0.06747801351870673
37.994148,7.104029595627131,0.06711528117889179
37.998732,7.089607925569549,0.06676518125665269
38.00334,7.076862939693117,0.06641538132533571
38.007924,7.064773018836041,0.0660748741647175
38.012512,7.047452817455852,0.06578192030113904
38.01712,7.034629788313903,0.06547667912647923
38.021712,7.019763520848366,0.06518796872036213
38.026304,7.00375344950689,0.06491265376724761
38.030896,6.98762119345127,0.0646417244088435
38.035488,6.97700772879568,0.06435060791050257
38.040072,6.968070948321243,0.0640619494054152
38.044672,6.962976275065688,0.06375179413922548
38.049264,6.956493428505901,0.0634682567001946
38.053864,6.950543462251326,0.0632004025779972
38.05846,6.949990102682637,0.06292080277308727
38.063056,6.949847438705014,0.06266479640910969
38.067652,6.950482024460893,0.062412931171683554
38.072244,6.948173937445538,0.06217897809143417
38.076848,6.956126183496744,0.06190709892684579
38.081444,6.966776732890895,0.0616302897418927
38.086048,6.975017489819023,0.06138830807530107
38.090644,6.984402050623089,0.06113307760135736
38.095228,6.994686045874802,0.060877042277643595
38.099832,7.003704052536431,0.060641164154390796
38.10442,7.018729589454676,0.06036478767947232
38.109008,7.032733507211126,0.060098143402667864
38.1136,7.045715805805784,0.05983858060511813
38.118192,7.060741342724029,0.05956358440438319
38.122784,7.078220813556927,0.059296753105239665
38.127368,7.09545591496153,0.05904444432218323
38.131964,7.109748343594902,0.058809677510072954
38.136556,7.121997533904685,0.05859048543002577
38.141152,7.136045593109763,0.05836886541862905
38.145732,7.151115271476636,0.05813998996060415
38.150324,7.160910527871767,0.057913660246015485
38.154932,7.169029100085749,0.057684170584154544
38.159524,7.1791909106233165,0.057441171433307625
38.164132,7.189885601466097,0.05721428474421429
38.168716,7.193018262585257,0.05701676541506596
38.173312,7.194884935114331,0.05683885147240203
38.177912,7.198139780947636,0.05663562175997635
38.182496,7.199473573171499,0.05644089993285261
38.187084,7.199907930947714,0.056247665797989246
38.191664,7.203651515637602,0.056021950328716034
38.19626,7.207805795918555,0.0558207782202989
38.200848,7.2128595106471565,0.055619708897659895
38.205444,7.221633147880494,0.05540934142487294
38.210032,7.2340045229044225,0.055197243998580114
38.214632,7.247519701804291,0.05497405034714083
38.219224,7.259236011808864,0.0547533350584889
38.223816,7.270952321813437,0.0545323122945894
38.228408,7.283690250979803,0.054304810799420296
38.233,7.296794734288607,0.05406123349932834
38.2376,7.31157590177856,0.05382303533724791
38.242192,7.329588252916667,0.053599215520437365
38.24678,7.349277288235926,0.053380339973198264
38.251376,7.363325347441005,0.053177108979978
38.255964,7.380682633559756,0.05294388630020423
38.260548,7.397140485230859,0.05271013371533852
38.26514,7.413964891044399,0.05245952733495154
38.26972,7.429767677696146,0.05221582309903467
38.274304,7.447491517957333,0.05196610613552982
38.278892,7.465337542932668,0.05171152683039212
38.283488,7.481018144870268,0.051476959367769186
38.288068,7.49334537844557,0.05123383366474903
38.292656,7.504118112553866,0.05098147129347623
38.297264,7.510271489709777,0.05073657263928542
38.301852,7.510906075465656,0.05050018496130879
38.30646,7.509741792326238,0.050265141714792246
38.311048,7.509066248043405,0.050007764451121754
38.31564,7.511455561245952,0.04973349635166445
38.320236,7.513967059162644,0.04945393777754465
38.324824,7.514313134041603,0.04919171371750284
38.329416,7.512083090291765,0.048924636979271005
38.334012,7.508298547074922,0.048646614319832214
38.338616,7.501038450781634,0.048362615100949226
38.343204,7.496721027259581,0.04806556403010971
38.3478,7.489460930966292,0.04778012115935485
38.35238,7.486942376339534,0.047483304541092015
38.35698,7.480459529779749,0.04720175603115808
38.361568,7.476674986562906,0.04692079285577685
38.366168,7.4697034011465355,0.04666164503204605
38.37076,7.459666958244786,0.046418012887533375
38.375352,7.446565657857655,0.04618996943004906
38.379944,7.431176749718647,0.045983029671874995
38.384536,7.412600799380113,0.04579715342987542
38.389136,7.395823717936872,0.04561050408639853
38.393728,7.376103963722398,0.045432858655882494
38.398308,7.3533193520225435,0.0452707340744143
38.402892,7.3268589592665805,0.045153174863020645
38.407484,7.292469982644559,0.04506733234972826
38.412076,7.255793398270661,0.04500345745792508
38.416668,7.216296325839674,0.04494380333389094
38.421256,7.172834961475656,0.04489978983614597
38.425852,7.124509870730964,0.044871208219591556
38.430444,7.077983648881568,0.044841443335069404
38.435036,7.0290476345661475,0.04484041322616132
38.439624,6.978312751355431,0.04483678368629176
38.444212,6.922836326478184,0.04484133338433888
38.44882,6.8682593360485855,0.0448461121084468
38.453408,6.8100846078283945,0.04484709642988576
38.458004,6.7512548145888465,0.044835132257778465
38.462596,6.693446640511092,0.04481664892448953
38.467184,6.635760651147483,0.04479206422456657
38.47178,6.577297412050373,0.044760705097370526
38.476376,6.514214816000878,0.04473286258407171
38.480972,6.446635047713143,0.04470052777336241
38.485552,6.377256410530113,0.04466586905199024
38.490148,6.307100523613582,0.04462249498130137
38.494728,6.235634506658337,0.04455152480245526
38.499328,6.169154400797914,0.04445511082406792
38.503912,6.098299307413396,0.0443476609051985
38.508512,6.023724291524141,0.044242764671623004
38.513104,5.947472591453737,0.044127423456119697
38.5177,5.874285748868714,0.043988963453912004
38.522288,5.79521356074122,0.04387340671554232
38.52688,5.712910188965572,0.0437307002432854
38.53148,5.622800418038013,0.04361702131987458
38.53608,5.523207563777393,0.04352539690083851
38.540672,5.422959644497416,0.043411673359029415
38.545264,5.315149695493819,0.04331018411165604
38.549844,5.200799335928398,0.04321476367269534
38.554432,5.0790091313535,0.043124788286033784
38.55902,4.951822320092716,0.043023823135068556
38.563612,4.820260521307837,0.04289923150793524
38.5682,4.685756049751726,0.042791132535629356
38.572788,4.550229959033819,0.04268151664119815
38.577384,4.415725487477707,0.042551296497653254
38.581964,4.274558420645623,0.042436686484794685
38.586556,4.127872562413506,0.04230769313522335
38.59114,3.9709263711148255,0.04217922534255088
38.595728,3.8114040611873463,0.04200704233454312
38.600316,3.655723858478751,0.04180014585102185
38.604908,3.5000436557701553,0.041570538960733566
38.609496,3.3405213458426766,0.04132724103156276
38.614092,3.1776456675528975,0.04101272994550291
38.618668,3.014647804548973,0.04066637363051504
38.623268,2.856391483211579,0.04028609571408731
38.627848,2.70863986436904,0.03981722355434166
38.632448,2.5559023344316794,0.03934239456877237
38.637032,2.4039420542278207,0.038830848841574415
38.641624,2.2559460659569903,0.038149520966930715
38.646208,2.1117921849050427,0.03730291921260234
38.650804,1.973157095253128,0.035196069329504386
38.655392,1.8377531892493677,0.03311512183869025
38.659984,1.7129761704546074,0.031015387015527918
38.664576,1.5907752702886455,0.02892787464540053
38.669168,1.4739709768085707,0.02686545222214344
38.673756,1.3673048316809135,0.024797458748483728
38.678352,1.2678341621344391,0.022754880175000096
38.68294,1.1774800217785886,0.02072754457047274
38.687532,1.0940769875756298,0.018749625680597792
38.692124,1.0114512031061729,0.016805382269975452
38.696716,0.9343442100367491,0.014889970298254363
38.701308,0.8590360858626208,0.013007292584029398
38.705896,0.7975860325456474,0.011186072644182588
38.710488,0.7434536395240025,0.009412203222543207
38.715076,0.6968832762259773,0.007657366717694746
38.719652,0.6480253051760738,0.005976890806572516
38.724248,0.6077509830115837,0.004325827505178507
38.728836,0.5747943211424222,0.002713418660278211
38.733436,0.546745527102565,0.0012729100050612263
38.73802,0.52282735115851,0.0
38.742612,0.49944205551966575,0.0
38.747216,0.48002105181385,0.0
38.751796,0.46113292841324516,0.0
38.7564,0.4500512041645514,0.0
38.760988,0.43692624159227084,0.0
38.765588,0.4240456484482813,0.0
38.770164,0.4156622275425312,0.0
38.774772,0.4090776755320767,0.0
38.779364,0.40249312352162225,0.0
38.78396,0.3986068748541114,0.0
38.788556,0.3965194950818961,0.0
38.793148,0.39970653728142236,0.0
38.797744,0.39598661477668534,0.0
38.80234,0.3893240195007134,0.0
38.80694,0.3767760786822716,0.0
38.811536,0.36999129869215397,0.0
38.816128,0.3619405301119514,0.0
38.820712,0.3567102495888382,0.0
38.825304,0.35082490404636835,0.0
38.829888,0.3491482198652182,0.0
38.834476,0.3515580123312423,0.0
38.839068,0.3538456200831207,0.0
38.84366,0.3533127397779099,0.0
38.84824,0.3475495789495857,0.0
38.85284,0.343707471730703,0.0
38.857428,0.3394988103693833,0.0
38.86202,0.33271403037926567,0.0
38.866608,0.3269508695509415,0.0
38.871196,0.32605143510329365,0.0
38.875804,0.32425256620799797,0.0
