Time,Force,Position
3.68628,14.121269388718831,0.1311729309144452
3.690856,14.14859849702723,0.1308790251583138
3.69544,14.182311929366415,0.1305891835977603
3.700028,14.226740531811854,0.1302635403627811
3.70462,14.27918600102061,0.1299191312743273
3.709208,14.338338206953969,0.1295521296951585
3.713796,14.40456370375436,0.1291509527172585
3.718399999999999,14.474919818650555,0.128738956764001
3.722987999999999,14.54449868381325,0.1283314149024672
3.727592,14.615998602585384,0.1279126886079984
3.732175999999999,14.6879872602141,0.1274808838806753
3.736763999999999,14.757277614499875,0.1270655842613619
3.74136,14.82938845684274,0.126635310616697
3.745956,14.898145930823302,0.1262186975592877
3.75056,14.963916590584004,0.1258072166389718
3.755148,15.024412828372965,0.125424232276425
3.759744,15.090916596418538,0.1249975937384151
3.764324,15.162816971149995,0.1245479570641651
3.768924,15.2332850311286,0.124101604310629
3.773515999999999,15.303220210801989,0.1236552754380928
3.778112,15.36902477237958,0.1232263510980991
3.782691999999999,15.434907377222686,0.1227771552606429
3.787288,15.502911263654896,0.1222941929543587
3.791876,15.564330598076651,0.1218344442725754
3.796472,15.61544545798322,0.1214155141453703
3.801064,15.66087520032698,0.1210135867432318
3.805655999999999,15.699476021231993,0.120637596078741
3.810243999999999,15.737255450954876,0.1202476665374358
3.81484,15.772825316191398,0.1198583829408001
3.819416,15.808228855265146,0.11945630517969
3.824007999999999,15.847063805966712,0.1190255600427379
3.8286,15.889330168296096,0.1185655856597691
3.833176,15.929386966139118,0.1181076218204918
3.83776,15.974674044505251,0.1176132198861198
3.842348,16.020449861727972,0.1171085151746251
3.846928,16.069412721150215,0.1165820917614164
3.851528,16.116043831371954,0.1160615883634849
3.856116,16.157112008745028,0.1155531886945497
3.8607080000000007,16.197769490527044,0.1150389175048178
3.8652960000000007,16.234540723641544,0.1145305451827107
3.869876,16.27228943446921,0.1140008389165962
3.874471999999999,16.313836111067133,0.1134371849324369
3.879059999999999,16.35264034287348,0.112870512799333
3.883656,16.390867552925993,0.1122823176295737
3.88824,16.438000824557726,0.1116268759156826
3.89284,16.481614401664384,0.1109649035804472
3.897423999999999,16.529759052826172,0.1102501952488758
3.902023999999999,16.57336239030109,0.1095381197674217
3.906616,16.618309759631614,0.1087952650275786
3.911208,16.658182934970053,0.1080473044918331
3.915799999999999,16.689794874116895,0.1073156933228148
3.920392,16.718131488166954,0.1065735102839208
3.924996,16.74613544989146,0.1058047230572272
3.929592,16.77049753237675,0.1050346709169588
3.934184,16.79571490786106,0.1042473669855773
3.9387760000000007,16.81729040410615,0.1034572782928846
3.943351999999999,16.83461309754129,0.1026765645236381
3.947939999999999,16.84935967234764,0.1019020914062481
3.95252,16.86500568160163,0.1011275117357787
3.9571039999999993,16.880285136713184,0.1003621296306901
3.9617,16.894176418520505,0.0996140236587911
3.966284,16.902348680948137,0.0989113009941664
3.970868,16.91122014984375,0.098230718515086
3.9754520000000007,16.921856585817768,0.0975829665364612
3.980032,16.926573774432427,0.0970022077987291
3.984632,16.938286210648606,0.09642360983537
3.98922,16.948820941171956,0.0958923991983218
3.993796,16.96484056127845,0.0953813571506845
3.998391999999999,16.98250296374921,0.0949064751157837
4.002984,17.00426208249888,0.0944642757791437
4.007576,17.029707221936395,0.0940454111393099
4.012155999999999,17.05205360207164,0.0936791824668454
4.016752,17.07399952624756,0.0933592835617012
4.021331999999999,17.09435704913959,0.0930761499533755
4.025931999999999,17.110427867404777,0.0928371089683801
4.030516,17.12821951129974,0.0926137719550184
4.035107999999999,17.14948670827115,0.0923840037350089
4.039695999999999,17.175617631623243,0.092135282131273
4.044288,17.194020199088936,0.0918995346575455
4.048888,17.211234821230065,0.0916548586161974
4.053483999999999,17.222764325808384,0.0914124658526521
4.058071999999999,17.23257300475693,0.0911546739583937
4.0626560000000005,17.2362858705516,0.0908899446805356
4.0672440000000005,17.235413281210775,0.090602041038958
4.07184,17.231343410038683,0.0902770188973556
4.076428,17.221177725712728,0.0899448624749587
4.081023999999999,17.206060032108834,0.089597085293055
4.0856200000000005,17.180593722541122,0.0892462336023937
4.0902080000000005,17.145145351152024,0.0888829743004381
4.094799999999999,17.103679209874574,0.0884905129391126
4.09938,17.059426482356923,0.0880684943850468
4.103972000000001,17.018028144713252,0.0875987333661339
4.108568,16.970900548058147,0.0871106894184395
4.113156,16.918698757410958,0.0866068860550968
4.117751999999999,16.866042129724086,0.0860745927276529
4.12234,16.809499253369697,0.0855370502753588
4.126928,16.75013588895822,0.0850067144934168
4.131532,16.682599571252393,0.0845125521681494
4.136132,16.619604567233434,0.0840232408387308
4.140732,16.556653704663102,0.0835493407547069
4.1453240000000005,16.4971003519037,0.0830883403859021
4.149915999999999,16.43939000948822,0.082638934854759
4.1545000000000005,16.384710622741235,0.0822112308688325
4.159096,16.33383944139624,0.0818067692673178
4.163672,16.286654280739093,0.0814280976727092
4.168272,16.242622260464586,0.0810695407166825
4.172864000000001,16.201987750001003,0.0807253963203082
