Time,Force,Position
3.442708,12.22377534280916,0.1474793506899798
3.4473000000000003,12.364355839122386,0.1471098631908041
3.4518880000000003,12.487249579912984,0.1467041065722592
3.456484,12.601294823126404,0.1462501476726558
3.461072,12.70874527469763,0.1457605682043679
3.46566,12.809156337218708,0.1452829200347527
3.470256000000001,12.90187294567028,0.1448129631046133
3.474844000000001,12.991881011147171,0.1442974883646226
3.479452,13.07190701480268,0.143819588245233
3.48404,13.14518214028496,0.1433622716557093
3.4886280000000003,13.211339833451577,0.1429385761203259
3.493224,13.269769170731797,0.1425640318558454
3.4978160000000003,13.331585778191206,0.142126448199666
3.5024200000000008,13.385018964744866,0.1417382628574275
3.507008000000001,13.439918367868271,0.1413075170126419
3.5116,13.49093152232417,0.1408895996661118
3.5161800000000003,13.54267778506494,0.1404498358269781
3.52078,13.593768982786354,0.1400123932060955
3.5253680000000003,13.640729562411968,0.1395966459424047
3.529964,13.684292632226654,0.1391813422787256
3.5345560000000003,13.73230873283095,0.1387174859440774
3.539148000000001,13.775338922340422,0.1383036518097074
3.54374,13.82213317580326,0.1378859305803555
3.548324000000001,13.86692833239114,0.1375115808315821
3.552924000000001,13.91454397703611,0.1371193325895801
3.557516,13.962159621681078,0.136730423411585
3.562092,14.009897451040194,0.136340335348766
3.56668,14.05510330321914,0.1359866896046457
3.571268,14.098920982093857,0.1356535397379067
3.5758600000000005,14.141594857092633,0.1353341602828013
3.580452000000001,14.183491482357905,0.1350181784575739
3.585028000000001,14.228819519250996,0.1346637772598012
3.589628000000001,14.271327068087,0.1343331641149986
3.5942120000000006,14.31804327828432,0.1339649462880267
3.598804000000001,14.35862977351088,0.1336539482714314
3.6034000000000006,14.403180560670467,0.1333119860396418
3.607984,14.450796205315438,0.1329470239647746
3.612588000000001,14.49775678494105,0.1325829216898106
3.617168000000001,14.54561679901431,0.1322144550307712
3.62176,14.591966455069192,0.1318715778681854
3.6263520000000007,14.634229634476904,0.1315661900545814
3.630948,14.677880987188844,0.131243391300088
3.635544000000001,14.719733471005489,0.1309331274464673
3.640136,14.76056433566034,0.1306319361851604
3.6447280000000006,14.80025139643925,0.1303457753369732
3.6493160000000007,14.836218534713426,0.1300840820423816
3.6539160000000006,14.873740172454603,0.1298215510781415
3.658496000000001,14.910728929890574,0.1295541232133394
3.663096000000001,14.955524086478457,0.1292321984023993
3.667684000000001,15.002484666104069,0.1288911963474328
3.6722800000000007,15.05058904960562,0.1285403276320428
3.676872000000001,15.097427444517084,0.128206386194416
3.681464,15.140545916923816,0.1278955335897699
3.686064,15.18072171655931,0.127608766726922
3.6906560000000006,15.22277442835562,0.1272907162451043
3.695236000000001,15.259552718180188,0.1269987992345942
3.6998200000000008,15.290157151585364,0.1267383442410385
3.704416,15.318918574646617,0.126469691821662
3.709,15.348124595115824,0.1261701370757895
3.713588,15.37266711718402,0.1258777726298704
3.71818,15.396510432784233,0.1255648499695384
3.722772000000001,15.4143020766792,0.1252775019470294
3.727356,15.42845184133495,0.1249897173642135
3.731948000000001,15.439981345913267,0.1246928149685647
3.736536000000001,15.445947917642927,0.1244077350428637
3.741128,15.451215282904604,0.124101101940717
3.745724000000001,15.445400923917587,0.1238357876152591
3.750312000000001,15.43929805405365,0.1235581103714258
3.754908,15.42007022161743,0.1233376065835138
3.759488000000001,15.39581233663776,0.1231335036143182
3.764084,15.366524399114644,0.1229455748924194
3.76868,15.333472397638158,0.1227592799804684
3.773272,15.298210831675316,0.1225724756366966
3.777868,15.255465279254368,0.1224085188133262
3.782444,15.20630150098574,0.1222786065597969
3.787044,15.160569134344932,0.1221138435760622
3.791632,15.110217410751735,0.1219745422579034
3.796236,15.05475759134957,0.1218739175674697
3.800824,14.992024253100707,0.1218311356102061
3.805424,14.933788087090084,0.1217650324695322
3.810008,14.875840431956384,0.1217102578286658
3.814604000000001,14.820346710737333,0.1216485953431404
3.819196,14.765796565414554,0.1216013779846686
3.823788,14.716687168226294,0.1215459941745013
3.828392000000001,14.66929859666781,0.1215043590162328
3.832988,14.62428591575846,0.1214783891092924
3.837580000000001,14.58867827491666,0.1214171243614572
3.842172,14.55376984054284,0.121377335497969
3.84676,14.530964749579509,0.1212886664160802
3.851356000000001,14.510124853674244,0.1212071208784844
3.855944000000001,14.49190521784641,0.1211351664035907
3.860536,14.479492884295526,0.1210456407606701
3.865132000000001,14.476852144954622,0.1209109789687643
3.869720000000001,14.481573207357677,0.1207569797813067
3.874312,14.49107995287589,0.1205931567629392
3.878892000000001,14.498465416804995,0.1204686414229901
3.883484000000001,14.51574465965823,0.1202958544717318
3.888072000000001,14.537931770340768,0.1201098970610806
3.892660000000001,14.568991040785638,0.1198830553807969
3.897256000000001,14.600461006821574,0.1196668780319237
3.9018320000000006,14.633363287610369,0.1194530194416898
3.906424000000001,14.67166217508505,0.1192146198098752
3.9110200000000006,14.713558800350324,0.1189596601409401
3.915616,14.75647704477739,0.1186992991650704
3.920212000000001,14.80323739642334,0.1184158686949893
3.924800000000001,14.852285355821166,0.1181121356424091
3.929396000000001,14.904153803276085,0.1177953777782709
3.9339720000000007,14.955489370425791,0.1174731755579996
3.9385720000000006,14.999385092566024,0.1171928313209056
3.9431600000000007,15.051087213858168,0.1168652082585171
3.9477600000000006,15.108019615673422,0.1164994350897755
3.952344,15.164707648060388,0.1161431203235744
3.956940000000001,15.216776323494967,0.1158136579530318
3.961532,15.269089368357845,0.1154795051063562
3.966128000000001,15.326388324315536,0.1151148034759655
3.970716000000001,15.38507545357746,0.1147337720905638
3.9753120000000006,15.439265410601145,0.1143749910551692
3.9799000000000007,15.495865160090856,0.1139940798809712
3.984484,15.55091041011356,0.1136171463717356
3.989072,15.605300595116908,0.1132392265374098
3.993672,15.659402269243332,0.1128508183868579
3.99826,15.706186283074434,0.1124971462999363
4.002852000000001,15.754358470209764,0.1121299705730485
4.007448,15.800198908144583,0.111766844509768
4.012028000000001,15.845384281060053,0.1114033503337225
4.01662,15.88942585009958,0.1110520136933729
4.0212,15.931013485224456,0.1107081439554089
4.025784,15.974766543387066,0.1103491654865302
4.030392000000001,16.022483893482704,0.1099672574394821
4.034976,16.062761398568867,0.1096224254775648
4.039584,16.09944116586444,0.1092941230220903
4.044176,16.133911368673648,0.1089651820674003
4.048764,16.168625940911152,0.1086313553025275
4.05336,16.203584882576948,0.1082931898751528
4.057948,16.240709247280474,0.1079434411065486
4.06254,16.28089846946938,0.1075770326027738
4.067128,16.322109310820082,0.1072053525077694
4.071728,16.36470832547501,0.1068217436476878
4.076308000000001,16.41163818620541,0.1064112783795932
4.080908000000001,16.46085565468768,0.1059851189002654
4.085496000000001,16.512893611227046,0.105549646242101
4.090096000000001,16.573637401365968,0.1050739520898749
4.094692,16.634625560933184,0.1045970482261453
4.099284000000001,16.696635339662194,0.1041168798604195
4.103868,16.760688356714788,0.1036286142990065
4.108456,16.826129547071613,0.1031289153060608
4.113044,16.88989405324729,0.1026345403520915
4.11764,16.958522285803642,0.1021224860289141
4.122228,17.029193756683576,0.1016029116565268
4.126824000000001,17.103829519496543,0.1010657777826362
4.131412000000001,17.180141966490662,0.1005289555274393
4.136000000000001,17.261073770437164,0.0999793655175277
4.140588000000001,17.344581693012465,0.0994279956121438
4.1451720000000005,17.428989050035415,0.0988777428120241
4.149764000000001,17.504934942887093,0.098363731572443
4.154352000000001,17.57998140129112,0.0978568636205782
4.158944,17.65886996691404,0.0973379136241649
4.163528000000001,17.736370359232723,0.0968369750109118
4.168116000000001,17.804920548523555,0.0963805459876539
4.172708,17.873104183671956,0.0959356871218976
4.177296,17.937567896315613,0.0955061094939635
4.181884,17.998189501740388,0.0950955039773443
4.18648,18.054191750212784,0.0947019170088595
4.191068,18.11007181397104,0.0943132736224416
4.19566,18.16223195522454,0.0939388837247925
4.200240000000001,18.212593227582754,0.0935713438578787
4.204836,18.266674422445707,0.09319431260151
4.209416000000001,18.31319358758504,0.0928459571493918
4.214016000000001,18.355337765200275,0.0925079615330946
4.218608,18.39784849695795,0.0921647450953898
4.223192000000001,18.43725022978161,0.0918213051281985
4.227772,18.470600290900038,0.0914894244965494
4.232368000000001,18.500064103350947,0.0911567961208055
4.236968000000001,18.528217785763147,0.0908197983615193
4.241564,18.556738022317784,0.0904750370935731
4.2461400000000005,18.57998383690068,0.0901408872440334
4.2507280000000005,18.597300164492477,0.089814713430351
4.2553160000000005,18.611629677864403,0.0894848640649893
4.259912,18.632455460349536,0.0891208765719382
4.2645,18.652337666938397,0.0887447829457437
4.269084000000001,18.67360804683148,0.0883576311816913
4.273668000000001,18.690869993342908,0.0879706331104562
4.278256000000001,18.71131898205386,0.087568907352749
4.282848,18.7289033412591,0.08716060109782
4.287432000000001,18.74427813597797,0.0867479857712328
4.292020000000001,18.75858717008644,0.0863249870609733
4.296612,18.76954283583259,0.0859059075578963
4.3012,18.77943274096832,0.0854753911407854
4.305788,18.78956701553235,0.0850401517351318
4.310384000000001,18.796225737019924,0.0846106948050397
4.314972000000001,18.801207774326347,0.0841820278317581
4.319576,18.807455800222865,0.083744276290075
4.324168,18.811904957224087,0.0833097296736812
4.328764,18.81647629893945,0.0828738000482548
4.333352,18.825256302016133,0.0824196760977385
4.337952,18.83632391284469,0.0819523289666731
4.342532,18.845348285349665,0.0814924475635137
4.347124000000001,18.852573788959347,0.0810356190151782
4.351716,18.853014512578916,0.0806001419527252
4.356308,18.846670456208354,0.0801848951285681
4.360904,18.835951412313705,0.0797747162720728
4.365500000000001,18.82715342202849,0.0793585290535187
4.370088000000001,18.81361389007676,0.0789548402387199
4.374684,18.80138448816373,0.0785577052575198
4.37928,18.792752824041298,0.0781545197515569
4.383876000000001,18.785309105243435,0.077760857186094
4.388464000000001,18.77414546394083,0.0773748706934596
4.393052000000001,18.765313571838732,0.0769916009367544
4.397640000000001,18.758402733346077,0.0766034031774931
4.402232,18.75149189485342,0.0762151711450812
4.406824,18.749078228599004,0.0758203435184014
4.411412,18.74899631154509,0.07542938052944
4.416,18.754433185891216,0.0750287299381829
4.4205760000000005,18.756027953018453,0.074638168865819
4.425172,18.753658428212663,0.074260335101831
4.4297640000000005,18.75002291481679,0.0738907530735733
4.4343520000000005,18.753294366125186,0.0735010144256136
4.43896,18.759386305490665,0.0731053249966407
4.443548,18.76854310234152,0.0726985812752
4.44816,18.782807995001345,0.0722734526937212
4.452752,18.801570059899408,0.0718428951657258
4.457356000000001,18.821353743959268,0.071409713181863
4.461948,18.84252560132336,0.0709659084754876
4.466536,18.86058845975344,0.0705170426213288
4.471132000000001,18.875297949821217,0.070068263353734
4.475712,18.88816442954508,0.0696068229031159
4.480312,18.9035628864491,0.0691288243384418
4.484892,18.91765121331442,0.0686439053156571
4.489492,18.92634293349385,0.0681648391971987
4.494072000000001,18.93515683838742,0.0676838342524757
4.498672000000001,18.936120202680453,0.0672061389553778
4.503256,18.927311972763505,0.0667350493153932
4.507852,18.91053101753187,0.0662693313404126
4.512444,18.894116616442677,0.0657954308423944
4.517028,18.878190954210066,0.0653114656722531
4.521616,18.86647395333877,0.0648127301417058
4.526212000000001,18.847439292172147,0.064322637566227
4.530800000000001,18.827993935414455,0.0638239404245588
4.5353840000000005,18.806994079189767,0.0633213208883565
