Time,Force,Position
3.216676000000001,13.052049180712576,0.14641881320825
3.221272000000001,13.11398797288613,0.1459441404554454
3.2258640000000014,13.166878039502842,0.1454516397024323
3.2304600000000008,13.207698664525957,0.1449950166565483
3.2350520000000014,13.24152404194755,0.1445660516690907
3.2396400000000014,13.26990867123463,0.144158139743083
3.244224000000001,13.295306486301843,0.1437587516338084
3.248816000000001,13.318250367454404,0.14337220613995
3.253404000000001,13.340783553015903,0.142975835680831
3.2579920000000016,13.359230261930223,0.1426243133506311
3.262576000000001,13.37816570970113,0.1422564163546771
3.267168,13.396201723024388,0.1418959752630177
3.271756,13.411950128595768,0.1415661593844289
3.2763480000000005,13.428842338043085,0.1412236177531655
3.280932,13.442669690005022,0.1409131309226302
3.285508,13.464547810547163,0.1405281239961224
3.290104000000001,13.494520841118137,0.1400897416659649
3.2946920000000013,13.524493871689106,0.1396529656664571
3.2992800000000013,13.550380425612904,0.139258763086488
3.303884,13.577166413984347,0.1388603605819746
3.308472,13.606772890412884,0.1384414108735519
3.3130640000000007,13.634869008823042,0.1380487134448257
3.3176440000000014,13.662720757804909,0.1376661300759731
3.3222320000000014,13.696746363206168,0.1372493299698731
3.326820000000001,13.735146956131516,0.1368105474710742
3.3314200000000014,13.776123667685663,0.1363607556907539
3.336012,13.81824418311575,0.135900315096228
3.3406080000000014,13.864328990478867,0.135409034701591
3.3452,13.914788785366078,0.1348958934330591
3.3497920000000008,13.96512639553914,0.1343881004103219
3.3543920000000007,14.020738427683945,0.1338542424262707
3.358988,14.078682209029257,0.1333177179070634
3.363588,14.134949306193416,0.1327894262951749
3.368184000000001,14.19199365309108,0.1322639161680034
3.372776,14.251736303331686,0.1317246746600109
3.377364,14.306126488335034,0.1312443888450769
3.3819440000000007,14.356141685814288,0.1307913628064568
3.3865360000000013,14.407178502455336,0.130332076261892
3.391116,14.462956860762914,0.1298435844212767
3.395696000000001,14.517058534889342,0.1293639744373494
3.400288000000001,14.570260774568125,0.1288922836770992
3.404876,14.628693294770017,0.1283775209533098
3.4094680000000004,14.690068487743147,0.1278458890304321
3.4140560000000004,14.745269824296887,0.1273491060090055
3.4186440000000005,14.798017226935972,0.1268646321316697
3.4232560000000003,14.847166891784468,0.1264013371588342
3.4278440000000003,14.896072187204672,0.1259479811852085
3.4324440000000003,14.94330079844373,0.125504820961057
3.437036000000001,14.98897491021578,0.1250674597144283
3.4416400000000014,15.036814445025565,0.1246129025020326
3.446232,15.080278992311252,0.1241809306889186
3.450824000000001,15.123577213434167,0.1237361550258689
3.4554280000000013,15.170839726490112,0.1232652272071929
3.460028000000001,15.213605067307816,0.1228182361849001
3.46462,15.256859146982103,0.122361206671009
3.4692000000000007,15.29880309661768,0.1219011672580749
3.4738000000000007,15.339070362072103,0.1214476982671065
3.4783880000000007,15.378682562507173,0.1209942936642966
3.4829880000000006,15.412120906522851,0.120570108612846
3.487572,15.448746292738056,0.1201222528447374
3.492172,15.4865154828292,0.1196658254436425
3.4967560000000013,15.519010250948604,0.1192340980001557
3.5013520000000007,15.546352781810407,0.1188231296610322
3.5059440000000013,15.577004539585888,0.1183851393779465
3.510536,15.603281309837277,0.1179649681592744
3.515124,15.63311167643062,0.1175114968179976
3.5197160000000007,15.660854663251754,0.1170552928809725
3.524296000000001,15.689863638662972,0.1165885618100847
3.528888,15.717806853463768,0.1161124652283556
3.5334640000000004,15.74390705792064,0.1156280810660037
3.538048,15.77061818594824,0.1151289732486071
3.542632000000001,15.7946310106329,0.1146429088802488
3.547220000000001,15.816189901402904,0.1141639994083182
3.551812,15.839014780762994,0.1136717799560845
3.5564,15.85770904202728,0.1131902518024424
3.5609800000000007,15.874848803824566,0.1127100734287367
3.5655720000000013,15.893254554211936,0.1122174103225945
3.5701600000000013,15.909206370684654,0.1117301275039353
3.574764,15.92617980631916,0.111236036682428
3.5793560000000006,15.9364906466777,0.1107772008163212
3.5839440000000007,15.945124802855084,0.1103236722590456
3.5885360000000013,15.953758959032472,0.1098703174028108
3.593128,15.96149368076221,0.1094203923668146
3.5977240000000013,15.967062979454218,0.1089880647305238
3.602304,15.975574950917458,0.1085389402757545
3.606900000000001,15.97987826101938,0.1081198650155696
3.611488000000002,15.985858255302452,0.107697658639951
3.616092,15.98493128488126,0.1073149608239513
3.62068,15.978774033936956,0.1069670342488677
3.625276000000001,15.970206990526629,0.1066411361541347
3.6298600000000008,15.957675655183277,0.1063373195156076
3.634456,15.946165939001707,0.1060269470343048
3.639044,15.931713550048912,0.1057321929340669
3.643640000000001,15.920203833867347,0.1054215643314437
3.648228000000002,15.909226997990997,0.1051164767571163
3.6528240000000007,15.903113888495318,0.1047863680314609
3.6574120000000008,15.896878594285493,0.1044595172853523
3.662008,15.891176180380883,0.1041383229915619
3.6665920000000014,15.887394820085714,0.1038080226238686
3.671192000000001,15.888355001457075,0.103455708234012
3.6757880000000007,15.888293563666643,0.1031097099095913
3.680380000000001,15.889908810057362,0.1027609456067451
3.684964000000001,15.891157502305642,0.1024208310759006
3.689552000000001,15.891628944820422,0.1020808992889521
3.6941440000000014,15.8921003873352,0.1017413976982622
3.698724,15.896536121783006,0.1013812246579737
3.703308,15.898151368173725,0.1010332252034972
3.707904000000001,15.904752525659264,0.1006581409585598
3.712492000000001,15.91928226701086,0.1002416025326837
3.717088,15.936632496419543,0.0998138130568412
3.7216840000000015,15.963221439733,0.0993526245434825
3.72626,15.99046544806581,0.0988960631886483
3.730856000000001,16.020407759741566,0.0984310830839553
3.735444000000001,16.047407398646087,0.0979822796662759
3.740040000000001,16.07734971032184,0.0975206493708416
3.744628000000001,16.10410497979807,0.0970814750051149
3.749228,16.13278130288374,0.0966357394184599
3.753812,16.16260142984535,0.0961821464894794
3.758412,16.19127775293102,0.0957386406061144
3.762996000000001,16.2163563382261,0.0953063050791379
3.767588,16.241801477663614,0.0948657653639316
3.772184000000001,16.26364887931054,0.0944360106096768
3.776780000000001,16.28868332315699,0.0939873689062364
3.781376,16.316416070346385,0.0935324548785218
3.785976,16.344926067269284,0.0930794860520892
3.790568,16.370615576135087,0.092638479625864
3.795160000000001,16.397448888876838,0.092189436951267
3.799748000000001,16.424160016904437,0.0917450874327792
3.804336000000001,16.448705721894306,0.0913166952751349
3.808924000000001,16.47055312354123,0.0908962291059264
3.813508000000001,16.48802553766406,0.0904875719387435
3.818088000000001,16.50472070205339,0.0900794046230813
3.822676000000001,16.52166023587101,0.089666372834748
3.8272600000000008,16.53925483470799,0.0892572282765046
3.831852000000002,16.554928379935525,0.0888567816360956
3.836436000000001,16.567004187372465,0.0884649463431457
3.841036000000001,16.57715894119997,0.088081517725456
3.845624000000001,16.58845749890341,0.0876912448767148
3.850212000000001,16.601022045196935,0.0872913566908577
3.854808,16.620249186766433,0.086869423899656
3.8594040000000014,16.642052446964726,0.0864453777720221
3.864004000000001,16.667819999096054,0.086005239335341
3.868596,16.69268811677973,0.0855685998875953
3.873192000000001,16.713958496672817,0.085141005739516
3.8777680000000014,16.733185638242315,0.0847237167406279
3.882368000000002,16.753434398973607,0.0843023866958678
3.8869560000000014,16.77535984388605,0.0838808999156956
3.891556000000001,16.794709170169693,0.0834631553258282
3.8961440000000014,16.813036877291545,0.0830511026117911
3.900744000000001,16.83406288775634,0.0826340310911615
3.9053400000000007,16.8521462254499,0.0822287689305225
3.909932000000001,16.8695744981241,0.0818205672834266
3.914520000000001,16.88790220524595,0.081411729684905
3.9191160000000007,16.90659646651024,0.0809954977972972
3.9237040000000007,16.925412912488678,0.0805774530569616
3.928296000000001,16.95089195374308,0.0801398115433729
3.9328840000000014,16.97649317971163,0.0797005497369762
3.9374800000000008,17.001850036251895,0.0792683557033804
3.942072000000002,17.027984142525657,0.0788391659898189
3.9466600000000014,17.05399606408527,0.0784160048256765
3.9512480000000014,17.081151789520828,0.0779884640693343
3.955844000000001,17.110106383851672,0.077560131607818
3.9604360000000014,17.14110421650611,0.0771253584223289
3.9650240000000014,17.17516690664593,0.0766793198967071
3.969624000000002,17.21086213951827,0.0762171624241133
3.974204,17.249744414590133,0.0757428039767775
3.978796000000001,17.289892678252087,0.0752616312146253
3.983384000000001,17.334782483580568,0.0747703434428644
3.987972000000001,17.383103700536864,0.0742621962861312
3.99258,17.430769852473812,0.0737522337021859
3.997168,17.48047924273434,0.0732356073081643
4.001772000000001,17.531210252156665,0.0727168990010399
4.006368,17.579487327664335,0.0721985302625298
4.010956,17.628375326742734,0.0716696306494766
4.015564000000001,17.67660826080178,0.0711384759814202
4.020148000000001,17.719688957603225,0.0706114373444475
4.024740000000001,17.76145952436596,0.070077936074989
4.029328000000001,17.80024327690883,0.0695375299717362
4.033916000000001,17.833874792194102,0.0689997637401649
4.0384920000000015,17.858511963002897,0.0684737289398303
4.043088000000001,17.87595365823051,0.0679569656260079
4.047672,17.885300443429298,0.0674497145977748
4.052264000000001,17.89129386026578,0.0669424947199782
4.056856,17.89573277763526,0.0664331632722286
4.061448,17.899394445271238,0.0659229652746517
4.066036,17.89537189846945,0.0654302797569187
4.0706240000000005,17.888895417753005,0.0649361376887408
4.0752120000000005,17.87612289590303,0.0644482039472219
4.079796,17.856032713757724,0.0639691852878892
