Time,Force,Position
3.564831999999999,14.331399549086884,0.1376496641011761
3.569424,14.436409489296867,0.1371032091171319
3.574019999999999,14.527917673160395,0.1365864450597454
3.578607999999999,14.60862240402041,0.1360830094996594
3.5832,14.67214959747786,0.1356561842771598
3.587779999999998,14.73043627078046,0.1352233370933445
3.592364,14.778785023710302,0.1348368879629888
3.5969559999999987,14.820471181364177,0.1345031347628804
3.60154,14.863589653770903,0.1341732617877551
3.606124,14.907441234462508,0.1338245395307958
3.6107,14.955912172106496,0.1334490102338579
3.615283999999999,15.005893467768864,0.1330525838869366
3.619871999999999,15.05239921035478,0.1326755367254424
3.624455999999999,15.09914932236899,0.1322931564358816
3.62904,15.144222750202053,0.1319180270934956
3.633628,15.187375124425673,0.131556289081328
3.6382239999999992,15.235224898867193,0.1311452124687383
3.642816,15.27816680547941,0.1307534949813332
3.647404,15.319387886461849,0.1303519726309146
3.652007999999999,15.35774433793857,0.1299518487527634
3.656599999999999,15.390415671852484,0.1295695913075256
3.661195999999999,15.423287233746064,0.1291627037690649
3.66578,15.457258458066956,0.128726847207025
3.67038,15.48824286816798,0.1282947563614186
3.674959999999999,15.51881658267794,0.1278543879930107
3.679559999999999,15.536143149901475,0.1274776132805417
3.684151999999999,15.54676298040041,0.127124431012511
3.688751999999999,15.554762550821916,0.1267635597124633
3.693344,15.55760988398583,0.1264248343969425
3.697935999999999,15.560290890986971,0.1260718817168447
3.702527999999999,15.557697476016369,0.1257436558398984
3.70712,15.555059919597136,0.1253975970816767
3.711715999999999,15.55368835176799,0.1250375976506618
3.716315999999999,15.55382714195722,0.1246576741315956
3.720908,15.555354105450682,0.1242602838127897
3.7255,15.562355718895548,0.1238154618230882
3.730084,15.568457897892763,0.1233771142160792
3.734672,15.57545951133763,0.1229353182007503
3.73926,15.581317320906557,0.1225052048749351
3.743851999999999,15.588851814656632,0.1220710263308253
3.748443999999999,15.599984046197305,0.1216201433419188
3.753024,15.612915146633268,0.1211624634745885
3.7576199999999993,15.625601877640936,0.1207126475125813
3.762203999999999,15.641886346439202,0.120247977480848
3.766791999999999,15.662012922456348,0.1197623809887465
3.771379999999999,15.693054896559412,0.119224014730728
3.775967999999999,15.73922093010972,0.1186061253226392
3.780576,15.789639766469977,0.1179774707726356
3.785167999999999,15.841613102297234,0.1173480837787726
3.7897719999999993,15.89530726375427,0.1167370465361794
3.794364,15.95452021661134,0.11610264669712
3.798943999999999,16.012877876469386,0.1154936068868362
3.8035479999999993,16.074056024384525,0.1148749243870472
3.808124,16.13576705260488,0.1142666992763871
3.812728,16.199276949720524,0.1136543540940746
3.817307999999999,16.263197542427232,0.1130566564261577
3.821904,16.32585214654386,0.1124752456481081
3.826488,16.386585697051043,0.1119057675835116
3.831088,16.44821868200587,0.1113350636780181
3.83568,16.507930613351267,0.1107770100941251
3.840276,16.567764729410804,0.1102187669487402
3.844864,16.624533987984957,0.1096822785554872
3.849455999999998,16.68052599682561,0.1091484705464407
3.854052,16.732675898447383,0.1086366758791311
3.8586519999999993,16.77881826981254,0.1081614155001394
3.863244,16.826226629767778,0.1076781585262053
3.867835999999999,16.86276373308573,0.1072591507615245
3.872423999999999,16.898645771384317,0.1068404579374532
3.8770079999999982,16.937714851882436,0.1064028090868255
3.8815959999999983,16.97150951040881,0.1059825398471374
3.8861839999999983,17.00105136612524,0.1055742004765168
3.890775999999999,17.033125199021843,0.1051446508909266
3.895356,17.055960318013668,0.1047518216632534
3.8999479999999984,17.073521015033755,0.1043750363403426
3.904527999999999,17.08670672452975,0.1040109206370528
3.909115999999999,17.094740196768146,0.1036599022370668
3.9137239999999984,17.09864305091074,0.1033148959050261
3.918312,17.10495569751936,0.102950265311693
3.922903999999999,17.107792791051537,0.1025944349328643
3.927491999999999,17.111362992868585,0.1022220148940322
3.932079999999999,17.115177564113928,0.1018448487922056
3.936672,17.1185814397682,0.1014590134664212
3.941263999999999,17.119164827365385,0.1010842374073443
3.945855999999999,17.12125857298095,0.1006927438876357
3.950436,17.12666154551018,0.1002784882752371
3.955036,17.124502488315795,0.0998952753797836
3.9596199999999993,17.12193273553034,0.0995031889679733
3.964224,17.115520875526006,0.0991279552393079
3.968815999999999,17.10436747385514,0.0987721805041935
3.973407999999999,17.09280337659321,0.0984070716406391
3.977995999999999,17.0799732907412,0.0980526337295003
3.982588,17.061380044060858,0.097722420070522
3.987176,17.050104457675843,0.0973678300568644
3.991771999999999,17.04062774018613,0.0970074555031345
3.996364,17.035648194934655,0.096634182212127
4.000955999999999,17.030668649683182,0.0962604482778155
4.005535999999999,17.03096352640344,0.0958741558700411
4.010128,17.028071360924184,0.0955068519068819
4.014703999999998,17.027100249054364,0.0951313066357346
4.019299999999999,17.02257554084258,0.0947825830492787
4.023883999999999,17.017562093774213,0.0944456056990261
4.028471999999999,17.01308152701106,0.0941142699963829
4.033067999999998,17.013342501914437,0.0937653197331403
4.037643999999999,17.011071499637644,0.0934378422930578
4.042223999999999,17.007778878199055,0.0931156491810599
4.046828,17.005263506493975,0.0927928919432017
4.051416,17.003281015094096,0.0924758578815357
4.056004,16.997212047047046,0.0921783474181891
4.060595999999999,16.988855471248122,0.0918959801520317
4.065195999999999,16.98168684077376,0.091622417668035
4.069792,16.97607270976641,0.0913495636361935
4.074368,16.969847655188328,0.0910899951621
4.078963999999999,16.959658308677216,0.0908482319766509
4.083544,16.950901276918962,0.0906102394954222
4.088139999999999,16.93679177992345,0.0904031947267929
4.092727999999999,16.922726424376567,0.0902130701652076
4.097327999999999,16.900365930821188,0.0900660894374616
4.101908,16.88021500175217,0.0899231963247857
4.106503999999999,16.863705951922373,0.0897884710598522
4.111091999999999,16.851449704902524,0.08964790929227
4.115687999999999,16.8351069812355,0.0895273106062501
4.120275999999999,16.82457155984543,0.0894023381191878
4.124867999999999,16.813058660742197,0.0892996507668716
4.129455999999999,16.8093963022395,0.0891830036985062
4.134043999999999,16.808598573242516,0.0890743501795245
4.138631999999999,16.81450758097014,0.0889596515577989
4.143227999999999,16.825324456527063,0.0888435016377762
4.147819999999999,16.84873341435106,0.0886980295252398
4.152407999999999,16.88317995497512,0.0885227551706172
4.157003999999999,16.923800352018567,0.0883367938261945
4.161587999999998,16.967896302138463,0.0881464259799199
4.166172,17.02123096616313,0.0879313490958252
4.170755999999999,17.080084421587827,0.0877026594719271
4.175343999999999,17.139959496174317,0.087470803572571
4.179939999999998,17.207640969912717,0.0872107492430739
4.184527999999999,17.279653289726586,0.0869281386295251
4.189119999999999,17.36188180115839,0.0865993262389127
4.1937159999999984,17.445742855322717,0.0862548197572661
4.198295999999999,17.525839845533678,0.0859060832512295
4.2029,17.604993259848364,0.0855447532547899
4.207479999999999,17.687822455219152,0.0851570849770857
4.212076,17.764189283293636,0.0847713456242117
4.216655999999999,17.84075633934778,0.0843658591412522
4.221259999999999,17.911349766962203,0.0839525687230291
4.225843999999999,17.981121803394498,0.0835244716906973
4.230443999999999,18.04569746112056,0.0830878164408433
4.235028,18.10597617458805,0.0826409488071527
4.239623999999999,18.1576270977215,0.0822065460371598
4.244231999999999,18.200528045806763,0.0817869968117917
4.248823999999999,18.23774387632922,0.0813687215410024
4.253416,18.2740161309554,0.0809384758807284
4.258011999999999,18.30550270246642,0.0805083645220032
4.262604,18.336578578386376,0.0800724933266141
4.267195999999998,18.37108586593415,0.0796197728132765
4.271787999999999,18.406204077052656,0.0791584586544209
4.276371999999999,18.44258827676124,0.0786913389375207
4.280959999999999,18.478317411450465,0.0782239837798844
4.285547999999999,18.51212549253026,0.0777636208637923
4.290135999999999,18.55002005025722,0.0772896925286672
4.294715999999999,18.58767023855589,0.0768219050083796
4.299308,18.626097676588063,0.0763567661003646
4.303891999999999,18.66746778739147,0.0758839215281769
4.308479999999999,18.706017410137797,0.0754186616865495
4.313087999999999,18.74293449015159,0.074969871410802
4.317675999999999,18.779074320431885,0.0745216591480405
4.322275999999999,18.820732942112212,0.0740655442384698
4.326851999999999,18.86173649877318,0.0736069621824192
4.331439999999999,18.909114139833207,0.0731241567821958
4.336031999999999,18.95877938864511,0.0726305560117382
4.340623999999998,19.00971062604709,0.0721301803697809
4.345215999999999,19.057044125658493,0.071636324162546
4.349808,19.101024256907586,0.0711435340619878
4.354403999999999,19.136909478127848,0.0706614771416376
4.358984,19.16559922376693,0.0701901860694425
4.363584,19.1841508210536,0.0697362232145119
4.368163999999998,19.193463704435487,0.0692977238081989
4.37276,19.20236589222632,0.0688528994488916
4.377339999999999,19.214044426625605,0.0683888473120123
4.381931999999999,19.22302465768196,0.0679292468994525
4.386519999999999,19.23183856257553,0.0674572951914532
4.391115999999999,19.243184444649263,0.0669715716601854
4.3957,19.25465251143715,0.0664849526862408
4.400295999999999,19.26942980513871,0.0659850873540451
4.404871999999999,19.28776069518224,0.0654674876538927
4.409455999999999,19.303515466596963,0.0649504104848306
4.414047999999999,19.31681630409703,0.0644335727400401
4.418635999999999,19.332693260225906,0.0639176170796978
4.423219999999999,19.344073044116534,0.0634073831033947
4.4278,19.35185509021657,0.0628999472897417
4.432391999999998,19.357183202401966,0.0623902935233545
4.436976,19.36197843428214,0.0618742497979644
4.441564,19.363953178105227,0.0613609601423892
4.446152,19.371813267470788,0.0608343791687749
4.450747999999999,19.379673356836346,0.0603072465303752
4.455331999999999,19.393418791744374,0.0597671756802685
4.459935999999999,19.413171756909016,0.0592120959293053
4.464528,19.425118322921747,0.0586727263872346
4.469119999999998,19.42991355480193,0.0581528875323437
4.473707999999999,19.43111104889152,0.0576348288262163
4.478304,19.430020935229223,0.0571264105397947
4.482892,19.421246607129167,0.0566306152795189
4.487495999999998,19.406831302914927,0.0561412286985623
4.492083999999998,19.38755227232002,0.0556600877717249
