Time,Force,Position
3.690795999999999,7.730930601590289,0.1767524527710911
3.695395999999999,8.267709615743406,0.1744355348640139
3.699983999999999,8.776066225004163,0.1723653275642927
3.704583999999999,9.249792671136282,0.1707241471630462
3.709168,9.695106952007778,0.169301764941654
3.713764,10.10927686245882,0.1681643566936565
3.718356,10.50824785311878,0.166982025627668
3.722947999999999,10.888045392422889,0.165726188841539
3.72754,11.24625968790512,0.1644517824580126
3.732135999999999,11.579537371203177,0.1632026784767938
3.736711999999999,11.886734638441116,0.1619702760077492
3.7412959999999984,12.17304786832517,0.1607206388530627
3.7458839999999984,12.43962086473127,0.1594275379975528
3.750475999999999,12.68081265154524,0.1581603452690748
3.75506,12.885663689232532,0.15701447549162
3.759635999999999,13.05543996638323,0.1559418764712604
3.7642279999999992,13.198569045351714,0.1549121539737303
3.768808,13.319059359519636,0.1538908713296346
3.7733839999999983,13.420386461963448,0.1528495807427405
3.77798,13.496420637712385,0.1518677039295279
3.782568,13.545128888074595,0.1510238416987939
3.7871599999999983,13.565299605540371,0.1504212931366865
3.791744,13.580939248951015,0.149900562863332
3.7963359999999984,13.596789359973064,0.1494183930677408
3.800939999999999,13.609208059367294,0.1489820812807064
3.805515999999999,13.62043881343696,0.1485396401847178
3.810115999999999,13.621487277705574,0.1481607984231983
3.814703999999999,13.614484973393989,0.147865439714034
3.8192999999999984,13.60597231106403,0.1475976986786292
3.8238879999999984,13.595582736573254,0.147368907337583
3.8284879999999983,13.587280541854694,0.1471404288800456
3.833067999999999,13.579100531850282,0.1469086458134592
3.8376639999999984,13.572108467170436,0.1466842583493441
3.842272,13.571168074195832,0.146423502326353
3.8468639999999983,13.579266167146336,0.1461199671608309
3.85146,13.598978864650745,0.145758587675338
3.856052,13.618080638584424,0.1454173270287846
3.860643999999999,13.639924857309676,0.1450797281728086
3.865236,13.659114914140616,0.1447830396969809
3.869824,13.679126362153678,0.1445068644019065
3.874407999999999,13.7031462435484,0.1442151870526625
3.878995999999999,13.72949787414363,0.1439171064008619
3.883583999999999,13.763167165034186,0.143566686324633
3.888168,13.79810244451483,0.143198558419006
3.892755999999999,13.83369278901483,0.1428313201714008
3.897347999999999,13.871082002410123,0.1424531272414111
3.901935999999999,13.915788876100748,0.1420234403895919
3.906528,13.965115106743756,0.1415596967983119
3.911123999999999,14.011620849329676,0.1411194560686846
3.915711999999999,14.055306103858506,0.1407013167958733
3.92032,14.09641523975854,0.1402996368609301
3.924908,14.13417100729627,0.1399163740422898
3.929499999999999,14.1670189070047,0.1395550565530005
3.934092,14.19279351584609,0.1392393871358012
3.93868,14.214437506591675,0.1389437502435282
3.9432839999999993,14.230396379774458,0.1386719472872534
3.947875999999999,14.244023503756733,0.1384059146980698
3.9524719999999984,14.253886563785642,0.1381471944523696
3.957051999999999,14.264360547385282,0.1378700054581483
3.961639999999999,14.26956010901318,0.1376238049053783
3.966223999999999,14.273082986459926,0.1373855625133077
3.970823999999999,14.272885941401936,0.1371737677563802
3.975408,14.26614848578212,0.1370095584157662
3.979999999999999,14.259655399590594,0.1368378715485479
3.984587999999999,14.255327736436804,0.136643688338817
3.989184,14.244992543026394,0.1365018051386355
3.993772,14.22889418878766,0.1364049175110504
3.998363999999999,14.207521412577186,0.1363378899373387
4.002951999999999,14.187292440242652,0.1362575363909532
4.007539999999999,14.167430022050556,0.1361658841050739
4.012124,14.145113669943804,0.1360833905961243
4.016724,14.119610275637532,0.1360327130609495
4.021315999999999,14.095661380798262,0.1359779730035165
4.025907999999999,14.073633539568432,0.1359078977260061
4.0305,14.052627317500397,0.1358279543616185
4.035079999999999,14.031010171861633,0.1357664239343594
4.039672,14.013768013746962,0.1356803260352569
4.04426,13.994238247880412,0.1356202438472844
4.048848,13.976262981480868,0.1355560325935651
4.053443999999999,13.957921160938882,0.1355031212020795
4.058031999999999,13.94407651263514,0.1354219340419176
4.062627999999998,13.93190854851255,0.1353332512852628
4.067224,13.921539453285249,0.1352332401660343
4.071807999999999,13.908882750306075,0.135159275225432
4.076415999999998,13.892139570679724,0.1351226284044105
4.081007999999999,13.881814616901057,0.1350429884847758
4.0856,13.874843031484687,0.1349483929710132
4.090188,13.873923117773565,0.1348220247463064
4.094787999999999,13.870715596310555,0.1347218065081505
4.099371999999999,13.870494889067416,0.1346180315263082
4.103971999999999,13.873016626615849,0.134518124558738
4.108555999999998,13.881712220583667,0.1343826908289969
4.113155999999998,13.89400555234208,0.134225623099242
4.11774,13.907609014139204,0.13407295379953
4.122331999999998,13.919335563775514,0.133956015021194
4.126919999999998,13.935559285650069,0.1338120197142621
4.131516,13.950150464792095,0.1336963245104959
4.136104,13.970793315639366,0.1335498933228587
4.140699999999999,13.98890418930647,0.13343703285313
4.145287999999999,14.015232157716548,0.1332720165458118
4.149871999999999,14.034286607279927,0.1331748603969751
4.154451999999999,14.058737663529191,0.1330459837003524
4.159044,14.086297718712467,0.1329106732434774
4.163627999999999,14.119909445600983,0.132745738638764
4.168208,14.162393332251836,0.1325318539454224
4.172791999999999,14.205532283922045,0.1323214389527546
4.177375999999999,14.248549050878106,0.1321157118954416
4.181963999999999,14.29119926369173,0.1319227220205555
4.186556,14.340800582658243,0.1316960113593843
4.191144,14.394366193557792,0.1314404917351202
4.195744,14.450996661942716,0.1311603477951953
4.200335999999998,14.511469237546525,0.1308567777830763
4.204915999999999,14.568876955664953,0.1305811537991646
4.209508,14.627184108231027,0.130302338259714
4.214087999999999,14.688800487710775,0.1299918114074235
4.218687999999998,14.75029468247638,0.1296881343727483
4.223275999999999,14.812033246670271,0.1293775452964715
4.227875999999998,14.874260549720749,0.1290564997991418
4.2324639999999984,14.93685440691366,0.1287244813981713
4.237063999999998,14.997771579925423,0.1284032389451461
4.24166,15.067638955965036,0.1280153506867611
4.246251999999998,15.13468584394756,0.1276486466398848
4.250836,15.204264709110252,0.1272557641756589
4.255427999999998,15.271634009786585,0.1268668975334083
4.260027999999998,15.336793745976555,0.1264835753379997
4.264627999999998,15.403463840184902,0.1260823660831922
4.269224,15.471644292411623,0.1256625966038146
4.273819999999999,15.540313483494932,0.1252325529539824
4.278407999999999,15.608283468110256,0.1247870916774595
4.283003999999998,15.674043888239217,0.1243471559394201
4.287591999999998,15.741559035814843,0.1238855756339556
4.292188,15.805432304151251,0.1234286277048415
4.296776,15.871426854076768,0.1229379171450788
4.301375999999999,15.938887620572029,0.1224136010502213
4.305959999999999,16.004505376723365,0.121882743611663
4.31054,16.069013230815656,0.1213275179213282
4.315131999999998,16.13931814755316,0.1207050317054928
4.319711999999999,16.209290411965114,0.1200593658835101
4.324299999999999,16.28391593514634,0.1193565822389775
4.328899999999999,16.353711633763787,0.118647484114745
4.333487999999999,16.41765588865564,0.1179405030150292
4.338092,16.482777849240332,0.1171896026224363
4.342683999999998,16.542825615832946,0.1164391895382378
4.347275999999999,16.597921373147624,0.1156823997452377
4.351871999999998,16.647410056165015,0.1149184459626721
4.356463999999999,16.69566665240921,0.1141345908297597
4.361068,16.73897123937547,0.1133448520137093
4.365656,16.775647132882646,0.1125518419836585
4.370247999999998,16.802795801608138,0.1117892636017663
4.374835999999998,16.825280971932614,0.1110315247933815
4.379435999999998,16.842858274427787,0.1102862258608243
4.384023999999998,16.856715654418224,0.1095589976119129
4.388615999999999,16.869018534941656,0.1088349544282411
4.393196,16.87699056938962,0.1081440951855727
4.397791999999999,16.886883657447026,0.1074457389423601
4.402379999999999,16.892201530000676,0.1067843412844045
4.406975999999999,16.889757144851043,0.1061827701490878
4.411563999999999,16.881349370893417,0.1056324407705172
4.416155999999999,16.869676511470754,0.105124794678799
4.420736,16.860257357983077,0.1046364662484781
4.425324,16.853214095144534,0.1041651645095164
4.429912,16.843316442432023,0.1037436467896559
4.434491999999999,16.835794680368636,0.1033391521162966
4.439075999999998,16.83604541564027,0.102933995457439
4.443655999999999,16.838305487418605,0.1025540368538374
4.448251999999998,16.839876592360692,0.1022094865300896
4.452839999999998,16.851141248247245,0.1018575297783464
4.457427999999998,16.872632335383475,0.1015038138315281
4.462024,16.90904725398728,0.1011128068159049
4.466612,16.95155798574495,0.1007268348567391
4.4712,16.995545173704112,0.1003623178276622
4.475795999999999,17.044440229492576,0.099994395285476
4.480383999999999,17.094933926196678,0.0996456711080907
4.484988,17.14698212236778,0.0992982366440639
4.4895679999999984,17.20279438249225,0.098958108132264
4.494159999999999,17.267478802379053,0.0985967981005786
4.498747999999999,17.337559828951736,0.0982218449024501
4.503347999999999,17.41405908137211,0.0978274165314255
4.507928,17.49362319127786,0.0974203475983925
4.512519999999999,17.57445328977369,0.0970049134872629
4.517111999999999,17.65732662659311,0.0965825628247712
4.521707999999999,17.747595666973375,0.0961227322645577
4.526283999999999,17.83913069594373,0.0956560375697842
4.53088,17.930010659894723,0.095191307850208
4.535468,18.0257543502264,0.0947100121016672
4.540059999999999,18.12006572580521,0.0942277599325325
4.544639999999999,18.20513838747925,0.0937778913095434
4.549235999999999,18.28440374687634,0.0933373870155596
4.553811999999999,18.352875892901658,0.092928360251901
4.558399999999999,18.415540736650023,0.0925265882830491
4.562992,18.47341989728323,0.0921255852930594
4.56758,18.52741280924893,0.0917247751196423
4.572163999999999,18.577519472547102,0.0913230749729092
4.576751999999999,18.628237059416023,0.0909102701284018
4.581344,18.66648474873201,0.0905256095237583
4.585939999999999,18.69352852908516,0.0901592736418937
4.590527999999999,18.71721894107601,0.0897977333957492
4.595139999999999,18.73587930052341,0.0894419430318958
4.599727999999999,18.74992030301842,0.0891000947142738
4.604315999999999,18.76510510938937,0.0887526707639357
4.608908,18.77501549378858,0.0884155696097958
4.613499999999998,18.77634222930238,0.0881075120375347
4.618096,18.775092846187377,0.0878035100104783
4.622675999999999,18.768691225814784,0.0875064858871797
4.627272,18.75713736818459,0.087216452183298
4.631863999999998,18.7437846416591,0.0869299356263684
4.636463999999998,18.73259733817135,0.0866320324767316
4.641051999999998,18.720388415521803,0.0863383739336429
4.645643999999999,18.70973399233926,0.0860457948718823
4.650231999999999,18.69805794999493,0.0857569278673793
4.654827999999998,18.691900699050613,0.0854545670546241
4.659419999999999,18.686276328411523,0.0851578758316559
4.664007999999999,18.68449406499132,0.0848493812623112
4.6686,18.67874750963808,0.0845552514720121
4.673188,18.678886299827305,0.084239847786928
4.677764,18.687242184759512,0.0839063225269016
4.682355999999999,18.69661968885351,0.0835692839697695
4.686935999999999,18.71086091932819,0.0832172011090047
4.691519999999999,18.72342546562172,0.0828658228541694
4.696111999999999,18.731492839677003,0.0825235110610066
4.700688,18.740581832894083,0.0821770899929879
4.705271999999999,18.750692445272957,0.0818265183930363
4.709855999999999,18.759781438490037,0.0814803653200383
4.714435999999999,18.771446550335916,0.0811322278664097
4.719031999999999,18.78580996552473,0.0807801642076987
4.723623999999999,18.804137672646583,0.0804152198529314
4.728228,18.82426424866373,0.0800482535131391
4.732819999999999,18.84631187829032,0.0796764798410403
4.737407999999999,18.86884824677349,0.0792957648463412
4.742016,18.89600397220904,0.0789057128434069
4.746616,18.92226026319695,0.0785186941030831
4.751211999999999,18.94773930445136,0.0781312696085452
4.755787999999999,18.971052922668022,0.077755144659988
4.760387999999999,19.000906951446524,0.0773653432110671
4.764975999999999,19.03627977162505,0.0769668952828716
4.769575999999999,19.064623442385177,0.0765928968769218
4.774159999999998,19.09182330926936,0.0762260141550965
4.778759999999998,19.11403726505872,0.0758763257835919
4.783344,19.14266944669576,0.0755160625954593
4.787935999999998,19.17297831251395,0.0751560731754357
4.792535999999998,19.20202118974206,0.0748046550363369
4.797127999999999,19.231963501417816,0.0744526028670986
4.801715999999999,19.25884095560819,0.0741111212163206
4.806311999999998,19.284041725617413,0.0737705839393239
4.810899999999998,19.30270208506481,0.0734435286025961
4.815491999999999,19.316743087559814,0.0731254194814398
4.820084,19.328452340854327,0.0728046238430861
4.824672,19.339750898557767,0.0724764260836248
4.829255999999999,19.347984598775824,0.0721587057182511
4.833851999999999,19.355807603402823,0.0718338048023629
4.838448,19.36093230468688,0.0715125376531927
4.843036,19.37014348261811,0.0711784717418413
4.847627999999999,19.376123476901174,0.0708415705752376
4.852215999999999,19.37580743005072,0.0705126162177488
4.856812,19.367029919028987,0.0702003020548236
4.861407999999999,19.368590784339336,0.0698531272643908
4.865988,19.366021031553885,0.0695035732904182
4.870583999999999,19.368681559291545,0.0691359191256927
4.875176,19.36529041532396,0.0687709966031339
4.879764,19.361366391051167,0.068400320284163
4.884359999999999,19.36099596312034,0.0680111127967704
4.888947999999999,19.35625054766542,0.0676235968483582
4.89354,19.355180913266608,0.067214599891149
4.898119999999999,19.352678964114933,0.0668002189771389
4.902719999999999,19.352464622715136,0.0663738295796301
4.907316,19.35237246602949,0.0659444189859533
4.911916,19.348560386839104,0.0655199189697959
4.916504,19.344870492362865,0.065093655103442
4.921104,19.343834759780936,0.0646495217649163
4.925687999999999,19.33805748553248,0.0642136762437096
4.930283999999999,19.336488872645344,0.0637639600228605
4.934868,19.323882676958146,0.0633267239832576
4.939459999999999,19.31331971959453,0.0628826008966967
4.944063999999999,19.304022750821,0.0624302600085759
4.948659999999999,19.298934443408783,0.0619634051261315
4.953251999999999,19.279621510996986,0.061519679428775
4.957844,19.26529448968001,0.0610628946869699
4.962432,19.242628188905904,0.0606156643663997
4.96702,19.22110569200774,0.060162358521274
4.971608,19.197129261194924,0.0597052410599259
4.976199999999999,19.169432907877376,0.0592521058004153
4.980796,19.144801412045208,0.0587891468596735
4.985387999999999,19.11992554678475,0.0583302856970166
4.989979999999999,19.09672636570544,0.057871901012743
4.99456,19.07646985739736,0.0574070899622039
4.999151999999999,19.057357152965217,0.0569363993003987
5.003736,19.042863805485464,0.0564604680079911
5.008323999999998,19.023140177482595,0.0559991266833236
5.012936,18.999085703404266,0.0555516137420041
5.017524,18.97785171738301,0.0550997634772886
5.022112,18.948566962781573,0.0546655500664974
5.026703999999999,18.92431226072358,0.0542336718373741
5.031295999999999,18.90238930786609,0.0538074331338815
5.035888,18.87817874725673,0.0533896052048228
5.040483999999999,18.84873790612425,0.0529856098940505
5.045076,18.823549867801717,0.0525822974398887
5.049655999999999,18.79162119093769,0.0522041349490872
5.054243999999999,18.759736655522293,0.0518395326134131
5.058827999999998,18.72417633905079,0.0514923323357687
5.063427999999998,18.684695872094885,0.0511664767689388
5.068012,18.64346067769232,0.0508553394876837
5.072607999999999,18.600592940557227,0.0505568820758372
5.077195999999999,18.55531541095611,0.0502690989222578
5.081788,18.501742743346497,0.0500012839947839
