Time,Force,Position
2.9971240000000003,12.498142370488774,0.1455756767102234
3.001704,12.649149526031335,0.1451531463195017
3.0063000000000004,12.770488767354935,0.1447780945991679
3.0109000000000004,12.869854548529068,0.144444077460151
3.015491999999999,12.954696954194953,0.1441563422924313
3.020079999999999,13.031434210200269,0.1438594673394902
3.024672,13.0989666541177,0.1435908582237246
3.0292520000000005,13.161913642899636,0.1433126282612639
3.033844,13.22105242627958,0.1430227717291075
3.038432,13.27475046152501,0.1427522049108138
3.043024,13.321086695026482,0.1425181663863216
3.0476040000000006,13.368522590955266,0.1422497141266403
3.052184,13.414892726273624,0.1419720742459116
3.056768000000001,13.45136908266786,0.1417674182112356
3.061356000000001,13.482937571232796,0.1415860998756631
3.065944000000001,13.510375441701925,0.1414265203885075
3.070536,13.531272901609226,0.141320190573222
3.075112,13.552292546230674,0.1412118062225468
3.0797160000000003,13.569836637775676,0.1411248970065085
3.084307999999999,13.58954615235841,0.1410143650692717
3.088895999999999,13.605657929150556,0.1409295533073702
3.093488,13.622258444799282,0.1408304867189925
3.0980680000000005,13.64102438348574,0.1407081351183426
3.102664,13.662977364371727,0.1405527867501104
3.107252,13.68889463719074,0.1403624464817604
3.111848,13.716977333047486,0.1401497318765427
3.116436,13.753110797484435,0.1398649740953265
3.121036,13.789200120472756,0.139560790361966
3.1256200000000005,13.82721049707052,0.1392431883225535
3.130212,13.868530100581951,0.1388907696095819
3.134804,13.916756668797651,0.1384816656610068
3.1394,13.962407118384553,0.1380890199553197
3.1439960000000005,14.008057567971454,0.1376987307981199
3.1485960000000004,14.062003155566847,0.137232090307061
3.1531720000000005,14.120035219809417,0.1367302078777068
3.157756,14.177656588460916,0.1362211022269304
3.1623360000000007,14.240386052921384,0.1356675440493515
3.1669240000000007,14.297352356553532,0.1351607877562702
3.171508,14.358282952118705,0.1346237693432824
3.1760960000000003,14.417659048216874,0.1340934146733246
3.1806840000000003,14.476502264009833,0.133559787901327
3.1852600000000004,14.530237383993825,0.1330735556885528
3.1898480000000005,14.587692426482556,0.1325672930287856
3.194456,14.64580253399064,0.1320666689462813
3.199044,14.70403482621287,0.1315664902952548
3.203639999999999,14.760346064825658,0.1310828638511983
3.2082240000000004,14.810771957895978,0.1306491092318742
3.2128120000000004,14.863529600166803,0.1302140003729278
3.217415999999999,14.917064492171134,0.1297812806244976
3.2220120000000003,14.970232830033025,0.1293624584689407
3.226616000000001,15.017760191780738,0.1289835383392378
3.231208,15.062222696043069,0.1286297702358897
3.2358,15.108484069200696,0.1282689426590638
3.240379999999999,15.148615727387565,0.1279605320714282
3.244972,15.186537821088068,0.1276552225293333
3.2495559999999992,15.225237164522076,0.1273500323152765
3.254155999999999,15.261360389327288,0.127057782341125
3.258736,15.300915025760318,0.1267319321901988
3.2633319999999992,15.336994109116898,0.12642328046903
3.267924,15.375116430797066,0.126100725678368
3.2725160000000004,15.409518829972502,0.1257998233860414
3.2771160000000004,15.44849644465169,0.1254550242974356
3.281707999999999,15.476925215387396,0.1251589795432441
3.286288,15.500978998599011,0.124882905227541
3.2908800000000005,15.522701032610115,0.1246116737910524
3.2954680000000005,15.54527835962024,0.1243182816336858
3.3000560000000005,15.562048384353414,0.1240421126651281
3.3046440000000006,15.57403272597143,0.1237769193664997
3.309228,15.579188146150695,0.1235374605681586
3.313816,15.5805795023766,0.1233005354031312
3.5387840000000006,13.802314448632314,0.1231684319456041
3.54338,13.762297918449528,0.1231667763536352
3.547972000000001,13.732830232210224,0.1231169337559418
3.552568,13.726870026323912,0.1229454777821167
3.557164,13.738531955248115,0.1226950535095578
3.5617480000000006,13.763196662030456,0.1223916221349832
3.566332,13.8033961238511,0.1220048089881852
3.57092,13.860518514014284,0.1215150486778489
3.5755159999999995,13.932809105073332,0.120955359203279
3.5801000000000007,14.02080077733346,0.1203336477857792
3.584684,14.125759519384752,0.1196370612885548
3.589276000000001,14.236647748427144,0.1189276942194872
3.593864000000001,14.35485363776486,0.1181876790338714
3.598456,14.479233383521963,0.1174297840490732
3.603044,14.61154171314513,0.1166292664757547
3.607632,14.746670530825382,0.1158256362716587
3.612244,14.889605747657546,0.1149860923625195
3.616832,15.036094560831671,0.1141232763654225
3.6214280000000008,15.188835273690708,0.1132275546139651
3.626016000000001,15.343575083424698,0.11231365942255
3.630612,15.500969055053009,0.1113818613449426
3.635208,15.66216099245157,0.1104240403127826
3.639784,15.820199789467493,0.1094619969421595
3.644376,15.962126809691274,0.1085592790545501
3.648967999999999,16.096770071436616,0.1076638557512058
3.653564,16.226050628312965,0.1067595896501247
3.658143999999999,16.35001262176894,0.1058653564089148
3.662743999999999,16.467878802071045,0.1049807952672129
3.667328,16.57167644390459,0.1041276073937663
3.671919999999999,16.66447040475496,0.1032892370009702
3.6765,16.744872511317926,0.1024799903909248
3.681092000000001,16.817868674688306,0.1016683157441682
3.685695999999999,16.882725786581226,0.1008713585500568
3.690292,16.938788781977333,0.100084856843648
3.694888,16.980827380353507,0.0993398351014233
3.699483999999999,17.01431623166116,0.0985980871317643
3.704071999999999,17.035046674538968,0.0978851766577159
3.708659999999999,17.048948195978035,0.0971889388699204
3.713244,17.05181213461703,0.096533457604419
3.71784,17.043760675170113,0.0959135481242904
3.722432,17.024793817637267,0.0953276874914901
3.72702,16.995810996466155,0.0947733308783932
3.7316119999999993,16.962375144505426,0.0942482475806018
3.736192,16.931026672316918,0.0937282934948063
3.740776,16.894614245768068,0.0932514388395437
3.745364,16.85469236432588,0.0928178057637259
3.749952,16.814037374598822,0.0924003781646633
3.754544,16.772160537730308,0.0920100118130113
3.759124000000001,16.739322186786904,0.0916119309149886
3.76372,16.706039238435537,0.0912410963325551
3.7683120000000008,16.672145366513444,0.0908828125555514
3.772904,16.63637458243054,0.090547686221273
3.777496,16.602036113100493,0.0902151394572318
3.782084,16.567986154647368,0.0898927738093129
3.786684,16.53728956455654,0.0895650255551496
3.79126,16.498952901476578,0.0892818035406513
3.795848,16.460127499540032,0.0890079704483288
3.800432,16.41770435981289,0.0887411719994024
3.805027999999999,16.372949470885246,0.08847044976149
3.809612,16.328971831691106,0.088198294186479
3.8142039999999993,16.289735734163493,0.0879073509537857
3.8187919999999993,16.250910332226947,0.0876239351420756
3.823388000000001,16.210652615537544,0.0873346343942781
3.827976000000001,16.167041530485836,0.0870467823475823
3.83256,16.122486869537855,0.0867412069029158
3.837148,16.079031871017182,0.0864079546278183
3.8417400000000006,16.03234568884836,0.0860730739859001
3.846324,15.981773258012025,0.0857324318520863
3.850912,15.921795787108149,0.0854018150947039
3.8555,15.861896359469783,0.0850479918492982
3.860076,15.80121968209792,0.0846910369615543
3.864655999999999,15.7424640583355,0.0843250135376457
3.869268000000001,15.68370843457308,0.0839572731852381
3.873848,15.625852245258304,0.0835855583631779
3.878456000000001,15.569550555410537,0.0832139043825041
3.883048,15.528006370867566,0.0827998764788249
3.887636,15.490348434992107,0.0823891578842704
3.892228,15.45980793143232,0.0819831806944477
3.896816,15.43585197988298,0.0815748080467633
3.901412,15.42064600338183,0.0811530149019455
3.905988,15.411247329157632,0.0807305499802952
3.910588,15.408144696066966,0.0802951305356326
3.915168,15.413136973005134,0.0798435879297833
3.919768,15.424425291076837,0.0793794747917067
3.9243479999999993,15.440499292263697,0.0789190799341367
3.928944,15.460048846527004,0.0784554192961469
3.933524,15.483973388314404,0.0779865766634895
3.938116,15.517913893740076,0.0774977068719979
3.94272,15.559827124480435,0.0769970760714764
3.947316,15.606892592478385,0.0764949842247939
3.951892,15.662952404952817,0.0759798438405278
3.956476,15.723875943807926,0.0754513297451646
3.961064,15.783900048215386,0.0749259931796301
3.965652,15.849809498165316,0.0743839296452579
3.970244,15.91698493670533,0.0738342091742076
3.974828,15.980929191597191,0.0732870497502792
3.9794240000000007,16.047771977811657,0.0727151182409959
3.984008,16.108807461749173,0.0721431887656085
3.988592,16.17315217260036,0.0715576581512322
3.993184,16.23030140787036,0.0709856350698964
3.99776,16.27923354839739,0.0704302379349513
4.002368,16.324035070828614,0.0698753368488753
4.006956,16.3643394210216,0.0693297184273214
4.011544,16.402600532891,0.068794389718662
4.016136,16.440328764455185,0.0682539200311601
4.020724,16.474992138533995,0.0677265070576711
4.02532,16.508389524022718,0.067210151495739
4.0299000000000005,16.533858325645383,0.0667208739686534
4.034503999999999,16.556506639210962,0.0662390903415329
4.039091999999999,16.572492357500565,0.0657735670661445
4.043691999999999,16.579361546599547,0.0653222739613301
4.048272,16.582144259051354,0.0648868511280627
4.052872,16.584438232646576,0.0644616871529036
4.057464,16.578925807089895,0.0640578748974871
4.062055999999999,16.573169012104916,0.0636597621617741
4.066643999999999,16.561404686863323,0.0632796350963667
4.07124,16.543388461936818,0.0629228979601872
4.075836,16.5310132131245,0.0625555626483083
4.080428,16.509032696264974,0.0622090891171986
