Time,Force,Position
1.89534,12.573562409204555,0.1413823839471439
1.8998680000000008,12.639730342002908,0.1410123082038195
1.9043920000000003,12.68863245450144,0.1406825065113104
1.9089400000000003,12.724321321530436,0.1403998579691345
1.9134640000000005,12.75411460338522,0.1401057265677202
1.917988,12.785862840666336,0.1397476850786964
1.922527999999999,12.810249276203496,0.1394262441268765
1.92706,12.830016354788272,0.1391442747814576
1.931596,12.854813485916496,0.1388359648675851
1.93612,12.889993134825431,0.1384419666843791
1.940656,12.91969813378296,0.1381132274281531
1.9452039999999995,12.948503698292845,0.1377923936646697
1.949732,12.97665419778337,0.1374704890761965
1.9542600000000008,13.001984209216806,0.1371738433025233
1.958792,13.027436405364387,0.1368747668570711
1.963316,13.051866982350177,0.136589608103595
1.96784,13.07887367796476,0.1362916600926428
1.9723719999999991,13.111887903835964,0.1359388360188169
1.976895999999999,13.145679379440669,0.1355863948946091
1.981424,13.183312962264251,0.1352042681554805
1.985952,13.227486955649669,0.1347769824648778
1.9905079999999995,13.273337633216231,0.1343450849348212
1.9950439999999992,13.326383786363976,0.1338683484601311
1.999584,13.383516416158896,0.1333563814907647
2.004112,13.438605807630228,0.132867844833269
2.008636,13.491285406635535,0.1324151408466696
2.013172,13.546418939555496,0.1319553320032669
2.0177000000000005,13.600775222741955,0.1314997901367569
2.022256,13.659873047594946,0.1310141007439578
2.0267919999999995,13.718237764163062,0.1305577092908388
2.0313159999999995,13.786085564064235,0.1300357817436674
2.0358600000000004,13.854710613698916,0.1295147622678513
2.040408,13.925911781962393,0.1289845652191078
2.0449519999999994,13.998911819121163,0.1284477405245535
2.04948,14.07101242183229,0.1279189412077649
2.054023999999999,14.138127113448592,0.1274335577430658
2.058547999999999,14.20752941281677,0.1269290307085457
2.063071999999999,14.275910093023157,0.1264387218269518
2.067604,14.345434577105484,0.1259409004937318
2.072128,14.41136132339722,0.1254659618486084
2.076655999999999,14.468049355784183,0.125050179423769
2.0812,14.521628389237142,0.1246420595006945
2.085755999999999,14.570954619880151,0.1242537586974787
2.0902959999999995,14.615905862999066,0.1238885761219237
2.0948199999999995,14.661223660260418,0.1235149986816754
2.09936,14.706130761930703,0.1231345093518851
2.103896,14.751526602457574,0.1227428543183042
2.108439999999999,14.79590082382265,0.1223604146562388
2.1129799999999994,14.831036331282956,0.1220325474677799
2.1175240000000004,14.85868785228516,0.1217293918387629
2.1220600000000003,14.876323409649093,0.1214811085170947
2.1265840000000003,14.892648836974312,0.1212288221774357
2.13112,14.904721461489585,0.1209926632983533
2.135668,14.913440717642557,0.1207682151802377
2.140211999999999,14.920972028470956,0.1205358310141266
2.14474,14.931157501193676,0.1202708604402773
2.149268,14.935046932782862,0.1200375809137936
2.153804,14.933006877380947,0.1198247044488899
2.158328,14.92605895414973,0.1196245572236951
2.162864,14.917268020574587,0.1194132392516135
2.167412,14.914073921664995,0.1191497207188922
2.171955999999999,14.908548073554895,0.1188885597457184
2.176496,14.905554202624968,0.1185989655921491
2.181031999999999,14.901372386370472,0.1183007444539233
2.185555999999999,14.89395938646782,0.1180093514193225
2.190079999999999,14.881516334021722,0.1177326961406976
2.194615999999999,14.862244360136875,0.1174789237353869
2.199164000000001,14.843050429517548,0.1172019240004424
2.2037000000000004,14.82945333356377,0.1168733013198304
2.208227999999999,14.817122226200077,0.116529214040982
2.212756,14.809244149625991,0.1161442412683598
2.217292,14.799400877993838,0.1157508417439404
2.221816,14.794132821865444,0.1153143562480143
2.226347999999999,14.787432450984188,0.1148751455840947
2.230899999999999,14.77971046094114,0.1144428719198204
2.235444,14.7683907331075,0.1140264020800216
2.239971999999999,14.75629375554036,0.1136095370524472
2.2444999999999995,14.747916700477957,0.1131725121004763
2.2490320000000006,14.74146069902499,0.1127239361496812
2.253556000000001,14.740156934829624,0.1122588633842677
2.258095999999999,14.73578831314888,0.1118164116566754
2.262643999999999,14.733340745077571,0.1113622264753145
2.2671920000000005,14.725785081197298,0.1109441831473107
2.2717280000000004,14.719006667050529,0.1105252271349919
2.2762520000000004,14.712761133208968,0.1101120220252073
2.2807760000000004,14.71203439076744,0.1096725812065016
2.2853000000000003,14.719402558354744,0.1091995226746823
2.289832,14.7307791593237,0.1087230370059322
2.2943799999999994,14.741178282579495,0.1082746360228031
2.2989360000000003,14.758161957845743,0.1078149293409637
2.303463999999999,14.775067589846476,0.107379233196655
2.307992,14.796270166105778,0.1069526532685962
2.312516,14.817150329671277,0.1065579556829462
2.3170399999999995,14.840772938028348,0.1061722484167365
2.3215840000000005,14.870691587518952,0.1057640636287999
2.3261320000000003,14.9066619087148,0.1053397400703497
2.3306759999999995,14.948806086330038,0.1048962739364783
2.335204,14.99213820926984,0.1044640608548045
2.3397320000000006,15.034859408638916,0.1040494125038432
2.344264,15.07709186915141,0.1036508999746495
2.348795999999999,15.120756644416762,0.1032567435025075
2.353343999999999,15.168674222492063,0.102855382332231
2.357896,15.221333342233896,0.1024323968427388
2.3624280000000004,15.277345830338026,0.1020053665002142
2.366967999999999,15.336545360641685,0.1015582494526568
2.371491999999999,15.38883792624108,0.1011498152169401
2.376027999999999,15.43753275404988,0.1007572417070048
2.380551999999999,15.480586605744508,0.1003915045263945
2.3850880000000005,15.522330327400418,0.1000205112170665
2.389639999999999,15.559166181227022,0.0996575558185997
2.3941799999999995,15.59763457778615,0.0992747685749613
2.398708,15.637613332363657,0.0988765537213193
2.403232,15.670885350216562,0.0984898368526428
2.407756,15.705379215210924,0.0980739592618946
2.41228,15.73357703907175,0.0976804023585741
2.416816,15.755723191227332,0.0973020119611407
2.421364,15.772961475553611,0.0969298438299044
2.425907999999999,15.786680065354815,0.0965477450474201
2.430436,15.79957726397389,0.0961470987340396
2.434964,15.806789345030158,0.0957508804532177
2.439488,15.809870807990622,0.0953590080672043
2.444012,15.80869946814114,0.0949757910883416
2.4485400000000004,15.805196379091152,0.0945921428033841
2.4530760000000003,15.797440487231212,0.0942161714477937
2.457608,15.785187423133031,0.0938533058559345
2.4621439999999994,15.782006746776856,0.0934429283437764
2.4666760000000005,15.777926635973026,0.0930352516699298
2.471215999999999,15.774457448739929,0.0926119570242148
2.475739999999999,15.77200988066862,0.0921832892467422
2.480275999999999,15.765842390092578,0.0917666419918651
2.484804,15.756321531154237,0.0913543215886243
2.489332,15.73625182827241,0.0909649443127073
2.493859999999999,15.719246982875964,0.0905577249277523
2.498416,15.700076714441783,0.0901643137609904
2.502956,15.682416804025983,0.0897528582336879
2.50748,15.666800131933767,0.0893298021028493
2.5120200000000006,15.652205079003346,0.0889008107920678
2.516552,15.640963394435229,0.0884681557255774
2.5210920000000003,15.62988803602988,0.0880505986216849
2.525624,15.621755350395766,0.0876193251711277
2.530184,15.619141456161683,0.0871713288639995
2.534719999999999,15.616527561927606,0.0867233051461522
2.539243999999999,15.610848810208148,0.0862900506299202
2.5437760000000003,15.60901216570757,0.0858424727782969
2.548315999999999,15.60975163983579,0.0853910712872684
2.55286,15.603706333973893,0.0849673441006061
2.5573880000000004,15.59994863586387,0.0845280047336578
2.561932,15.598111991363291,0.0840816072104043
2.566456,15.597296966024508,0.0836310227864762
2.57098,15.603388905389988,0.0831514873378438
2.575508,15.608092671451235,0.0826850623020747
2.580032,15.621668597274816,0.0822009323650533
2.5845639999999994,15.637820641727194,0.0817146662568007
2.589092,15.656793174236665,0.0812211736217327
2.59364,15.674377533441902,0.0807416774145027
2.59818,15.690695904057057,0.0802729813629911
2.6027200000000006,15.70640335110148,0.0798193059749139
2.607248,15.719412494802963,0.0793718421023535
2.611772,15.732666007932735,0.0789187205626899
2.6163040000000004,15.74350972859648,0.0784835194932921
2.620848,15.752554580364936,0.0780531995956728
2.6254040000000005,15.761477247419242,0.077626016517704
2.629943999999999,15.77820631362546,0.0771716573314722
2.634467999999999,15.794158130098175,0.0767181578460755
2.639,15.815995292113362,0.0762463171548921
2.643524,15.843473430242724,0.0757604373576489
2.648051999999999,15.86776452617256,0.0752918816995915
2.6525799999999995,15.892710687121756,0.0748291843838961
2.6571360000000004,15.915735794461506,0.0743736686743912
2.661675999999999,15.938516532372969,0.0739263938862463
2.666208,15.96706043111275,0.0734632092638743
2.670748000000001,15.995970883994971,0.0729943960563333
2.6752879999999992,16.02500352159134,0.0725248266262741
2.679832,16.048517367787674,0.0720669524839883
2.684371999999999,16.075751136488748,0.0716021764442649
2.688904,16.107193566551143,0.0711198157842565
2.693428,16.14014635463191,0.0706234461587949
2.697952,16.175919630769762,0.0701218885722149
2.702483999999999,16.211937276335913,0.069615794477984
2.707019999999999,16.253307387139323,0.0690858838577766
2.711564,16.29197919459979,0.068560279246528
2.7160959999999994,16.33101755620269,0.0680275987451466
2.7206400000000004,16.366091625872563,0.067510838264305
2.725172,16.398223022771198,0.0670042111793332
2.729696,16.41907246744148,0.0665226898524102
2.734227999999999,16.43464749014002,0.0660459130330104
2.738751999999999,16.450344697552705,0.0655662649932342
2.743284,16.462566351888945,0.0650883130224527
2.747811999999999,16.472211887596387,0.0646101096023675
2.752368,16.479281304675034,0.0641332245147321
2.756908,16.47903306145835,0.0636664422619343
2.761432,16.47020116935625,0.0632175522987754
2.7659639999999994,16.45789372417771,0.062769208878942
2.7704879999999994,16.44942838621805,0.0623115204720376
2.7750200000000005,16.434789191839,0.0618562843539958
2.7795440000000005,16.412465783022185,0.0614170753993262
2.784092,16.387444070862422,0.0609792962306271
2.78864,16.358824620912074,0.0605437363878569
