Time,Force,Position
6.946751999999999,13.53286409349672,0.1458384388908817
6.951348,13.550455509412028,0.1455112654968101
6.955935999999999,13.560386373074714,0.1451406070046617
6.960523999999999,13.555793861229152,0.1448123571005433
6.965115999999999,13.548659132571684,0.1444554005189216
6.969711999999999,13.543645685503318,0.1440547920078678
6.974315999999999,13.539409488168456,0.1436528938146753
6.978915999999999,13.53971460452046,0.1432407129258031
6.983512,13.552856172567829,0.1427350448103973
6.988103999999999,13.570006173996848,0.1422141275217358
6.992696,13.586300882426851,0.1417228677392769
6.997276,13.605582405076715,0.1412267484842079
7.001872,13.627850741946444,0.1407260707468947
7.00646,13.662056096063887,0.140140604976065
7.011055999999999,13.70578867496302,0.1395035418516949
7.015652,13.756472360015044,0.1388288189407798
7.020243999999999,13.807444555943984,0.1381697652167015
7.024819999999999,13.85894963217814,0.1375224505636475
7.029415999999999,13.91393026148874,0.136859672242096
7.034012,13.96715616335267,0.1362348433382711
7.038607999999999,14.027333171369492,0.1355759443703365
7.043195999999999,14.09315115550049,0.1348826912477994
7.047783999999999,14.158846954917346,0.1341998705695754
7.052359999999999,14.231205349610171,0.1334733321121766
7.056943999999999,14.298700017922323,0.1327892590038636
7.06154,14.362474763729736,0.1321358989278661
7.066135999999999,14.426127324823003,0.1314911293617095
7.070728,14.489779885916274,0.1308497750033201
7.075307999999999,14.547547101467076,0.130259682165348
7.079899999999999,14.610178043398548,0.1296395087778489
7.084483999999999,14.671621040005457,0.1290146886394255
7.089071999999999,14.737272697973683,0.1283575480609498
7.093664,14.80713301730323,0.1276691241096791
7.098256,14.872373979680392,0.1270159485680999
7.102859999999999,14.933362139247608,0.1263864889452156
7.107451999999999,14.993573049081318,0.1257644235312072
7.112044,15.055172132219262,0.1251271438371761
7.116647999999999,15.114850161747762,0.1245069418476102
7.121247999999999,15.173628756828617,0.123896286676837
7.125839999999999,15.2337955252137,0.1232720885982752
7.13042,15.291508359684132,0.1226605637431795
7.135015999999999,15.345623456363974,0.1220732037892304
7.139603999999999,15.396385184681517,0.1214995234271366
7.144196,15.441872491027311,0.1209530607958201
7.148784,15.492590077896226,0.1203687351924408
7.153379999999999,15.544207099212787,0.1197825239137199
7.157972,15.5923485674529,0.1192114649425057
7.162563999999999,15.640734405121306,0.1186365592480242
7.167151999999999,15.691530035255736,0.118039718886812
7.171744,15.73602962425663,0.1174757591568966
7.176332,15.778608159648083,0.116923978728175
7.180915999999999,15.812070165848912,0.1164171126214432
7.1855,15.840668445669063,0.1159428484097684
7.190084,15.868489475755714,0.1154708786250612
7.194667999999999,15.895533256108862,0.1150013304650796
7.199243999999999,15.916280995328476,0.1145594961353358
7.203839999999999,15.934452615919293,0.1141272320377585
7.208427999999999,15.952868605938402,0.1136900639440984
7.213015999999999,15.969485727062215,0.1132618213389204
7.217603999999999,15.980584056785991,0.1128599023897056
7.222191999999999,15.989883517614478,0.1124665924104216
7.226795999999999,15.995463055938222,0.1120916557487033
7.231383999999999,16.00181984399547,0.1117165002868106
7.235976,16.008176632052717,0.1113419212584401
7.240567999999999,16.009547509015142,0.1109988071494006
7.245167999999999,16.010018951529922,0.1106597678250061
7.249759999999999,16.01318869738764,0.1103103187572197
7.254347999999999,16.020200550464246,0.1099426274043961
7.258943999999999,16.025169165217264,0.1095889210230563
7.263531999999999,16.029771225827844,0.1092443752488332
7.268131999999999,16.038870458676662,0.1088835353966222
7.272711999999999,16.05414354794487,0.10850196000742
7.277311999999999,16.071582060250815,0.1081058067655165
7.281904,16.08775458396667,0.1077225330685487
7.286499999999999,16.107402660758975,0.107331026349391
7.291083999999999,16.132325159523017,0.1069231426560246
7.295675999999999,16.161744830525297,0.1065009936977662
7.300283999999999,16.19104231681344,0.1060835480385338
7.304875999999999,16.223937540892166,0.1056556018243563
7.309468,16.262351556370927,0.1052070009852846
7.314059999999999,16.297578529650167,0.1047798328341585
7.318647999999999,16.33730267516764,0.1043385670428138
7.323239999999999,16.378947874294557,0.103890165693821
7.32782,16.41944926954553,0.1034517425580958
7.332415999999999,16.46085009924416,0.103011015126279
7.337003999999999,16.504949232285725,0.1025634783459671
7.341591999999999,16.550847234222587,0.1021126166876095
7.346175999999999,16.592658759512283,0.1016887597295874
7.350751999999999,16.638190207306707,0.1012529603651006
7.355348,16.687930316462452,0.1007932294672734
7.359939999999999,16.735871556722905,0.1003419445741396
7.364527999999999,16.785978220021086,0.0998798665798973
7.36912,16.833020025833893,0.0994365915202859
7.373699999999999,16.88210506997028,0.0989832013463276
7.378284,16.923505899668903,0.0985643036218719
7.382875999999999,16.965028914081675,0.0981448203139106
7.387472,17.0038536251515,0.0977361723094238
7.392072,17.041778901773682,0.0973315727156092
7.396651999999999,17.075207006157623,0.0969419525653831
7.401251999999999,17.107613491379766,0.0965600673513924
7.405839999999999,17.144106453249087,0.0961570215969023
7.410443999999999,17.17610224288017,0.0957680160178739
7.415031999999999,17.20425592529237,0.0953956339979791
7.419619999999999,17.234330661314008,0.0950162582394727
7.4242,17.263750332316288,0.094634471495839
7.428783999999999,17.286751777470894,0.0942733294253003
7.433371999999999,17.3071771039967,0.0939182175796393
7.437959999999999,17.326947365503145,0.0935609083783088
7.442536,17.342098270057203,0.0932196695539091
7.447124,17.35418431712589,0.0928950377243049
7.451707999999999,17.365493114461067,0.0925707335643509
7.4563,17.370261501234424,0.0922687780758774
7.460883999999999,17.377073126331364,0.0919571487217199
7.465471999999999,17.384129120856603,0.0916408861027948
7.470055999999999,17.3962932111908,0.0912996425711937
7.47464,17.408046605933933,0.0909510610232356
7.479228,17.414403393991183,0.0906155328770077
7.483835999999999,17.41998293231493,0.0902797433433437
7.488416,17.423108536724023,0.0899446231170008
7.493004,17.420182469427875,0.0896190868000838
7.497599999999999,17.412759229893485,0.0893040357438698
7.502175999999999,17.409178097577975,0.0889752470051841
7.506771999999999,17.408661822747852,0.0886321217440262
7.511347999999999,17.405691614003075,0.0882900245142043
7.515947999999999,17.40758513163897,0.0879304672714826
7.520535999999999,17.410744637864955,0.0875598538779058
7.525135999999999,17.411328025462137,0.0871925328181888
7.529723999999999,17.40549318721164,0.0868410984421937
7.53432,17.395161176722908,0.0864987305511029
7.538911999999999,17.381353613157728,0.086161143537886
7.543508,17.363948311801956,0.0858309311968938
7.548084,17.347564629607977,0.0854952206963706
7.55268,17.325662156013962,0.0851734007906231
7.557272,17.301838628810515,0.0848580038354196
7.561868,17.27723785187356,0.0845417251387234
7.566451999999999,17.25137108634652,0.0842352483501999
7.571048,17.230900927505367,0.0839167086044743
7.575636,17.2150501256166,0.0835865324694425
7.580232,17.20255269209013,0.0832537086141754
7.584824,17.196106930268908,0.0829130369314924
7.589415999999999,17.198899882352453,0.0825496322563006
7.594008,17.196951292769466,0.0822006651675385
7.598587999999999,17.19398108402469,0.0818566057696651
7.603188,17.194486428356356,0.0815085604644943
7.607767999999999,17.19012804630735,0.0811778926812023
7.61236,17.192310074820167,0.0808307270951853
7.616955999999999,17.19874490614293,0.0804807377082008
7.621543999999999,17.21633950497991,0.0801033669123342
7.626139999999999,17.244438806311738,0.0796958015798649
7.630724,17.2780568990436,0.0792765979743364
7.635315999999999,17.319114836784944,0.0788408023432577
7.639912,17.36377051231687,0.0784000401824076
7.644503999999999,17.41688765202007,0.0779387647344915
7.649107999999999,17.471925845332706,0.0774735065774268
7.653691999999999,17.528518538112348,0.0770128160037309
7.658295999999999,17.585111230891993,0.0765537387753475
7.662876,17.64080448922399,0.0760980077240018
7.667476,17.69020170642245,0.0756543856824365
7.672055999999999,17.74176434665864,0.0752023307833136
7.676655999999999,17.79279410658962,0.0747463966133188
7.681247999999999,17.834707337329977,0.074308871634886
7.685835999999999,17.879929794984005,0.0738554123503238
7.690428,17.92809492540927,0.0733952783506667
7.695019999999999,17.977403859710474,0.0729317499622707
7.699611999999999,18.028756032335263,0.0724622885679857
7.704207999999999,18.078842216369967,0.0720052065570861
7.708795999999999,18.131582562298988,0.0715318114504814
7.713387999999999,18.182524039332712,0.071064768026308
7.717983999999999,18.228479605271616,0.0706163338053435
7.722568,18.275334605658166,0.0701695019993191
7.727156,18.31744806437819,0.0697351705953475
7.731747999999999,18.35890645807885,0.0692991148040267
7.736332,18.397910917864863,0.0688641682209698
7.740911999999999,18.43499432404144,0.0684348425704889
7.745496,18.47052323075101,0.0680043759460784
7.75008,18.508095375784155,0.0675688398392877
7.754668,18.550653431912128,0.0671216160258255
7.75926,18.595909791383047,0.0666722474432979
7.763839999999999,18.640144531692176,0.066228348994187
7.768427999999999,18.68347983755365,0.0657870968635682
7.77302,18.73683110705341,0.065336175773469
7.777599999999999,18.790470887430075,0.064898040171162
7.782203999999999,18.835893573063764,0.064470544369881
7.786784,18.87412078311628,0.0640504980940287
7.791384,18.906584832340464,0.0636424193839725
7.79596,18.936717132364144,0.0632313776713108
7.800548,18.95789922935997,0.0628442562730723
7.805139999999999,18.971641481346328,0.0624679452936097
7.809731999999999,18.982807614703884,0.0620914735504559
7.814319999999999,18.98984312996564,0.0617123397730096
7.818915999999999,18.99802244910333,0.0613282698844748
7.823503999999999,19.00656832238347,0.0609383897052711
7.8281,19.01192715346407,0.0605600029511147
7.832679999999999,19.019573592296556,0.0601718086462816
7.837264,19.023622293338445,0.0597857798193504
7.841852,19.02125276853265,0.0594058831023497
7.846443999999999,19.007601291498503,0.0590415859235823
7.85104,18.991373695835563,0.0586761577201065
