Time,Force,Position
4.504975999999999,4.659178110134395,0.1367779727070602
4.509563999999999,4.628889032712961,0.1366566843464091
4.514159999999999,4.5984777705773805,0.1365449795253248
4.523327999999999,4.534023606698738,0.1365257881852153
4.527904,4.505333170192936,0.1364511180700566
4.532483999999998,4.475743299239485,0.13639032346611
4.537075999999999,4.45023990493321,0.136214995411719
4.541656,4.430866225597696,0.1358696302202205
4.546244,4.414923957889998,0.1354010146219048
4.550823999999999,4.402168732381827,0.1348316849884573
4.555399999999999,4.391090191054806,0.1342347417445429
4.560003999999999,4.389861287203284,0.1333798880688359
4.564591999999999,4.382380483666855,0.1327145097111674
4.569179999999999,4.379396852368665,0.1319595140589111
4.573772,4.384752500527598,0.1310259757596344
4.578351999999999,4.394360951496478,0.1300331937934117
4.582951999999999,4.403847217751212,0.1290511126344899
4.587532,4.406059965159246,0.1282869206416329
4.592131999999999,4.408272712567279,0.1275178014063077
4.596708,4.408442221651725,0.1268095626070575
4.601311999999998,4.408856100164464,0.1260828467232595
4.605899999999998,4.411968282020147,0.1253095449583001
4.610499999999998,4.418800386380565,0.1244562839948276
4.615079999999999,4.4336052160556685,0.1234789362021486
4.619675999999998,4.44677750299825,0.1225907413340743
4.624272,4.462037169713048,0.1217133077113241
4.628863999999998,4.475786478409469,0.1209134559271927
4.633467999999999,4.490479363002165,0.1201699745780572
4.638059999999999,4.508569757405791,0.1194631257165658
4.642647999999999,4.525193935239668,0.1188919491427366
4.647239999999998,4.547869784778788,0.1182502560775575
4.651819999999999,4.568302168014658,0.1177549226532554
4.656419999999999,4.591965734898683,0.1172395367316426
4.661003999999998,4.61975991987851,0.1166977625002495
4.665588,4.648253311326323,0.1162403801994447
4.670176,4.676790844222763,0.1158509767132403
4.674752,4.707826452482482,0.1155050924867062
4.679347999999999,4.745690982180949,0.1150916655109569
4.683931999999999,4.790917313623371,0.1146352888234196
4.688519999999999,4.838397351000784,0.1142465423961489
4.693111999999999,4.8892748981891225,0.1139021107896225
4.697699999999999,4.942650520740743,0.1136075652041835
4.702287999999999,5.002610695302817,0.1132816189227829
4.70688,5.060816142418225,0.1130486329582134
4.71148,5.122008403753495,0.1128172428689695
4.716075999999999,5.189374521508154,0.1125292615194158
4.720656,5.260871257358616,0.112220129454301
4.725251999999999,5.333800307961937,0.1119225751175302
4.729831999999998,5.404563935527525,0.1116770750595915
4.734432,5.481212908635583,0.1113334273410098
4.739023999999999,5.558516946762997,0.1110196222378943
4.74362,5.635165919871055,0.1106960319368675
4.748211999999999,5.710138208797963,0.1103878584934459
4.752803999999999,5.783433813543719,0.1101042366455382
4.757396,5.854764223231408,0.1098073383018786
4.761987999999999,5.929648229261059,0.1094352458341584
4.766587999999999,6.002811409660931,0.1090241157533052
4.771179999999999,6.070167287783852,0.1086519234071514
4.775767999999999,6.132737482791614,0.1083050070020022
4.780363999999999,6.193053971864388,0.1079065079580696
4.784948,6.248051897516792,0.1075125922996044
4.789543999999999,6.298097813891261,0.1070945212831504
4.794131999999999,6.33730637544533,0.1067382742890077
4.798727999999999,6.372462362169113,0.1063482574793642
4.803319999999999,6.403810143490904,0.1059083667474164
4.807907999999999,6.423176766116352,0.1055501027007801
4.8125,6.437224825321432,0.1051901103492021
4.817087999999998,6.448119744143874,0.1047878305996252
4.821683999999999,6.455861522583679,0.1043398264741755
4.826267999999999,6.453298826508293,0.1039592108311952
4.830843999999999,6.442230524813011,0.1036295759196624
4.835439999999998,6.430218647221453,0.1032612199586277
4.840027999999998,6.4170188243053286,0.1028697034423747
4.844615999999999,6.399932752721692,0.1024789780623922
4.849215999999998,6.3783495088998166,0.1021268868124319
4.853795999999999,6.34392981338258,0.1018997679652613
4.858388,6.307056183950692,0.1016787234668824
4.862971999999999,6.266051936423,0.1014729423963976
4.867571999999999,6.222593754980657,0.1012725422577727
4.872152,6.177214519928872,0.1010927869980267
4.876747999999999,6.128770427391706,0.1009597205009033
4.881331999999999,6.080081965426251,0.1008395379188273
4.885923999999999,6.033847437375446,0.1007108602008823
4.890516,5.9890452240775005,0.1005859391169325
4.895107999999999,5.944531521656474,0.100489513417225
4.899707999999999,5.905292241207189,0.1003529954498474
4.904292,5.871205198015499,0.1001810087645397
4.908871999999999,5.836507231253082,0.1000459228144999
4.913455999999998,5.806062067300613,0.0998846017773462
4.91804,5.784733432538767,0.0996371266706199
4.922631999999998,5.767002535567513,0.0993574948206571
4.927219999999998,5.750703953349119,0.0990857607368051
4.931799999999999,5.735426990292517,0.0987969278115193
4.936383999999999,5.720560722826981,0.0985313054952035
4.940968,5.709536562580327,0.0982189138925934
4.945544,5.709916539276176,0.0977761310080972
4.950147999999999,5.7195352298767945,0.0972496984118498
4.954735999999999,5.739947133849187,0.0966404807120077
4.959339999999999,5.76089191812679,0.0960467428146387
4.963932,5.783513386585545,0.0954466522966232
4.96852,5.811775831158476,0.0947874474280238
4.973111999999999,5.846334316864944,0.0940866766960578
4.977691999999999,5.886411593971443,0.0933426074807459
4.982287999999999,5.926244501649652,0.0926172094595992
4.986867999999999,5.970818950994392,0.0918510684497939
4.991463999999999,6.017314453948573,0.0910707495840683
4.996055999999999,6.0562479271791325,0.0903688593651382
5.000655999999999,6.09775751903849,0.0896587215059572
5.005248,6.136202253412468,0.0889960703369949
5.009839999999999,6.1728481188911495,0.0883588973618599
5.014415999999999,6.211170668550984,0.0877227382936714
5.019011999999998,6.250514837372611,0.0870798967188554
5.023607999999999,6.290391886499447,0.0864594569787846
5.028203999999999,6.334233227559311,0.0857988597258662
5.032787999999998,6.377830199190886,0.0851598940710844
5.037372,6.41721850946114,0.0845897971689815
5.04196,6.446102117236539,0.0841227481568764
5.046551999999998,6.468689683878403,0.0836995815523606
5.051131999999999,6.494342108005649,0.0832419411155672
5.055712,6.520483270989476,0.0827584531558013
5.060307999999999,6.543803945916213,0.0822997234878215
5.064883999999999,6.561972383585356,0.0818613744414697
5.069471999999999,6.577809072053992,0.081421889913092
5.074076,6.594256684093358,0.0809490797016738
5.078664,6.6053076894468346,0.0805063645702713
5.083247999999999,6.615048564761598,0.0800478359327011
5.08784,6.629242470865973,0.0795221761217429
5.092431999999999,6.638406324426899,0.0790006400884658
5.097023999999999,6.649080536006201,0.0784407779019322
5.1016,6.654480325613761,0.0778988074465991
5.106204,6.654972247392017,0.0773528923024172
5.110783999999999,6.652599539664556,0.0767823460508889
5.115383999999999,6.647772898022442,0.0762092011591133
5.119967999999998,6.637016769389231,0.0756412931745886
5.124567999999998,6.618410100155479,0.0750878254730533
5.129152,6.5997592894731,0.0744879628713219
5.133743999999998,6.586460944027979,0.073818774427521
5.138323999999999,6.572507533563503,0.0731364656700901
5.142916,6.554301320289078,0.0724561907709776
5.147519999999998,6.536095107014653,0.0717751274800983
5.152111999999999,6.517722567577454,0.071052647268268
5.156687999999999,6.498694963120899,0.0703160012814557
5.161271999999999,6.47222751365487,0.0696111441830723
5.165859999999999,6.442695206703461,0.0689319934189018
5.170447999999999,6.411608400285047,0.0682377889152737
5.175032,6.376557301933605,0.0675700917777445
5.179611999999999,6.337664096363279,0.0669209066444336
5.184195999999998,6.301835748278334,0.0662355686639681
5.188775999999999,6.264985781031595,0.0655559875372708
5.193351999999999,6.228013629070711,0.0648742675133822
5.197951999999999,6.194639214900418,0.0641762402800338
5.202544,6.159632257997604,0.0635157079306768
5.207147999999998,6.125891289684874,0.0628261887860138
5.211739999999999,6.0946042552867965,0.0621371378994936
5.216327999999999,6.074599173117076,0.0613892410696459
5.220927999999999,6.052184298481332,0.0606757677378749
5.22552,6.026704566360207,0.0599864193545023
5.230111999999998,6.000736095382499,0.0593205276181207
5.234699999999998,5.977343743033589,0.0586523197244226
5.239296,5.951908152361092,0.0579981070590578
5.243884,5.9276605070131625,0.0573730192082519
5.248479999999999,5.901658134218565,0.0567938155985847
5.253067999999999,5.884650105900447,0.0561969740659859
