Time,Force,Position
4.631332,5.356374718749733,0.1324118297140908
4.63592,5.342906864220165,0.1323324199459413
4.640512,5.324364815698519,0.1322545579818738
4.6451,5.311341558576904,0.1320826170731787
4.6497,5.295541954846831,0.1320149552699366
4.654284,5.286937826697939,0.1318347567784034
4.658880000000001,5.28270868607314,0.1315923303728317
4.663472,5.28244383738137,0.1312636191333381
4.668052,5.278703435613156,0.1309809565848915
4.672643999999999,5.271854034910931,0.1307148981242105
4.677231999999999,5.263450134741702,0.1304569043282907
4.681807999999999,5.251081942639445,0.1302843138862441
4.6864040000000005,5.234871643318307,0.1301873553177239
4.6909920000000005,5.223647255091988,0.1299781915679672
4.695588,5.208947313789225,0.1298169407995184
4.700183999999999,5.190771819410015,0.1297023320966707
4.704771999999999,5.173617944192599,0.1295622690704259
4.709376,5.151600342594508,0.1295242396392865
4.713976,5.130726544872356,0.1294502037107778
4.718568,5.112551050493147,0.1293287967857579
4.723147999999999,5.100260901656409,0.1290805952119301
4.727752,5.087848568105526,0.1288415639619171
4.73234,5.075314049840494,0.1286118090423469
4.73694,5.055217501851845,0.1285250274396285
4.74152,5.043704602748608,0.1282696138088586
4.74612,5.029615585016575,0.1280447455481717
4.750704,5.012950448655743,0.1278506572251045
4.755296,4.993464824237821,0.1277068253741406
4.759884,4.9757780687151945,0.127535314301654
4.764475999999999,4.959401443231282,0.1273760564178062
4.7690600000000005,4.946089675232749,0.1271419684880851
4.773651999999999,4.9343324067012215,0.1268991435810759
4.778239999999999,4.926583571551351,0.1266257706788476
4.782824000000001,4.9202670511543385,0.126355265025555
4.787412000000001,4.918569887709711,0.1260025131498162
4.792004,4.920226092627383,0.1256143512878055
4.796600000000001,4.923558981726206,0.1252092121754046
4.801184,4.929345804739681,0.1247785110304495
4.805784,4.938485996115455,0.1243158954525712
4.810368,4.938798169177525,0.1240394951989929
4.81496,4.935146050306567,0.1238507710698058
4.819552000000001,4.9339478653502615,0.1236422968359018
4.824127999999999,4.934548549289251,0.1234058021085733
4.828740000000001,4.941034578770711,0.1230451960191041
4.83332,4.942412512443201,0.1228063669904139
4.837912,4.94497839144026,0.1225910703221812
4.842508,4.949753834923679,0.1223749382901509
4.847091999999999,4.954284908978808,0.1221787482963114
4.851688,4.962413720824529,0.1219296003733161
4.856276,4.976305693498573,0.1215733634681853
4.860872,4.987665688992448,0.1213061204375194
4.86546,5.002745606991059,0.1209789077116616
4.87006,5.015493775789164,0.1206599970339245
4.87464,5.0254214565301805,0.1203914969915858
4.87924,5.0380474406141404,0.1200895556257168
4.883831999999999,5.046953502193362,0.1198486512498692
4.888424,5.051650902411264,0.1197074242616438
4.893012,5.058147171524462,0.1195406422685892
4.897607999999999,5.0617007678664265,0.1194332549708145
4.902212,5.0746152628273045,0.1191680408119979
4.906804,5.090105876416982,0.1188758864605455
4.911392,5.102243121644358,0.1186166013003116
4.915988,5.116956485500531,0.1183325513805602
4.920576,5.129382241604828,0.118115227530103
4.925159999999999,5.142829616870918,0.1178748353294835
4.929747999999999,5.156276992137007,0.1176338139510021
4.93434,5.170868171279036,0.1173616264085966
4.938935999999999,5.188279838478154,0.1170441185949451
4.943523999999999,5.2068353095532105,0.1167036982049457
4.94812,5.219505435085798,0.1164762416447326
4.952696,5.2351182333896205,0.1161955677655263
4.95728,5.246644555046268,0.1160006006007678
4.961875999999999,5.262301494798718,0.1157775218692405
4.966463999999999,5.278080619265315,0.1155438326310016
4.9710600000000005,5.289240386779526,0.1153795519534367
4.9756480000000005,5.304120076798474,0.11516075026091
4.9802360000000006,5.3270505353976265,0.1147877590009942
4.984832,5.3484264945297735,0.1144194679477034
4.9894240000000005,5.369924638376065,0.1140422533197799
4.994027999999999,5.387947229145912,0.1137054914053181
4.998615999999999,5.404415320448754,0.1133746536861113
5.003212,5.421660661485099,0.1130423786771892
5.0078000000000005,5.435430449444995,0.11274618160206
5.012391999999999,5.452920159909632,0.1124016982391062
5.0169760000000005,5.470776424516704,0.1120309481015892
5.0215760000000005,5.491042481589801,0.1115968986772479
5.026172,5.51322959227234,0.1111389027524192
5.030755999999999,5.533740018773727,0.1106959979101781
5.035348,5.548365099732646,0.1103521274987689
5.0399400000000005,5.566954472624593,0.109943694266016
5.0445400000000005,5.583867161335388,0.109549283651539
5.0491280000000005,5.604988511407504,0.1090739261930855
5.0537160000000005,5.627620219497997,0.108554703085843
5.058304000000001,5.65384966537908,0.1080008961173344
5.062892000000001,5.684698468212549,0.1073971279810632
5.067476,5.714770021312516,0.1068001425880196
5.072056000000001,5.740755097765309,0.1062834552341577
5.076631999999999,5.770215727294547,0.1057434437329815
5.081216,5.802252475452583,0.1051897091369913
5.085804,5.83314541973468,0.1046613030297118
5.090388,5.862772375426692,0.1041660704144137
5.094983999999999,5.893176580852208,0.1036721476197634
5.0995680000000005,5.927178524068313,0.1031469355190012
5.104156000000001,5.955783860598531,0.1026771145564924
5.108747999999999,5.985821511881609,0.1022187314089069
5.113335999999999,6.019334716241132,0.1017479658509888
5.11794,6.052970105314801,0.10127876392492
5.122516,6.090081047464915,0.1007921236789564
5.127112,6.133199519871646,0.1002231064019477
5.1317,6.170799200878342,0.0997106854410967
5.136296000000001,6.211874434961485,0.0991821493896163
5.14088,6.252827484330482,0.0986720176765633
5.14548,6.288672437890512,0.0982425174958499
5.150060000000001,6.323862326431185,0.097812117671912
5.154660000000001,6.3541884885911815,0.0974433481695589
5.159252,6.38529190048468,0.0970789923344365
5.163848000000001,6.418438550701767,0.0966901899737209
5.16844,6.449786332023557,0.0963194178745094
5.173032,6.479579613878342,0.0959514497305028
5.17762,6.513992252685513,0.0955459403890615
5.182212000000001,6.553512987301652,0.0950753027737237
5.186804,6.595199144955524,0.09457569134574
5.191392,6.63340974953295,0.0940982148223836
5.19598,6.677139145510408,0.0935791426219817
5.200576000000001,6.720335661182656,0.0930498834620923
5.205168,6.752250224626547,0.0926247720220264
5.209756,6.781222115299202,0.0922363440713724
5.214336,6.806962822323703,0.091855617572101
5.218924,6.82694036851988,0.0915341624461079
5.223503999999999,6.852558890830236,0.0911649003398089
5.228115999999999,6.872247926149493,0.090817366840354
5.232696,6.88858359310645,0.0904814126196714
5.237288,6.907329052529432,0.0901003329105335
5.241879999999999,6.925419446933057,0.0897150331178371
5.246472,6.94526456878335,0.0892768292318751
5.251064,6.960856887823694,0.0888524670892661
5.255655999999999,6.971419154320589,0.0884413516241447
5.260248,6.9837361482641525,0.087980935227853
5.264836,6.994865196883146,0.0874987809414825
5.269436,7.000186943225189,0.08702696160598
5.274024,7.001133702043138,0.0865762397198852
5.278628,6.997949842765284,0.0861310294825578
5.283216,6.998075210401103,0.0856394860384218
5.287816,6.991371656598177,0.0851659594602405
5.2924,6.981436919147096,0.0846899993971065
5.296995999999999,6.978653515828569,0.0841325102301332
5.301588,6.972638928861888,0.0835709671238727
5.306183999999999,6.963803853838118,0.0830280269192185
5.310771999999999,6.954680267937428,0.0824528924764367
5.315364,6.9450238017315264,0.0818657989292431
5.319956,6.940231061906301,0.0812366197510274
5.32454,6.932984388166426,0.080603704561311
5.329128,6.925449203549628,0.0799432133688744
5.333723999999999,6.913172477266301,0.0793143951249579
5.338311999999999,6.899096882087679,0.0786920195384488
5.342911999999999,6.887308894660935,0.0780320572162705
5.347504,6.8727004191771,0.0773834682680325
5.352092,6.850285544541356,0.0767960964636997
5.356684,6.823784193258437,0.0762459619137011
5.361263999999999,6.799203895584959,0.0756773500416536
5.365856,6.774623597911483,0.0751060542757774
5.370451999999999,6.74685625803848,0.0745674110779947
5.375039999999999,6.715246810946594,0.0740543918779223
5.379644,6.686335667197652,0.0735258951443374
5.384232,6.658079588468065,0.0730027264517973
5.3888240000000005,6.626103587233742,0.0724966227364118
5.393408,6.597969693218301,0.0719591142436053
5.397992,6.573022841402388,0.0713808565917328
5.402596,6.55347259627236,0.0707819803697124
5.407176000000001,6.528403559742301,0.070205700900585
5.411772,6.499370231279213,0.0696597538123149
5.41636,6.475611324787866,0.0691001223087025
5.42096,6.451119310011645,0.0685791396384004
5.425548,6.433412075225542,0.0680106945482179
5.430140000000001,6.4162377207446495,0.0674569973649836
5.434728000000001,6.398574627407173,0.0669280084209344
5.439324,6.391171867136261,0.0663508372645147
5.443916000000001,6.39300782077012,0.065735292154689
5.448508,6.400729119946448,0.0650769372949949
5.453104000000001,6.409227668856278,0.0644243191141608
5.457692000000001,6.417726217766108,0.0637719358723093
5.462267999999999,6.434031165827849,0.0630694778179555
5.466852,6.448170690851858,0.0623872704734176
5.47144,6.464231269485308,0.0616974614974486
5.476031999999999,6.483889585909349,0.0610024401912373
5.480619999999999,6.50714564012398,0.0603014372465949
5.4852,6.529257890462673,0.0596181429377029
5.489783999999999,6.548060913887695,0.0589732953689252
5.494368000000001,6.560978591770247,0.0583668428502444
5.498948,6.573529715510362,0.0577752034441169
5.50354,6.585059220088684,0.05718916809254
5.508128,6.593768236609916,0.0566168540752705
5.512716,6.59990113450235,0.0560406943983118
5.517312,6.600270871566459,0.0554935807052192
5.521892,6.59782012057348,0.0549533005177922
5.526483999999999,6.597534792618235,0.0543915595166312
5.531064,6.589565250225222,0.0538665822276198
5.535659999999999,6.574933112556239,0.0533683519629575
5.540247999999999,6.553149640754699,0.0529184179024186
5.544844,6.526502442572485,0.0524881600812131
5.54944,6.496912571619035,0.0520688159713507
5.554032,6.457473063190088,0.0516986502577665
5.558611999999999,6.420854042818228,0.0513158199961128
5.563204,6.378105307475608,0.050972749506801
