Time,Force,Position
6.033563999999998,2.3507315973460665,0.164845116573643
6.038151999999998,2.479449936755424,0.1635668379572843
6.04276,2.606114798209456,0.1622294196271539
6.047351999999998,2.729826747260514,0.160650278699366
6.051939999999998,2.843390308327415,0.1593781616752565
6.056524,2.939487821114832,0.1588215995600535
6.061119999999999,3.0262141956515944,0.1584036860062079
6.065715999999998,3.108188788890087,0.1578862838784235
6.070303999999998,3.180014994144424,0.1574629070340479
6.074895999999999,3.2405490075386645,0.1572126268247363
6.079483999999999,3.292200621538833,0.1569986446818141
6.084083999999999,3.337912508916166,0.1566689727573124
6.088664,3.3755192466329285,0.1563641590651291
6.093264,3.408374203051422,0.1559831605326891
6.097855999999998,3.436599562885792,0.1554942081048453
6.102447999999999,3.4652253786794884,0.1547921570277908
6.107035999999999,3.4942177486156214,0.1540571792591776
6.111631999999998,3.52026744578052,0.1534446891006786
6.116219999999998,3.5433303287255558,0.1528841117254002
6.120811999999999,3.568803004136614,0.1521907578558567
6.125399999999999,3.592843364794814,0.1515171320085871
6.129992,3.608788815424184,0.1510873417387454
6.13458,3.616394986596432,0.1509194977434722
6.139163999999999,3.623590462177616,0.1507218564523615
6.143756,3.633850795244179,0.1504075774168927
6.148344,3.6488526699772734,0.1499341210193285
6.152923999999999,3.6651205333004513,0.1493924963145984
6.157511999999999,3.681999320194359,0.1487930375876699
6.162087999999999,3.704108387611379,0.1479899820446164
6.166671999999998,3.7318142896939497,0.1469399527875025
6.171259999999998,3.756044638700075,0.1459653985174417
6.1758479999999984,3.777698869077403,0.1450560665445106
6.180444,3.794733742502344,0.1442787870117104
6.185027999999999,3.808825943156052,0.1436098183230963
6.189623999999999,3.825738631866849,0.1428725500062779
6.194199999999999,3.838564843930471,0.1422945156648259
6.198799999999999,3.852412675155888,0.1416933770700686
6.203384,3.867937190562453,0.1410619699534568
6.207984,3.8830951518265824,0.1404783404539668
6.212567999999999,3.894821701462894,0.1400377267819244
6.217163999999999,3.90528226250912,0.1396605772899856
6.221755999999999,3.920728734650169,0.1391237657404425
6.226351999999999,3.942427106476124,0.1383638974884648
6.230939999999999,3.9633482285685777,0.1376251110088449
6.235531999999999,3.9803050587280016,0.1370112019830783
6.240136,3.998816388354432,0.1363920569936335
6.244731999999999,4.016061729390775,0.1358347377454941
6.249324,4.029997843513447,0.1354105168695281
6.253924,4.040502546008303,0.1351295480763711
6.258503999999999,4.04757583687534,0.1349886632302697
6.263095999999999,4.0626218530570615,0.1346919990949066
6.267683999999999,4.081021237601084,0.1343493986745804
6.272276,4.105716663278641,0.1338770499653062
6.276859999999999,4.131555892832138,0.1333627392242705
6.281447999999999,4.153553015166751,0.1329576652129178
6.286047999999999,4.179270060006102,0.1324762840540249
6.290623999999999,4.203066051236012,0.1320533513830727
6.295219999999999,4.228128031056006,0.1315829969734498
6.299803999999998,4.254988879771296,0.1310864061120634
6.304391999999998,4.288345997599784,0.1303850863701784
6.308987999999999,4.319371366227765,0.1296897778055429
6.313571999999999,4.346554627636864,0.1290940138957136
6.318167999999998,4.369651412398788,0.1286208320421225
6.322759999999999,4.391360023856483,0.1282149353561795
6.327359999999999,4.416377862227849,0.1277006504191907
6.331951999999999,4.437265082503412,0.1272357788094138
6.336531999999998,4.458763226349704,0.126712530240387
6.341131999999998,4.476252936814339,0.1262154347584763
6.345719999999998,4.495619559439788,0.1256108256528233
6.350315999999999,4.515597105635965,0.1249489012501553
6.354903999999999,4.527846295945749,0.1244053188124876
6.359499999999999,4.536864302607378,0.1238946987619895
6.364087999999999,4.541096626153848,0.1234241804360582
6.36868,4.543652265519168,0.1229737539706835
6.373275999999999,4.548495512636367,0.1224497218230204
6.377871999999998,4.547164903334177,0.1220218372615745
6.382459999999998,4.544401979279128,0.1215900407207261
6.387051999999999,4.5363646332523375,0.121234927434286
6.391639999999999,4.522519984948594,0.1209371802090041
6.396227999999999,4.50561047915947,0.1207151572023045
6.400815999999999,4.490622026979787,0.1204520417873819
6.405411999999998,4.477143932818483,0.1201162359132502
6.410003999999999,4.466075631123201,0.1196940877346585
6.414596,4.456517687446295,0.1192015290219037
6.419179999999999,4.446715374341098,0.1187320375440158
6.423767999999999,4.438956299559488,0.1182105298746691
6.428363999999998,4.431319409492024,0.1176775347710258
6.432955999999999,4.429978560558094,0.1170456798216601
6.437543999999999,4.42712735360579,0.1164851209499887
6.442139999999998,4.425952830834633,0.1159117555297032
6.446727999999999,4.425555557796979,0.115331217838872
6.451336,4.424014480883387,0.1147835947099122
6.455924,4.424805153170301,0.1142292769708881
6.460524,4.429437932676098,0.113603857794272
6.465115999999998,4.430106420248866,0.1130647122114409
6.469703999999998,4.435272080059874,0.1124607240972114
6.474295999999999,4.438927381852505,0.1119220399777687
6.478876,4.448878724778671,0.111293449094113
6.483471999999999,4.464881739410081,0.1105982622622515
6.488052,4.4807625693273465,0.1099195562575419
6.492647999999999,4.500118952321056,0.1092070918700228
6.49724,4.520541095925187,0.1085419488584027
6.50184,4.53843126234915,0.10796919751311
6.506431999999998,4.555055440183026,0.1074454270278215
6.511028,4.573356302198055,0.1069162575177462
6.515604,4.592967294251793,0.106411736364943
6.520195999999999,4.615032220220185,0.1059022075919388
6.524795999999999,4.639917634245667,0.1053630882334822
6.529387999999999,4.667623536328238,0.1047882256868736
6.533968,4.693041830658931,0.1042804239059938
6.538551999999999,4.722957297227861,0.1037243087493023
6.543139999999999,4.759413174358619,0.1030836060391596
6.547732,4.797545735670528,0.1024431605642241
6.552323999999999,4.833512873944703,0.1018648326504238
6.556915999999999,4.875120988333057,0.1012151140087602
6.561508,4.91480804911197,0.1006015105250884
6.566095999999998,4.958459401823911,0.0999207459085489
6.570687999999999,5.001866385107561,0.0992757518236763
6.575271999999998,5.043352314781768,0.0986694415600446
6.579859999999998,5.0812405066653845,0.0980980165499286
6.584455999999999,5.120639056567377,0.0974881891919142
6.589044,5.162447398935393,0.0968274937193866
6.593632,5.207320598788791,0.0961158759500623
6.598227999999999,5.253992667537484,0.095393123046209
6.602815999999999,5.29694481378144,0.0947182911517989
6.607408,5.337320841396598,0.0940620487874556
6.611996,5.375898000116462,0.0934325025661837
6.616599999999998,5.409733617169794,0.0928718568589681
6.621179999999999,5.441525995899539,0.0923515919303854
6.625779999999999,5.47536161295287,0.0918008999739499
6.630363999999998,5.511118283615644,0.0912410447976808
6.634963999999998,5.54201122789774,0.0907522056579041
6.639548,5.567385380779804,0.0903156109910425
6.644139999999998,5.592881718376015,0.0898740070794479
6.648731999999999,5.611715460696253,0.0895093588161056
6.653324,5.633614060501872,0.0891031551644561
6.657915999999998,5.656534279469283,0.0886885782026474
6.662507999999999,5.676101130074396,0.0882871272486029
6.667091999999999,5.69615671953609,0.0878565592064129
6.671688,5.7246737731690525,0.0873492164613159
6.676276,5.7471832965454,0.0869255497301254
6.680867999999999,5.765317832397653,0.0865299720385558
6.685455999999999,5.779976815173458,0.0861515431827565
6.6900559999999984,5.793203483196407,0.0857634967723123
6.694647999999999,5.812559866190118,0.0852985159450382
6.699228,5.837024344992795,0.0847717618696987
6.703819999999999,5.860711574061972,0.0842457971436137
6.708407999999999,5.883865922825935,0.0837027528722746
6.712999999999999,5.905710141551187,0.0831406848125856
6.717583999999999,5.926366414951871,0.0825549968178146
6.722171999999999,5.938683408895433,0.0820335448882777
6.726763999999999,5.950711891962077,0.0814788314295973
6.731356,5.969769524447129,0.0808454763003374
6.735943999999998,5.987272657465176,0.0802087992262612
6.740539999999999,6.008984451844543,0.0795135263968434
6.745119999999998,6.02595470455738,0.0788614017581409
6.749719999999998,6.03752835058433,0.0782396049879457
6.754299999999999,6.04987924634478,0.0776211737999193
6.758899999999999,6.059942534353353,0.0770441385082507
6.76348,6.062033097047241,0.0765041280184163
6.768079999999999,6.06526746361707,0.0759426220347342
6.772663999999999,6.0671136568826665,0.0754142247083984
6.777259999999998,6.074600826262442,0.0748480208317372
6.781851999999999,6.080166942032776,0.0742973862630294
6.786444,6.077271593631842,0.0738081180946289
6.791032,6.0686130844025845,0.0733665563271232
6.795627999999999,6.061753444068622,0.0729185188736006
6.800215999999999,6.058491541525251,0.0724570699984786
6.804799999999998,6.055107454267734,0.0720020497516206
6.809387999999998,6.050457378420133,0.0715724600731179
6.813987999999998,6.04977159450556,0.0711043279879986
6.818575999999998,6.048597071734404,0.0706649530895957
6.823172,6.041537203420778,0.070276968610277
6.827767999999999,6.034232965678862,0.0699025915547716
6.832355999999999,6.027583792956302,0.0695410964986782
6.836948,6.024898912166771,0.0691453181978243
6.841527999999999,6.025933953881976,0.0687292827915003
6.846119999999999,6.029134418634914,0.0682875134287219
6.850703999999999,6.037320794482674,0.0678053692516748
6.855291999999999,6.0506594075880304,0.067322378494663
6.859883999999999,6.069638996807565,0.0668140816653892
6.864476,6.091561258798334,0.0662840144462587
6.869067999999999,6.110418663303721,0.065789460765168
6.873659999999999,6.133528870619059,0.065298488045091
6.87824,6.163179488496223,0.0647784677303926
6.882835999999999,6.195528409716328,0.0642530069606241
6.887411999999999,6.22632283146943,0.0637236227574869
6.892011999999999,6.256095634060738,0.0632106999721949
6.896595999999999,6.292531031928018,0.0626705814087385
6.901195999999999,6.33256416758589,0.0621270545515714
6.905783999999999,6.374273987424911,0.0615918344338518
6.910375999999999,6.419293034177605,0.0610218294078272
6.914971999999999,6.46815418814918,0.0604344309211946
6.919567999999998,6.523677937396729,0.059823595235288
6.924155999999998,6.580223305806071,0.0592140622134039
6.928747999999999,6.636646489501268,0.0586210382882013
6.933328,6.69486854209176,0.058034018743004
6.937911999999999,6.7511695410728105,0.0574641531562221
6.942499999999999,6.803628432834978,0.0569209665098737
6.947099999999999,6.853266836540058,0.0563932942687901
6.951683999999998,6.897386448845103,0.0558868886240763
6.956275999999999,6.94457091863553,0.0553666876794769
6.960868,6.990445258387243,0.0548276975654794
6.965447999999999,7.033210599204948,0.0542722116678538
6.970044,7.0708678442136845,0.0537551180105432
6.974632,7.107503470060628,0.053247827552559
6.97922,7.142750922603341,0.0527676440773273
6.983811999999999,7.172723953174312,0.0522870402394322
6.988403999999999,7.193091715698078,0.0518470059405219
6.992991999999999,7.208062871535956,0.0514119360130087
6.997587999999999,7.220580093459182,0.0509684839260918
7.002175999999999,7.230154642611172,0.0505407529240478
7.006772,7.234865465382486,0.0501331684301908
7.01136,7.2272727167636495,0.0497598668838041
7.015955999999999,7.210974134545255,0.0494178682629104
7.020543999999999,7.188012957050888,0.0490939856764639
7.025136,7.16031023788999,0.0487826611697004
7.029724,7.1276216076342696,0.0484936301785072
7.034327999999999,7.089169816550227,0.0482207701490597
7.038924,7.044177614904356,0.0479579704014031
7.043524,6.995098936611313,0.0477168214531144
