Time,Force,Position
6.913411999999999,2.73821044774778,0.1610788595428943
6.922616,3.040300310043472,0.1610651236126223
6.927211999999999,3.182540885062764,0.1609759342433443
6.931796,3.3206406023545143,0.1606722101980386
6.936392,3.446504551889893,0.1605186468202049
6.940979999999998,3.5669616551076464,0.1602248948081132
6.945579999999998,3.6890852028748102,0.1595489814351373
6.950159999999999,3.800815993229527,0.1591197089243304
6.954759999999999,3.9057076225137592,0.1586224538119615
6.959348,4.007069317641178,0.157857921153821
6.963944,4.099137917783461,0.157134307679151
6.968531999999998,4.178315685150015,0.1565145789492372
6.973124,4.254985137521551,0.1556720408165419
6.977724,4.324038179089099,0.1548274956023888
6.982315999999999,4.386907124605519,0.1539509742097046
6.986903999999997,4.441837246624144,0.1531402625567036
6.991496,4.490549370774751,0.1524068125965352
6.996087999999999,4.535331104809219,0.1516561505985277
7.000672,4.576060264013403,0.1509017922204588
7.005259999999998,4.6187443786439175,0.1499585927850412
7.009852,4.653411626511119,0.1491282966396301
7.014435999999998,4.687091157033415,0.1482083153332957
7.019015999999999,4.714674874401841,0.1473490308220097
7.023607999999998,4.736940028349896,0.1465450419886942
7.028195999999999,4.76402476723,0.1455617571393067
7.032780000000001,4.788611430746823,0.1445568131487243
7.037380000000001,4.80722446582392,0.1436046043913116
7.041967999999999,4.823583794966028,0.1426111347342307
7.046567999999999,4.835401810421268,0.1416487346293105
7.051159999999998,4.843455761923145,0.1407132499190114
7.055748,4.843781357538625,0.1398996850517328
7.060352,4.843696257563042,0.1390548311954373
7.064952,4.834861182539271,0.138368107917425
7.069543999999999,4.817153947753169,0.1378438968073611
7.0741359999999975,4.796870594338268,0.1373581251695247
7.078743999999999,4.77478837202807,0.1369034648935172
7.083319999999999,4.760268179441493,0.1362759226460124
7.087919999999999,4.748201920769569,0.1356180178566214
7.0925080000000005,4.738589596012296,0.13493049039656
7.097111999999997,4.726811848217292,0.1343102205819473
7.101691999999998,4.721452326269966,0.1335635091023393
7.10628,4.71331645771418,0.1329372640756946
7.110860000000001,4.7093112072541965,0.1322627753748007
7.115451999999999,4.709192205461724,0.1315654929149181
7.120043999999998,4.703476369003702,0.131047489265539
7.124636000000001,4.69714960897495,0.1305819127969667
7.129223999999999,4.6938096631660615,0.1301104629711693
7.133819999999998,4.689614424358155,0.1297140229987498
7.138408,4.690327053379551,0.1292708386061152
7.142999999999999,4.69570318080196,0.1288055454027767
7.147588000000001,4.710606533006059,0.1282101363362764
7.15218,4.72849669943002,0.1276104375233259
7.156771999999998,4.750150929807347,0.126996771197418
7.16136,4.781210200252219,0.1262616883158118
7.165943999999998,4.812069242717426,0.1256066928124701
7.170527999999999,4.847713968297792,0.1249184293887014
7.175115999999997,4.876618055336669,0.1244449190048294
7.179708,4.908631141309555,0.1239680343492958
7.184295999999998,4.9415878031787175,0.1235419520576427
7.188895999999998,4.9744664217823615,0.1231848089433429
7.193488,5.008532985710572,0.1228643888234566
7.198088,5.045586363858646,0.1225394842025592
7.202679999999999,5.081906633721847,0.1222797232303683
7.207271999999998,5.114018242223727,0.1221242989565019
7.211864,5.149483219087908,0.1219349829527548
7.216455999999999,5.18715776043845,0.1217438141707445
7.221043999999997,5.22434356293241,0.1215985888398817
7.225636,5.263572603749955,0.1214097833094909
7.23024,5.300514036815623,0.1212897718836809
7.234831999999999,5.338354904328939,0.1211670200536311
7.239427999999998,5.372475849337517,0.1211087968036003
7.244012,5.407374044079598,0.1210503671591208
7.248607999999999,5.443416042697618,0.1209624932719375
7.253203999999998,5.477781357134488,0.1208956828252931
7.257799999999998,5.5173769520944695,0.12071872290759
7.262399999999998,5.556195297320951,0.120548986277535
7.266996000000001,5.597545619727602,0.1202987885968249
7.271583999999999,5.632599901000717,0.1201312062983035
7.276168,5.667732225539351,0.1199080001852471
7.280759999999999,5.703964212505295,0.1196058067782313
7.285344,5.7356548857843705,0.1193144690041994
7.289923999999997,5.768933960347341,0.1189173198492875
7.294516,5.801636013156472,0.1184580812766229
7.299107999999999,5.8400570853453,0.1178642035337543
7.303687999999999,5.875857897456701,0.1172480007184937
7.308272,5.913002741423706,0.1165458849158731
7.312859999999999,5.944462467827903,0.115871318345726
7.317444,5.9735904450315935,0.1152065455544034
7.322039999999999,6.002918650214948,0.1144785936451098
7.326631999999998,6.025662303387847,0.1137947973083588
7.33122,6.048483999826265,0.1130578048898547
7.335815999999999,6.068807620901402,0.1122899642081251
7.340400000000001,6.089087100527911,0.1114811467733193
7.345003999999998,6.103681462591613,0.1106982521836775
7.349583999999998,6.11222415295007,0.1099705426770392
7.354179999999998,6.1157367907650775,0.1092723706390491
7.358759999999998,6.1172842335220174,0.1085529567578963
7.363351999999997,6.1207085884397685,0.1077561006188586
7.367931999999998,6.121679009442868,0.1069733208033399
7.372527999999997,6.12121711569311,0.1061857288157012
7.37712,6.118834168333909,0.105420717382515
7.3817119999999985,6.108522637108651,0.1047737685328534
7.386311999999998,6.095268433112159,0.1041666573152003
7.390903999999997,6.076373253001488,0.1036275420956046
7.395479999999997,6.056334269014878,0.1031103488778138
7.400072,6.031309373933445,0.1026651281086731
7.404659999999998,6.01229200910863,0.1021269066831232
7.409255999999997,5.990331971512578,0.1016262561907588
7.413831999999997,5.968127564488236,0.1011399037465472
7.418411999999998,5.943391180283724,0.100715293360756
7.423004000000001,5.916000634184897,0.1003625128709879
7.427591999999999,5.889142968391281,0.1000227154935236
7.432187999999998,5.85987551013164,0.0997371803861673
7.436776,5.836781908291387,0.0994013429479917
7.441352,5.814465556184638,0.0990634530090123
7.445956000000001,5.798445245211424,0.0986692047709223
7.450543999999999,5.784390129296279,0.0982992676041992
7.455132000000001,5.771400773991555,0.097961996095971
7.459719999999999,5.760620983173192,0.0976341365724275
7.464315999999998,5.749640964375166,0.0973709427304371
7.468911999999998,5.74536768230174,0.0970813180534607
7.473508000000001,5.747268256647703,0.0967469404562213
7.478099999999999,5.752033460499385,0.0964307077892416
7.48268,5.7597854785709295,0.0961258839764425
7.48728,5.771790299452422,0.0958019424456115
7.491856,5.789846792039159,0.095445008030928
7.496456,5.806026372465082,0.095163280172432
7.501047999999999,5.830056493491544,0.094835214934647
7.505643999999998,5.857972863185516,0.0945170754288386
7.510235999999997,5.8933290778889615,0.094125574084074
7.514828,5.932283030383,0.093706029844641
7.519423999999999,5.974345981811047,0.0932971887199011
7.524019999999998,6.0179634327060985,0.0928916606609612
7.528612000000001,6.059171091135126,0.0925450423095158
7.533204,6.104631552374101,0.0921861034466026
7.537791999999998,6.150991448060724,0.0918315834642273
7.542388000000001,6.200294016518581,0.0914504406063594
7.546975999999999,6.254582496071263,0.0910198482702803
7.551567999999998,6.305928302852707,0.0906250914591599
7.556151999999999,6.362504390157266,0.0901623947550089
7.560739999999997,6.413806055490082,0.089733186520796
7.565336,6.464330471089397,0.0893076522461846
7.569915999999997,6.516609614135381,0.0888304045115429
7.574503999999999,6.566801377409147,0.0883369971398931
7.579091999999997,6.614539206768263,0.0878518598466015
7.583679999999999,6.657902048603284,0.0873920866563397
7.588275999999999,6.70391905233262,0.0868784307804853
7.59286,6.746949241842094,0.0863598506249876
7.597447999999998,6.783639248769404,0.0858382813850416
7.602047999999998,6.822083983143382,0.0852744745532476
7.60664,6.862161260249882,0.0846728322858701
7.611231999999999,6.8973306695270775,0.0840768129572187
7.615819999999998,6.935154240698589,0.0834314714485498
7.620419999999997,6.971912051259677,0.0827568649240312
7.625007999999999,7.004417059010818,0.0820968745624528
7.629607999999999,7.031525460076072,0.081468300102831
7.634199999999998,7.052337820007792,0.0808734664353864
7.638799999999998,7.062889846872948,0.08034831505063
7.643395999999997,7.075851666204128,0.0797827855852722
7.647995999999997,7.084438498011215,0.0792370530219953
7.652588,7.093758438103174,0.078652112186261
7.6571799999999985,7.100746628994628,0.0780600263640942
7.661771999999997,7.106835385438434,0.0774758265421417
7.666364,7.115866814653475,0.0768698939054219
7.670951999999998,7.124120994135014,0.0762617153798068
7.675547999999997,7.136583834977872,0.0756104547209029
7.680135999999999,7.143283514992406,0.075001405400073
7.684727999999998,7.145486022768703,0.0744088071680879
7.689307999999999,7.149898095031359,0.0738302107708238
7.693899999999997,7.144460529818516,0.073329253295749
7.698492,7.1362024765485845,0.0728464504072279
7.703072000000001,7.129743292173949,0.0723562856447577
7.707672,7.119319815866285,0.0718985772731016
7.712259999999999,7.107752535682682,0.0714547228588748
7.716851999999998,7.094508571317928,0.0710082272194431
7.721435999999999,7.084085095010264,0.0705459220241225
7.726024000000001,7.076359922045542,0.0700732670691816
7.73062,7.074275725195001,0.0695685535475287
7.735207999999998,7.072968778077961,0.069069877081015
7.739796,7.069618592637333,0.06858854735074
7.744391999999999,7.066556918073625,0.0681358478889684
7.748987999999999,7.067748046319867,0.0676837558987213
7.753591999999999,7.068694805137816,0.0672459591908089
7.758179999999998,7.067476140918032,0.0668333892745639
7.762783999999998,7.068056345593545,0.0664166115060311
7.767372,7.06430570419359,0.066047354054321
7.771972,7.064274985298374,0.0656623946371785
7.776555999999998,7.072994241451344,0.06526959276315
7.781155999999997,7.085799974251489,0.0648474104458168
7.785739999999999,7.108743855404053,0.0643905428097714
7.790339999999999,7.132220616861825,0.0639522991074023
7.794924,7.157496247214896,0.0635135182506256
7.799515999999999,7.182405323425529,0.063092986866612
7.804104000000001,7.214876429359779,0.0626446592475982
7.808695999999999,7.254543010875214,0.062186066392837
7.8133,7.296130646000091,0.0617243093070477
7.817891999999999,7.34041658446791,0.0612619927266173
7.82248,7.387523010992818,0.0607961880211197
7.827067999999999,7.433607818355934,0.0603427140127979
7.831652,7.484311982671433,0.0598797952725031
7.836252,7.53987987336761,0.0593991093210287
7.840839999999998,7.5965915679397265,0.0589143127407053
7.845439999999998,7.651382208902401,0.0584402441020139
7.850032000000001,7.709115522636311,0.0579569629167519
7.854615999999998,7.767503901389576,0.057488606395405
7.859211999999998,7.8292015070565135,0.0569930174073153
7.863799999999999,7.895640654389983,0.0564907799430673
7.868391999999998,7.9586042486470046,0.0559961297843703
7.872987999999998,8.016704116523352,0.0555288506063757
7.877575999999999,8.072472235199191,0.0550563299462641
7.882171999999999,8.127707473569819,0.054572292329732
7.886760000000001,8.180122223883359,0.0540995168826794
7.891343999999998,8.234702397234631,0.0536114367768995
7.895951999999999,8.280821106414637,0.0531508153643361
7.900536000000001,8.319499970585166,0.0527089007592615
7.905132,8.351516239479727,0.0522883278597008
7.909719999999998,8.380301324726132,0.0518575383013705
7.914312000000001,8.39858170747768,0.0514577141549203
7.918891999999998,8.412242733276845,0.0510647995327498
7.923491999999998,8.418341729352392,0.0506905738313866
7.928075999999999,8.414957642094873,0.0503412880392027
7.932675999999999,8.399269983447207,0.0500204983976115
7.93726,8.381783455904245,0.0496986706907529
7.941856,8.355468910047577,0.0494094563369733
7.946443999999998,8.32298050777152,0.0491150185500099
7.951039999999997,8.282441336915262,0.0488570636368692
7.955627999999999,8.224490498859886,0.0486536493243899
7.960219999999998,8.156034958309654,0.0484764077830441
