Time,Force,Position
10.69222,4.0193360835390015,0.1628227355118108
10.69682,4.305666609764857,0.1590758456676248
10.701408,4.573166576592148,0.1562642926114054
10.706008,4.819792745697288,0.1542142683625391
10.7106,5.044445454652964,0.1526980158050438
10.715196,5.25149969098327,0.1513544147305346
10.719784,5.444386866316024,0.1500280686037976
10.724376,5.613213201727101,0.14895367927295
10.728976,5.761698619721236,0.1479828742618412
10.733568,5.889598750870139,0.14715862009333
10.738155999999998,5.9924605643841975,0.1465541206421846
10.742744,6.082998327244629,0.1458966686196574
10.747336,6.158269366680197,0.1452466776809823
10.751931999999998,6.218762421547486,0.1445855942710242
10.75652,6.261001938770047,0.1439567107326646
10.761112,6.285931494244157,0.1433917677495619
10.765707999999998,6.295516283027888,0.1428863218090044
10.770296,6.292865304055246,0.142417156590414
10.774892,6.2804766326895125,0.1420017671318939
10.77948,6.249322022637319,0.1418671998105989
10.784064,6.21857810817619,0.1417501957514182
10.788656,6.192008953259491,0.1416362071255059
10.793244,6.165894635382486,0.1415882989437649
10.797852,6.143466338193329,0.1415767095670562
10.80244,6.129421461909923,0.1414721907496787
10.807032,6.120040084027528,0.1413384546563915
10.811624,6.111235727898974,0.141262157076378
10.816224,6.111714227123818,0.1410827529853148
10.82082,6.115468051445443,0.1409211994371868
10.82542,6.119432343378471,0.140842884720161
10.830011999999998,6.134967098416776,0.1406010252371718
10.8346,6.14682607239897,0.140465884774646
10.839196,6.165758337248202,0.1402359828041504
10.843784,6.184979112974354,0.1400380638396457
10.848384,6.2075973985114326,0.1398509231325585
10.852972,6.2336131938594415,0.1396755175045038
10.857572,6.265436291484402,0.1394429546541006
10.862156,6.303433245528753,0.139136882673471
10.866752,6.341308014858958,0.1388432031705551
10.871339999999998,6.387522063646284,0.1384238435122651
10.875932,6.43798891524356,0.1379693208196334
10.88052,6.491031885469633,0.1374901214988555
10.885115999999998,6.546895343752795,0.1369653869881552
10.889704,6.599405433673659,0.1364724875299913
10.894291999999998,6.645375113032695,0.1360859228197455
10.898872,6.691589161820023,0.1356891070140871
10.903467999999998,6.740090818359228,0.1352440239560511
10.908056,6.783728748517759,0.1348872446394958
10.912648,6.829532101714021,0.1344872062693604
10.917243999999998,6.88158735459519,0.1339704774145012
10.921832,6.927879446648035,0.1335529496132904
10.926432,6.979524003938138,0.1330250211023976
10.931019999999998,7.02229640146591,0.132605394742465
10.935616,7.063636484240823,0.1321883024328819
10.940208,7.104688056138816,0.1317476388462059
10.944795999999998,7.145817671302327,0.1312640938938052
10.949408,7.186248079997852,0.1307443669425493
10.953995999999998,7.219072317521131,0.1302982799415514
10.9586,7.251608044167489,0.1298305175323385
10.963188,7.275271611051515,0.1294616962741479
10.967776,7.289774507296287,0.1291636281886244
10.972371999999998,7.301290589321198,0.1288717316616152
10.976964,7.312884714611625,0.1285352099453304
10.98156,7.325456317615217,0.1281409952645941
10.986136,7.340271386922059,0.1276584543128604
10.990736,7.353610000027416,0.1271384646553958
10.995323999999998,7.360119691694025,0.1266761027030607
10.999928,7.365930176892649,0.1261686973258571
11.004512,7.369775467033204,0.1256506891849207
11.009112,7.364992966839717,0.1252083854813096
11.013708,7.362209563521189,0.1246944379214283
11.018304,7.352475054049769,0.1242404793175708
11.022899999999998,7.348625890120819,0.1237015294040036
11.027492,7.343100042010721,0.1231732719781505
11.03208,7.339739616938355,0.1226083736859746
11.036672,7.326773923818781,0.1221674939858741
11.041251999999998,7.309721754052034,0.1217909123909849
11.045844,7.293324649304643,0.1214177928838701
11.050432,7.272963252624223,0.121101490864375
11.055012,7.256077409020249,0.1207542652303018
11.059608,7.245121052407373,0.1203620919837485
11.064196,7.236740814423296,0.1199495503448047
11.068788,7.224684795383109,0.1196201278122564
11.073375999999998,7.212917287219842,0.1193160714249757
11.077968,7.201971170238704,0.1190499737879722
11.082556,7.190824825277906,0.1188372871712183
11.087136,7.185730152022349,0.1185763792575367
11.091727999999998,7.186975661348956,0.1182955889314098
11.096316,7.18773243181898,0.1180427694229158
11.100903999999998,7.196095373461252,0.1177415596991167
11.1055,7.203603022104504,0.1174898975191225
11.110096,7.220760080243592,0.1171614492352162
11.114692,7.241148322030835,0.116826871070024
11.119268,7.263746128304438,0.1164946965046101
11.123868,7.28303470766437,0.1162230907861085
11.128455999999998,7.317202977043251,0.115797355763517
11.133055999999998,7.352559191746697,0.1153868877584327
11.137636,7.392168209260093,0.1149531826432523
11.142236,7.440893755964112,0.1144387093234512
11.14682,7.491418171563426,0.1139117403322057
11.151416,7.54361927134389,0.1133842471585935
11.156007999999998,7.597497055305505,0.1128575340293542
11.160604,7.660857922600181,0.1122378891081992
11.165192,7.730514831028392,0.1115769210392283
11.169783999999998,7.8001717394566015,0.110921607086244
11.174376,7.869706463170667,0.1102747885478896
11.178959999999998,7.93821956772294,0.1096503300388204
11.18354,8.000314446427529,0.1090878952603859
11.18814,8.063841639884979,0.1085330196815772
11.192728,8.12095060749475,0.1080373982386849
11.197316,8.178181759818663,0.1075382071941569
11.201908,8.23091573990434,0.1070822822469524
11.206496,8.27825311330413,0.1066737272434351
11.211087999999998,8.3260792255605,0.1062435039672963
11.215676,8.37619294556875,0.1057794942219969
11.220263999999998,8.420254993871755,0.1053595712010544
11.224872,8.466193954335573,0.1048874955073968
11.229463999999998,8.50722504697009,0.1044326963601881
11.234056,8.53938397984227,0.104038548381218
11.238644,8.57305327073283,0.1036145772091563
11.243232,8.601570324365792,0.1032174492414172
11.247828,8.626734009636454,0.1028363277729713
11.25242,8.642903350430638,0.1025174806225735
11.257012,8.651588704766722,0.1022243964706191
11.261596,8.655488375987643,0.1019365630250439
11.266196,8.658444471312292,0.1016207839304599
11.270784,8.657147763826988,0.101321462246613
11.275384,8.658627402950147,0.1009663025108566
11.279967999999998,8.656342978119945,0.100604790703238
11.284567999999998,8.65851158407935,0.1001823941687281
11.289152,8.660391679161835,0.0997383957266881
11.293748,8.661616709224965,0.0992895166628767
11.298356,8.661287239821089,0.0988396194996443
11.302952,8.658503836502563,0.0983944703113375
11.30754,8.651345445659942,0.0979699139951701
11.312136,8.637402274827203,0.0976025680529192
11.316728,8.624602907870404,0.0972194159173122
11.321328,8.609882487304166,0.0968500111079162
11.325916,8.597205305061511,0.0964575721508384
11.330504,8.577865527542887,0.0961170053525219
11.335092,8.556971250557257,0.0957733294522321
11.339688,8.530558182171596,0.0954639897202818
11.344288,8.504756037356662,0.0951242383052429
11.34888,8.476011219770491,0.094808461912707
11.353464,8.446244783022529,0.094500719998736
11.358044,8.414679477379272,0.0942006496517446
11.36264,8.386301213935539,0.0938602620359552
11.367223999999998,8.350238736054044,0.0935807661958604
11.371816,8.316097311781988,0.0932827649919988
11.376408,8.272350619462724,0.0930616444252511
11.380999999999998,8.227460123267521,0.0928543599581987
11.385608,8.180892942891166,0.0926486281982417
11.390196,8.136246816124254,0.0924247150706978
11.394784,8.094298992700285,0.092183506674734
11.399388,8.055704537638617,0.0919325949125475
11.403972,8.028636404233595,0.0915883988519732
11.408568,7.999280663076696,0.0912754989807551
11.413156,7.975321528605685,0.0909335865856154
11.417756,7.953039078315824,0.0905872416888173
11.422336,7.935131615550055,0.0902225854167797
11.426936,7.925074693384826,0.0898286931257435
11.431524,7.922868311820137,0.0894046027567206
11.436124,7.919440083113991,0.0890364614832103
11.440716,7.921941341398942,0.0886531218349266
11.445312,7.933969824465583,0.088238780129943
11.4499,7.953604478704473,0.0878105580432977
11.454492,7.974304893553783,0.0874105905431596
11.459096,8.00489908732722,0.0869627599174023
11.463692,8.037458476158728,0.0865385833779517
11.468279999999998,8.08465318558089,0.0860368108631526
11.472876,8.134179644203561,0.0855422056937061
11.477464,8.187958905636181,0.08504220308075
11.482048,8.243048297107515,0.0845608215354189
11.486636,8.301368872227002,0.0840879851057999
11.491231999999998,8.35854564347055,0.0836329140633335
11.495816,8.408693265295687,0.0832454339298212
11.500396,8.459373767426037,0.0828724612009473
11.504992,8.510831519289889,0.0825062344001074
11.509568,8.564743205068392,0.0821451755902802
11.514164,8.619554325294546,0.0817838859886328
11.51876,8.669623903854168,0.0814558049586082
11.523348,8.721858905451523,0.0811109461152209
11.527959999999998,8.782022490914935,0.0807097361991344
11.532548,8.847171987473168,0.0802790357599229
11.537136,8.911011353992688,0.0798436074946257
11.541731999999998,8.970353548273966,0.0794305209273387
11.54632,9.03186116559298,0.0790016060894942
11.550924,9.093490967626137,0.0785755086559367
11.555516,9.156508942963528,0.0781311105261103
11.560108,9.212331442719735,0.0777181595808098
11.564696,9.268642681332526,0.0772899570784745
11.569296,9.323032866335874,0.0768763150012882
11.573876,9.377911790195803,0.0764475027781574
11.57848,9.427760661512284,0.0760249465338334
11.583072,9.48001932529479,0.075576338612453
11.587672,9.532644543219732,0.0751137761514772
11.592268,9.583548935514894,0.0746225945949097
11.596863999999998,9.63326538248549,0.0741179069967205
11.601439999999998,9.675131288855546,0.0736274651353425
11.606036,9.715809249901035,0.0731217829185254
11.610628,9.75632088478375,0.0725916351508262
11.61522,9.787183110170634,0.0720800779237127
11.6198,9.808395926061678,0.0715870915886603
11.624384,9.814973421362067,0.0711398498170869
11.628972,9.812800941614269,0.0707053359539504
11.633572,9.805720594037163,0.0702637255640886
11.638163999999998,9.789645901983585,0.069842773946398
11.642752,9.765476299901172,0.0694400580432317
11.647344,9.734355591665867,0.0690429688622975
11.651924,9.698615526478182,0.0686584520755176
11.656515999999998,9.652492943509785,0.0683123516234573
11.661108,9.603383546321524,0.0679483119688867
11.665684,9.548100292713873,0.0675901578758576
11.670296,9.49114035492507,0.067227549025043
11.67488,9.431482113793328,0.066867794855278
11.679472,9.37116880764223,0.0664971204893365
11.684067999999998,9.31306506597749,0.0661367988929066
11.688656,9.252918085989164,0.0657863369319391
11.693252,9.197512647667368,0.0654144029170928
11.697843999999998,9.13916453657434,0.0650531817672941
11.702436,9.07685213354828,0.0647082429515685
11.707016,9.019691967779815,0.0643594038747088
11.711616,8.964985735926007,0.0640113311275747
11.716195999999998,8.923482509909995,0.0636149840940694
11.720795999999998,8.889707639780372,0.0632172143316519
11.725388,8.864272049107875,0.0627954352389235
11.72998,8.845376868997205,0.0623520087876604
11.734568,8.836864206667242,0.0618752591443014
11.739164,8.836446454366111,0.0613870339780229
11.743756,8.843590731788602,0.0608744438589503
11.748352,8.864304569191326,0.0603061562357954
11.752936,8.888005220813913,0.0597574263963702
11.757523999999998,8.917513174713454,0.059219603687012
11.762112,8.952173365870589,0.0586869453824387
11.766708,8.987244252618787,0.0581736321714206
11.771296,9.025790692443437,0.057663754301052
11.775892,9.067157620325167,0.057151384586329
11.780484,9.110323417102205,0.0566399658259637
11.785072,9.15414427889859,0.0561404152826246
11.789668,9.202340128219069,0.0556434243359508
11.794256,9.260551941177823,0.0551363057513228
11.798836,9.31786431968893,0.0546322916238037
11.803432,9.38057330488592,0.0541277873124301
11.80802,9.439073628721594,0.0536562524351147
11.812616,9.49385403005253,0.0531952288389724
11.817203999999998,9.539317674213178,0.0527866723104306
11.821792,9.585558568107327,0.0523863669242474
11.826396,9.622072009240126,0.0520215140375131
11.830992,9.653721723992248,0.0516753589354781
11.835588,9.681284962097196,0.0513508641914446
11.840179999999998,9.699775812460148,0.0510670582166861
11.844784,9.71401386001315,0.0507758544749709
11.849372,9.72387692004206,0.0504819158820146
11.853972,9.727077384795,0.0502033384224745
11.858564,9.728845534795076,0.0499117344249918
11.863164,9.723706720090894,0.0496432975710318
11.867748,9.70512053012062,0.0494074887986847
11.872348,9.679627375446085,0.0491939688897559
11.87694,9.651191548000314,0.0489891110045483
11.881536,9.61519369083092,0.0487974626936316
11.88612,9.564971208661936,0.0486333967342645
11.890712,9.512705488169368,0.0484766001891516
11.895304,9.450179434610234,0.0483324631631646
11.899896,9.376249244108598,0.0482102809100801
