Time,Force,Position
9.92742,4.228666579172367,0.1578868207645885
9.932016,4.3158036493001966,0.1576834578981142
9.936603999999996,4.39863353553771,0.1572255314733023
9.941196,4.474702303970257,0.1566371243829543
9.945783999999998,4.537102989893574,0.156164970094798
9.950379999999996,4.589799885240686,0.1556605018641286
9.954964,4.636024173659752,0.1550676202459636
9.959559999999998,4.6663369132663375,0.1547183032482848
9.964148,4.690387513556277,0.1543953997474259
9.96874,4.709163691874473,0.1541881278282687
9.973335999999998,4.729250000231382,0.1539837654770191
9.977924,4.7529340463788845,0.1537074800569413
9.982516,4.786223360573594,0.1531801573176476
9.987104,4.820944989521165,0.1526468579375763
9.991707999999996,4.853623380145147,0.1521763302965045
9.996292,4.881271718225677,0.1517923537985465
10.000876,4.90556668794391,0.1514648909130923
10.005472,4.9330486998616685,0.151036890614373
10.010063999999998,4.960775081207717,0.1505826777320184
10.014668,4.991077581182565,0.1500888903773688
10.019263999999998,5.023545504195146,0.1495343955490937
10.023839999999998,5.052660058845427,0.1490447625840866
10.028432,5.083040602085792,0.1485136472995344
10.03302,5.107780169211979,0.1481153378559268
10.037624,5.1321090407471,0.1476936871784321
10.042211999999996,5.155949173425639,0.1473195350905434
10.046808,5.174392699418292,0.1470511709513464
10.051387999999998,5.1938578445727375,0.1467502255913509
10.055984,5.2126679247078265,0.1464539538930031
10.060576,5.230822939823559,0.1461543281399169
10.06516,5.251265562691169,0.1457799926589692
10.069756,5.2651677749969545,0.1455477880440971
10.074348,5.274861325941419,0.1454391651602249
10.078948,5.28377762715238,0.1453369071685908
10.083539999999998,5.297924208886454,0.1450937997272188
10.088128,5.317833951448854,0.1447266999755644
10.092712,5.3423630509636375,0.1442731615160975
10.097287999999995,5.368691019373717,0.143799177337379
10.101887999999995,5.398494540860242,0.1432761499982701
10.106476,5.427276443184974,0.1427861020580925
10.111063999999995,5.451683357985611,0.1423678450860335
10.115656,5.475068653624454,0.1419762081294037
10.120243999999998,5.496777265082148,0.1416112578417614
10.124828,5.52052911486343,0.1411948823492867
10.129412,5.546857083273508,0.1407490966614284
10.134,5.571342041339664,0.1402829492014955
10.138604,5.60117946464308,0.1396802870195905
10.143191999999996,5.633671049840809,0.1389865298257907
10.14778,5.663464331695595,0.1383431362010989
10.152371999999998,5.697221905483409,0.1376241294820175
10.156964,5.728403360642425,0.1369421549393929
10.161556,5.764448542182119,0.1361605587001962
10.166152,5.800205212844892,0.1353495678230215
10.170751999999998,5.838249491259542,0.1344794999810117
10.175332,5.870652793560016,0.1337222240723798
10.179932,5.895616250851015,0.1330965609926321
10.184519999999996,5.918003589513216,0.1325108408908537
10.189119999999996,5.933850517613591,0.1320372434125688
10.193712,5.9472435117993125,0.131588648312994
10.198308,5.96022581039397,0.131121073357126
10.202892,5.974229728150421,0.1306317596109479
10.207484,5.984513723402135,0.130198633907329
10.212092,5.991977230596761,0.1298130609036011
10.216679999999998,6.00238341056262,0.1293745810671822
10.221279999999998,6.007515168556738,0.1290042332089869
10.225871999999995,6.012280372408419,0.1286598003003705
10.23046,6.016023957098306,0.128340820273484
10.235044,6.017602118750461,0.12807396371522
10.239623999999996,6.020201899564409,0.1277870139605783
10.244223999999996,6.017282888978325,0.1275818759958903
10.248812,6.018083800896978,0.1273214319556546
10.253403999999998,6.017085843920333,0.1270854180283681
10.257996,6.015843517515399,0.1268665176215727
10.262584,6.012557952786876,0.126688206440555
10.267175999999996,6.013114495277239,0.1264479757138779
10.271764,6.017390960272337,0.126152934282645
10.276351999999996,6.019746371657993,0.1258894353404618
10.280955999999998,6.028642193605474,0.1255304594465138
10.285544,6.038437450000603,0.1251617073604244
10.290144,6.045167848910353,0.1248516774819082
10.294736,6.053574932001251,0.1245293655505197
10.299324,6.070565663977563,0.1240750992292641
10.303916,6.093197372068053,0.1235415886429057
10.308503999999996,6.112764222673162,0.1230700695340455
10.313107999999998,6.13682824551651,0.1225448147446943
10.317688,6.16256895254101,0.1220065729663849
10.322288,6.184878247937693,0.1215520345584781
10.326879999999996,6.209352966372107,0.1210557262439311
10.331479999999996,6.231007196749432,0.120599546258915
10.336068,6.254338111307907,0.1201293704144255
10.340672,6.273826918647499,0.1197212523340764
10.345259999999998,6.296014029330035,0.1192861293555392
10.349855999999996,6.321021628069662,0.1188163052503952
10.35444,6.345129792361641,0.1183564694191156
10.359035999999998,6.362453176663503,0.1180002245096301
10.363624,6.378999311231863,0.1176477517001346
10.36822,6.400409172180897,0.1172250236784072
10.372811999999998,6.4163002417299015,0.1168725716000001
10.377411999999998,6.434234549602493,0.1164895042566751
10.382,6.455233714960466,0.1160537572088563
10.386587999999998,6.47467838085143,0.1156247527703564
10.391176,6.493590166437186,0.115192592864971
10.395772,6.506738791194619,0.1148409720606356
10.400363999999998,6.519354535646839,0.1144754806177662
10.404939999999998,6.530948660937265,0.1141293023446147
10.409535999999996,6.546629262874865,0.1137222211867516
10.414124,6.564841841992633,0.1132528130290023
10.418711999999998,6.5789679444632325,0.1128497335417487
10.423304,6.595259469971562,0.1124062635021548
10.427891999999998,6.613472049089332,0.1119403745607214
10.432484,6.633850051244836,0.1114362278225284
10.437072,6.651651934771542,0.1109545593641792
10.441663999999998,6.664179396326504,0.110517456112448
10.446248,6.6798939000809945,0.1100278348003624
10.450839999999998,6.701738118806244,0.1094429980734394
10.455435999999995,6.724726141407434,0.1088382617806032
10.460011999999995,6.742972622342092,0.1082942891756717
10.464611999999995,6.7644061454762765,0.1076975887025451
10.4692,6.77803326945855,0.1072011819336511
10.473804,6.790105893973819,0.1067080079517806
10.478387999999995,6.80025746487965,0.1062375758745367
10.482987999999995,6.803502071081214,0.1058606640221645
10.48758,6.809156469748803,0.1054310238300635
10.492171999999998,6.815832487578187,0.1049866501752873
10.496763999999995,6.819932386778774,0.1045580520817271
10.50136,6.816059560664674,0.1041925950498429
10.505956,6.806545758436396,0.103885902102685
10.510556,6.801118432855293,0.1035195398128006
10.515147999999998,6.793647868950602,0.1031820637321026
10.51974,6.78168013280767,0.1028818383356298
10.524315999999995,6.767669158341154,0.1026106439888062
10.528904,6.751859314979342,0.1023533047820472
10.533484,6.738625590246327,0.1020797740434844
10.538071999999998,6.72322644247558,0.1018424609223772
10.542664,6.707705109990688,0.1016118432287844
10.547252,6.689363289448705,0.1014086965248877
10.551843999999996,6.669466969439719,0.1012040764649738
10.556423999999998,6.65047008387838,0.1009909609003426
10.561012,6.638624532449596,0.1006779590674971
10.565604,6.629232914935463,0.1003584554432662
10.570192,6.6190640476878295,0.1000367800006477
10.574784,6.609017365154341,0.0997057414893411
10.579371999999998,6.597704694030769,0.0994026045077783
10.583968,6.590111945411932,0.0990659691820924
10.588571999999996,6.585706238992622,0.0986802152128467
10.593151999999998,6.586330585116762,0.098275377978223
10.597747999999998,6.596315829859818,0.0977840488277261
10.602336,6.605523824869371,0.0972960663448298
10.606932,6.621272230440751,0.0967530782379836
10.61152,6.642006547106952,0.0961518259986498
10.61612,6.663762482934947,0.0955379219246763
10.620703999999998,6.688216722105886,0.094906404302304
10.625296,6.716635253209854,0.0942363960980027
10.629884,6.747219207351555,0.0935386991556334
10.634479999999998,6.775759923169668,0.0928715714884679
10.639079999999998,6.808020561492516,0.0921770598457335
10.643675999999996,6.848498294558344,0.0914317114576743
10.648268,6.884767366262851,0.0907459377705956
10.65286,6.920669883824921,0.0900894643783464
10.657448,6.954651347777549,0.0894551619794024
10.66204,6.996972091187299,0.0887661984024283
10.666627999999998,7.046977049034815,0.0880149974422545
10.671224,7.100824114101213,0.0872359104888945
10.675816,7.147109149443993,0.0865222558789517
10.680403999999998,7.194049249806128,0.0858259606678978
10.684996,7.240334285148906,0.0851283713741341
10.689583999999998,7.282777213272801,0.0844739652949158
10.694175999999995,7.322033099197171,0.0838612269914097
10.698759999999998,7.356669628169155,0.0832857503432008
10.703348,7.390040168551056,0.0827400279418992
10.70794,7.42635338170419,0.0821743716744121
10.712531999999998,7.463688214019118,0.0816037334182362
10.71712,7.495382070219868,0.0810754636611033
10.721711999999998,7.525154872811177,0.0805662296428439
10.7263,7.556193663992571,0.0800376309323418
10.730896,7.587232455173964,0.0795149303422527
10.735483999999998,7.610831401345883,0.0790402341878236
10.740087999999998,7.638761193593267,0.0785160056169292
10.744663999999998,7.666158105535441,0.0779823951348695
10.749263999999998,7.694698821353555,0.0774358062191584
10.753852,7.71784293048578,0.0769175550222609
10.758452,7.734202259627888,0.0764504095310969
10.763035999999998,7.749007089302991,0.0759824721820898
10.767628,7.770474514254066,0.0754754016003892
10.77222,7.79116468947164,0.0749698183146668
10.776815999999998,7.80915656134627,0.0744746045274356
10.781404,7.828414421810986,0.073962982539364
10.785996,7.852658193370521,0.0734157762045506
10.790576,7.8773907037866415,0.07284833256299
10.795163999999998,7.902367583631053,0.0722731189713559
10.799752,7.922725106523079,0.0717203525032945
10.804344,7.938707641891011,0.0711766316268835
10.808935999999996,7.960575522801414,0.0705982279431858
10.813524,7.980766719530665,0.0700200302991468
10.818115999999998,8.00005848181227,0.0694473220308263
10.822704,8.016774125465075,0.0688789401425471
10.8273,8.03553300744147,0.0682949599682454
10.83188,8.05044978219898,0.0677334271853603
10.836467999999998,8.062179514756965,0.0672016023931174
10.841076,8.073254182295592,0.0666631477925055
10.845663999999998,8.085106099567723,0.0661301487007856
10.850272,8.100145059039379,0.0655697020286228
10.854863999999996,8.11506183379689,0.0650180987497717
10.859452,8.127280305211457,0.0644759579427509
10.864048,8.136678288568934,0.0639455870187661
10.868636,8.1488967599835,0.0634051275895422
10.873228,8.15433045140795,0.0628979450321558
10.877808,8.157310208917748,0.0623880344575368
10.882408,8.159923412285108,0.061895242497043
10.886995999999998,8.163436050100117,0.0614034862703335
10.891591999999996,8.170668610419863,0.06090145510174
10.896184,8.184197211873142,0.0603913832705887
10.90078,8.192617717517454,0.0599174725885073
10.905371999999998,8.204513776238212,0.0594447719323458
10.909967999999996,8.216165465530679,0.0589836868335526
10.914547999999998,8.231414892613738,0.0585203303103167
10.919143999999998,8.245276146392566,0.0580793724271907
10.923732,8.264656191571428,0.0576290325269184
10.928328,8.28620165978802,0.057161321569606
10.932908,8.310201061919265,0.0567044979952953
10.937491999999995,8.331379975993421,0.0562566852114834
10.942071999999998,8.353336139801078,0.0558167298218951
10.946664,8.376069553342242,0.055384251665769
10.951256,8.397414793579172,0.0549735841838341
10.955843999999995,8.422479956320839,0.0545565141248772
10.960443999999995,8.448444553510152,0.0541422239861236
10.965023999999998,8.481071745975441,0.0537082324268025
10.969612,8.511289145974704,0.0533020233613295
10.974195999999996,8.539341122936234,0.0529124166947291
10.978784,8.562529373517089,0.0525418241126772
10.983371999999996,8.580731713003122,0.0521946786048481
10.987968,8.591249838051388,0.0518723890143353
10.992556,8.59817022530906,0.0515502720685974
10.99716,8.598305832576617,0.0512507169777795
11.001751999999998,8.594721517339439,0.0509567915483821
11.006355999999998,8.580388130179113,0.0507012625304498
11.010936,8.56654348187537,0.0504245295705464
11.015532,8.540150892753186,0.0501863983183437
11.020112,8.507750773374385,0.0499737071875046
11.024712,8.464068701767227,0.0497831756318218
11.029303999999998,8.420142260731778,0.0496012551803257
11.033903999999998,8.366366182220833,0.0494566061998456
