Time,Force,Position
12.020012,3.1496039264378712,0.1710267652498355
12.0246,3.3500940900211997,0.1683899083183742
12.029200000000005,3.536295007892829,0.1660193293288467
12.033788,3.7047752684249455,0.1641851383562578
12.038392000000002,3.856600632227969,0.1627933190048869
12.04298,3.9994553137396633,0.1612766466648591
12.047580000000004,4.129208694864226,0.1599136579654149
12.052163999999998,4.2477818292111005,0.158474407677903
12.056759999999995,4.349577882114738,0.1572647838201653
12.061352,4.43999346026102,0.1560985999420348
12.065948,4.523403551174045,0.1548306685569109
12.070543999999998,4.593267744291986,0.1537182973475234
12.075144000000002,4.654571950709664,0.1525185653542038
12.079732,4.695423294627993,0.1516670434322521
12.084328,4.723505990484739,0.15090317312666
12.088915999999998,4.743195025803995,0.150107222968589
12.093508,4.758621018681565,0.1492288642814023
12.098095999999998,4.766807394529326,0.1484746888338224
12.102688,4.769274750997386,0.1479403892113497
12.107284,4.77506157401086,0.1474897574126488
12.111871999999998,4.789686654969775,0.1470025923501928
12.116464,4.805055083845304,0.1466346617210086
12.121052,4.830161205113924,0.1462181315460443
12.125644,4.866271007365722,0.1457039808316195
12.130236000000004,4.91129711082848,0.1450930238462452
12.134824000000002,4.960497973835669,0.1444981917838701
12.139432,5.012241053654766,0.1439984871172945
12.144019999999998,5.066237839408854,0.1435521327824406
12.148628000000002,5.131071979983344,0.142974077165989
12.153216,5.201346868692348,0.1423706841024757
12.15782,5.274364202192928,0.141791405373507
12.162416,5.350490534627513,0.1412018091829844
12.167004,5.430625300443757,0.1405902841706463
12.171608,5.519998780164771,0.1398121002924342
12.176203999999998,5.6088835210292025,0.1390774418226939
12.180799999999998,5.703042683865376,0.1382894092757795
12.185380000000002,5.789151078121346,0.1376962375077966
12.189979999999998,5.875626026519755,0.1370920594121416
12.194568000000004,5.960913029593595,0.1364687486402155
12.199168,6.042313783999925,0.1358839348920693
12.203755999999998,6.116230551948151,0.1353885801790451
12.208351999999998,6.194722535400135,0.1347762969819784
12.212936,6.265319836802952,0.1342334607510024
12.217532,6.327245206423099,0.1337594411110096
12.222112000000005,6.382419697870018,0.1333189531829371
12.226703999999998,6.432397810610714,0.1328963727689318
12.231292000000003,6.475747229892327,0.1324836880179629
12.235888000000005,6.516476389096511,0.1320549517042484
12.240476,6.546612562908586,0.1317176437276175
12.245064,6.566277936042695,0.1314571712817613
12.249651999999998,6.580336234879513,0.1311888545831721
12.254248000000004,6.588665274704896,0.1309193637576339
12.25884,6.587545133014108,0.1307024614274998
12.263427999999998,6.5758320059312085,0.1305650272516968
12.26802,6.5613322926081095,0.1303709268865978
12.272599999999995,6.53480727914004,0.1302520851821354
12.277192,6.509582156078946,0.1299968516981051
12.281779999999998,6.476462350968683,0.1297821750507176
12.286368000000005,6.439289971028136,0.1295451515075669
12.290964000000002,6.394877974057778,0.1293554063435394
12.295552,6.351443454800585,0.1290953610993192
12.300144000000005,6.300647133799435,0.1288842808395626
12.304740000000002,6.245964564130775,0.1286886877994081
12.309336000000002,6.188295180242252,0.1284963853105548
12.313940000000002,6.130092916048517,0.1282829233033247
12.31854,6.06776003375898,0.1281020444288408
12.323144,6.006815324773673,0.1278710215794718
12.327736000000002,5.944560485749654,0.1276243243618797
12.332332,5.883449450601572,0.1273456051406814
12.33692,5.829533891034672,0.1269655139503763
12.341516,5.775373962039481,0.1265963703422348
12.346096000000005,5.718437686435829,0.1263210986939189
12.350700000000003,5.667553082537421,0.1259727448205473
12.355283999999996,5.624274649811261,0.1255448816882038
12.359876,5.583983031304964,0.1251069453399094
12.364455999999995,5.551297583970913,0.124591616804695
12.369052000000003,5.522131831161938,0.1240838138743929
12.373648000000005,5.500450064811066,0.1235125155765725
12.378248,5.485108481042356,0.122908666116029
12.382840000000002,5.479049752627043,0.1222193015612553
12.387432000000004,5.472790796232068,0.1215959486697547
12.392020000000002,5.468374850181016,0.120996751322377
12.396608,5.471198521159776,0.1203550633168199
12.401196,5.479873635864116,0.1197167183218462
12.405791999999998,5.489003587608149,0.1191534227249283
12.410384,5.507294209991435,0.1185184484078754
12.414976000000005,5.535400568033332,0.1178320657097678
12.419567999999998,5.568825489495596,0.1171441272674064
12.424148000000002,5.60679172464473,0.1164553037271133
12.428744000000002,5.644024851508991,0.1158293039642856
12.433332,5.685799292060119,0.115205562230738
12.437916,5.7384891306971655,0.114448763334918
12.442508000000004,5.791345295496988,0.1137436960825287
12.4471,5.841791667830785,0.1131133613937629
12.451704,5.89395886579436,0.1125297902847637
12.456296000000002,5.946048020492419,0.1120143298369604
12.460884,5.9966268171721,0.11155953265404
12.46548,6.0465946902810535,0.1111557901879952
12.470072000000002,6.099138682018805,0.1107466867584836
12.474668,6.153359357937706,0.110340683989691
12.479247999999998,6.214531140009498,0.1098853906789811
12.483848000000002,6.28355346268183,0.1093767728587994
12.488436,6.353597404515956,0.1088642456200893
12.493036000000004,6.429771061320841,0.1082710560183415
12.497628,6.508232325877605,0.1076317164199226
12.502223999999998,6.586937959862663,0.1069980067759223
12.506819999999998,6.657426499104743,0.1064593791123572
12.511415999999995,6.729058842222761,0.105912163890797
12.516008,6.804000412254454,0.1053223169722852
12.520604,6.883028458933318,0.1046885054101876
12.525191999999995,6.961767994735266,0.1040391598737826
12.529788000000003,7.038175781336705,0.1034125094303277
12.53438,7.116748990975877,0.1027614088142555
12.538975999999998,7.196343819776843,0.1021004063630827
12.543564000000003,7.272296769338588,0.1014298817805636
12.548147999999998,7.347961208023414,0.1007392003250771
12.55274,7.421538266936025,0.10003739284194
12.557336,7.492905761362275,0.0993334386544736
12.561928000000002,7.557199964921489,0.0986838600915491
12.566508,7.617241365670753,0.098062812928598
12.571095999999995,7.671064768552003,0.0974499367877832
12.575688,7.7145836969180595,0.0968911451896753
12.580264,7.755893060797755,0.0963326849867692
12.584856000000002,7.787308645753324,0.0958465326344359
12.589436,7.818313535117828,0.0953454239721265
12.59402,7.840568449434145,0.094890919568216
12.598620000000004,7.862001972568334,0.0943975926002399
12.603203999999998,7.875951509244418,0.0939259089009836
12.607808,7.880906701444024,0.0935120169077469
12.612388000000005,7.874169245824207,0.0931690287910109
12.616984000000002,7.862401737660941,0.0928396111047757
12.621560000000002,7.839718831411755,0.0925791253349184
12.626164000000005,7.814293480370996,0.0922953179243893
12.630752,7.788168922862253,0.0919653842449325
12.635351999999996,7.762655288924239,0.0916026449277533
12.639936,7.734154840766362,0.0912279019178284
12.644528,7.708963619522155,0.0908065518046398
12.649127999999996,7.685404941010471,0.090343100690455
12.65372,7.661557751621868,0.0898510371653566
12.658324,7.634357193870964,0.0893631481567796
12.66292,7.607156636120059,0.0888727930279713
12.667496,7.585963608625772,0.0883220799445839
12.672088000000002,7.560395593607391,0.0877855801816519
12.676676,7.536337936607385,0.0872103584521993
12.681268000000005,7.509704160978582,0.086640712901131
12.685848,7.486912492568662,0.0860368301079815
12.690435999999998,7.464775889178096,0.0854380324640807
12.695024000000004,7.445337589130476,0.0848223757980228
12.699604,7.428719777139945,0.0841840266261626
12.70418,7.418886745139531,0.0834858284376654
12.708776,7.40983096287262,0.0827859980401876
12.713364,7.409358829491122,0.0820176312791321
12.717948,7.404555850034159,0.0813013593352639
12.722544,7.397343078111172,0.0806238482887053
12.727128,7.389763752045747,0.0799641272114347
12.731732,7.379896818228445,0.0793332846842181
12.736324000000003,7.361979115830938,0.0787752834052946
12.740928000000004,7.339852752072114,0.0782622746723531
12.745508,7.322512071428448,0.0777568053807314
12.750104,7.310567997470668,0.0772271853024988
12.754692,7.299034619103955,0.0767181341221912
12.759287999999998,7.282270960214127,0.0762638030550211
12.763876000000003,7.269637919420102,0.0758083099555872
12.768476,7.262812180903029,0.0753545473589752
12.773056000000004,7.256519322691167,0.074914533583028
12.777659999999996,7.253579832841606,0.0744748174812293
12.782240000000002,7.249252169687812,0.0740617565758987
12.786832000000004,7.249177309343969,0.0736468042662503
12.791415999999998,7.251556382914776,0.0732357481335324
12.796008,7.257166640133739,0.0728337983947776
12.800596,7.267806949896151,0.0724340490491448
12.80518,7.283477312202014,0.0720410393626022
12.809756,7.305443715641412,0.0716291822493371
12.814352,7.3288424338336675,0.0712296875956279
12.818948,7.353306912636345,0.0708613406954119
12.823535999999995,7.385988486181999,0.0704652742326226
12.828128,7.432772500013098,0.0700043001587997
12.832715999999998,7.484953120530083,0.0695303096097477
12.8373,7.53492417656071,0.0690465237665454
12.841895999999998,7.584650863163046,0.0685809318301054
12.846476000000004,7.636420788088968,0.0681030649955354
12.851067999999998,7.692932254681421,0.0676038527970299
12.855652,7.749565905988019,0.0671038945456664
12.860239999999996,7.801824569770523,0.0666175049481653
12.864843999999998,7.858824775219559,0.0661147876747097
12.869436,7.911083439002063,0.0656375740662098
12.874028000000004,7.9662847755558035,0.065143936565635
12.878608,8.0187878087666,0.0646635991188903
12.883208000000003,8.070513592243893,0.0641847666018438
12.887784000000003,8.120684876254183,0.06370688566955
12.892384,8.164804488559229,0.0632337336766111
12.896976000000002,8.198908137226002,0.0627894689646983
12.901572000000002,8.23043566726398,0.0623485304439037
12.906164000000004,8.263473555320331,0.0618814742106957
12.910760000000003,8.295812236908699,0.0613710789462483
12.915352,8.321977062077675,0.0608703120008374
12.919944,8.333384381941851,0.0604116645900988
12.924536000000003,8.339517279834286,0.059956898161106
12.929128,8.34540580829843,0.0595137877055835
12.933716000000004,8.34601991479083,0.0590726904440474
12.938308,8.340460164863842,0.058633927451601
12.942895999999998,8.332446481022203,0.0581888152649557
12.947488,8.321734493837619,0.0577466214610626
12.952080000000002,8.307180399434152,0.0573172643001483
12.956671999999998,8.286985328916508,0.0569050463502619
12.961264,8.268955681436594,0.0564738242670739
12.965851999999998,8.248594284756177,0.0560286619547955
12.970444,8.222714096675727,0.0555916168878028
12.975028000000002,8.19413560525233,0.0551557495606686
12.979616,8.15954958357232,0.0547490539502662
12.98422,8.126884615501751,0.0543325015031116
12.988808,8.096262885754768,0.0539001823550532
12.993408000000002,8.063842287112491,0.0534671519143645
12.997999999999998,8.02643577737539,0.0530557143717948
13.002588000000005,7.986375105743975,0.0526791002058
13.007179999999998,7.942227957465385,0.0523214882190434
13.011760000000002,7.901678546977388,0.0519566285875007
13.016351999999998,7.861129136489391,0.0515876155516021
13.020932000000002,7.816493249354219,0.0512395717378988
13.025531999999998,7.773534046400197,0.0508921218964156
13.030116,7.731762788770742,0.0505671536707016
13.034712,7.688481173122911,0.0502672815190389
13.039307999999998,7.642911949723203,0.0499871548849957
