Time,Force,Position
10.498975999999995,3.9671943411145114,0.1720788356207405
10.503564,4.235145962059821,0.1698364243097417
10.508159999999998,4.485410827482506,0.1679910538691243
10.512751999999995,4.715535003467914,0.1665130613083789
10.517344,4.930382216396721,0.1649264661507704
10.52192,5.1275426738029,0.1634038546501031
10.526512,5.31073629819119,0.1617471322412904
10.531088,5.4727676139804124,0.1602386097482138
10.535688,5.611837752275264,0.1589440221130422
10.540272,5.733998384780994,0.1576449385823391
10.544864,5.8320981773650455,0.1565511538998915
10.549459999999998,5.915131474503896,0.1554501731490173
10.554055999999996,5.9821988417499,0.1543401275765384
10.558644,6.031134856065324,0.1533164373794216
10.56324,6.061162267716665,0.1523622294069998
10.567824,6.072447402866698,0.1515033430444854
10.572411999999998,6.071941367668311,0.1506241230394855
10.577,6.048817046932845,0.1500198090830335
10.581596,6.014033980194844,0.149525908573255
10.586183999999998,5.971644742284595,0.149137650663043
10.59078,5.930399308250285,0.1487034486346564
10.595363999999998,5.889198015664602,0.1483092265486612
10.599944,5.8477964950992565,0.1479783825477856
10.604535999999998,5.808526495754754,0.1476918398541264
10.609124,5.773186886526393,0.1474175858142282
10.613707999999995,5.742799286575962,0.1471345486837973
10.6183,5.71748588061761,0.1468340622438576
10.622887999999998,5.702398905908932,0.1464485591667604
10.627468,5.690631397745665,0.1461267598967998
10.632068,5.682672094984389,0.1458339885628987
10.636656,5.683140354577493,0.1454867883481592
10.641259999999996,5.689215688467887,0.1451428755139331
10.645848,5.70114246608386,0.144782568184114
10.650439999999998,5.716100199368324,0.1444592016390286
10.655028,5.740629298883105,0.1440590285447871
10.659624,5.778449687132943,0.1435198733094094
10.664211999999996,5.818035042461187,0.143064289963135
10.668811999999996,5.87553104347687,0.1423909087854554
10.673404,5.94513038790304,0.1415652353254702
10.677995999999998,6.019926111035434,0.1407316628199846
10.68258,6.090845825132057,0.1400881175441165
10.687172,6.1619760068400815,0.1395336158334129
10.691771999999998,6.242389043901506,0.1388886048046457
10.696363999999996,6.328487198525736,0.1382058533453566
10.700952,6.416550548208034,0.1375511404457426
10.705543999999998,6.50886670070028,0.1368735864920582
10.710132,6.604291852126536,0.1362058981700298
10.714719999999998,6.6974293958009135,0.1356175873716393
10.7193,6.794409046694173,0.1349709540143633
10.723884,6.891921577892642,0.1343426463825801
10.72848,6.993520585738288,0.1336544475334455
10.733067999999998,7.095852701868807,0.1329460616401056
10.73766,7.201249675484707,0.1322034514322995
10.742247999999998,7.307257572671337,0.1314327693009918
10.746836,7.40811323260037,0.1307322144611554
10.751428,7.500463286909508,0.1301276077144479
10.756015999999995,7.59211413475066,0.1294864401365968
10.760604,7.673049812485555,0.1289389042911576
10.765199999999998,7.747645307638288,0.1284382409281092
10.769788,7.817166608798943,0.1279421993557021
10.774399999999998,7.885944562042986,0.1273656914923535
10.778992,7.953201917636912,0.1267139356022119
10.783595999999998,8.008844668676934,0.126146025694347
10.788171999999998,8.055815487934288,0.1256171353989223
10.792771999999998,8.092559875941966,0.1251271066871284
10.79736,8.121776136042913,0.1246564966593093
10.80196,8.141665399341834,0.1242188003700594
10.806547999999998,8.157213576933552,0.123741715119113
10.811147999999998,8.168176299389772,0.123238155901066
10.81574,8.172999067243495,0.1227084756664768
10.820332,8.165307796095664,0.1222557745910727
10.824916,8.148700223736869,0.1218450880967017
10.829508,8.121744035414258,0.1214720813167504
10.834095999999995,8.089713653099569,0.1210912025204913
10.838692,8.049788588735709,0.1207336606537483
10.843268,8.006343829846776,0.1203633415760174
10.847851999999998,7.955537269213887,0.1200263907671492
10.852432,7.89994502546584,0.1197043175377828
10.857016,7.8374016755649,0.1194339328607212
10.861608,7.770849892282304,0.1191761156379025
10.866196,7.7033986745520595,0.118920514803494
10.870779999999998,7.635947456821815,0.1186570654251361
10.875368,7.571561096576952,0.1183454297197912
10.879955999999998,7.509995224389179,0.1179980256512421
10.884555999999998,7.453825958887292,0.1175965003847332
10.88914,7.393081477881648,0.117279972398835
10.893731999999998,7.333647126914717,0.1169696035488413
10.898324,7.270414810177532,0.1167422683642213
10.902912,7.204283962117741,0.1165897000442212
10.907507999999998,7.142039362725461,0.1164232214086743
10.9121,7.0865015000577785,0.1162147918093525
10.916696,7.031662843858081,0.1160510748723383
10.921275999999995,6.9821427510787535,0.115879655721538
10.925872,6.935897983396209,0.1157324863269788
10.930459999999998,6.8986917016387705,0.115538498647067
10.935055999999998,6.865660179425762,0.1153621186378515
10.93964,6.843588196747303,0.1151150880646382
10.944231999999998,6.829410896118009,0.1148455171605262
10.94882,6.82439426612797,0.1145240287376999
10.953411999999998,6.826128514311157,0.1142032491907416
10.958,6.830360837857626,0.1139129848895391
10.962592,6.836069617605581,0.1136694289273494
10.967179999999995,6.84505372245032,0.1134557200209061
10.971764,6.858701325696071,0.1132372693810727
10.976352,6.875868623466896,0.1130361897423592
10.980952,6.901785896285908,0.1127668746404896
10.98554,6.933388286667728,0.112478798011332
10.990124,6.972596848221794,0.1121450844902114
10.99472,7.01826777707217,0.1117873855332623
10.999304,7.069379454057063,0.1114305444644591
11.0039,7.126298433318908,0.1110543583749666
11.00848,7.193111191504881,0.1105979713580957
11.013063999999998,7.261889144748923,0.1101641148723446
11.017676,7.334919900802914,0.1097128914833363
11.022263999999998,7.410404590771557,0.1092640812026674
11.026872,7.489487018530791,0.1087918916377473
11.031463999999998,7.565260219376352,0.1083852044523338
11.036052,7.643076658545501,0.1079608475318326
11.040644,7.721015282428795,0.1075403805935602
11.045244,7.802385317939907,0.1070720165303397
11.049835999999996,7.885021342041105,0.1065834832063416
11.054432,7.969045539446532,0.1060695402146778
11.059024,8.054047214565125,0.1055151670967173
11.063615999999998,8.135817706035564,0.1049784371771283
11.068204,8.213701948838493,0.1044477794283317
11.072784,8.29436253824988,0.1038722978119814
11.077384,8.3704818139744,0.1033002279429422
11.081963999999996,8.443736460193206,0.102722843921864
11.08656,8.516780638800608,0.1020908469980963
11.09116,8.58282956980649,0.1014680346460693
11.095752,8.638407700134406,0.1008675985703942
11.100339999999996,8.682249041194273,0.1003113077291584
11.104932,8.720361123242704,0.099732417302191
11.109519999999998,8.750167827650902,0.0991438280055371
11.114108,8.76962591609528,0.0985650966316274
11.118691999999998,8.78425417997587,0.0979600820612131
11.123284,8.796218042330409,0.0972991161342434
11.127867999999998,8.800165037921632,0.0966467203986641
11.13246,8.79699460119719,0.095995930165511
11.137052,8.783641874671702,0.0953782971076287
11.141632,8.76317171583055,0.0947590038302389
11.146208,8.73533975524544,0.0941484696378406
11.150795999999998,8.698635634897999,0.0935783048135295
11.155384,8.659189069758982,0.0929853197735257
11.159991999999995,8.619698363171342,0.0923543529897969
11.164584,8.566838324583125,0.0917842635180629
11.169188,8.514344840137346,0.0911927266769393
11.17378,8.45898672618585,0.0905807203439256
11.178367999999995,8.397210386386673,0.0899997538773482
11.182964,8.333390808263912,0.0894332056320733
11.187543999999995,8.273457478808657,0.0888663417508856
11.192132,8.219698005772797,0.0882687352802024
11.196719999999996,8.166593597756288,0.0876716419734348
11.201319999999996,8.116231634531353,0.0870907257901756
11.205904,8.071554788869225,0.0865018157273073
11.210499999999998,8.027821519103371,0.0859402146563626
11.215095999999996,7.97926866440547,0.0854463927139859
11.219688,7.935501492822729,0.084951770763587
11.224275999999998,7.898441057964587,0.0844436405554682
11.228868,7.866288490935748,0.0839297683276252
11.233456,7.839821041469717,0.0834126823733716
11.238051999999998,7.819038709566493,0.0828932157926192
11.24264,7.808927406320897,0.0823308080788382
11.247223999999996,7.79861587509564,0.0818137389610763
11.251816,7.791046788661952,0.0813218309612182
11.256412,7.795214491496317,0.0808155240933134
11.260999999999996,7.799059781636872,0.0803633811160596
11.265596,7.806957646607712,0.0799522796533794
11.270192,7.822994563056012,0.0795461310410398
11.274768,7.846882020104851,0.079121145084601
11.279351999999998,7.879763821630168,0.0786678690642972
11.283936,7.912811949318259,0.0782487187356047
11.288523999999995,7.951545194569157,0.0778367443673219
11.293131999999998,7.997107361258799,0.0774204011417692
11.29772,8.046555776615953,0.0770205983924713
11.302312,8.098091571745325,0.0766418451670467
11.306903999999998,8.162219449141764,0.0762214764175428
11.311492,8.228556891024565,0.0758190543251859
11.316083999999998,8.294283409336636,0.0754502870649421
11.320679999999998,8.369004272125185,0.0750620662769136
11.325272,8.448877372171332,0.0746756541298821
11.329859999999998,8.53402489418922,0.0742857167975186
11.334459999999998,8.618928046778814,0.0739173588158536
11.33904,8.714091532434974,0.0735116471902161
11.34364,8.809255018091134,0.07311235888641
11.348231999999998,8.900942950670848,0.0727240226326369
11.352828,8.99491849100244,0.0723127875875196
11.357407999999998,9.092569812390144,0.0718620811719715
11.362003999999995,9.184946711806104,0.0714256283188603
11.366592,9.27294862369797,0.0710033429910166
11.371187999999998,9.347991899180329,0.0706332483845931
11.375779999999995,9.421069979604615,0.070243749934069
11.380379999999995,9.492960114704342,0.0698407248484374
11.384959999999998,9.55736626334596,0.0694385459935884
11.389548,9.61813053274836,0.0690185710082083
11.394131999999995,9.675741661768123,0.0685600914856834
11.398716,9.723947750720344,0.068109852958533
11.4033,9.7676125259857,0.0676412893237647
11.40788,9.80595873783068,0.0671499427148357
11.412472,9.826316260722708,0.0666970754927453
11.417068,9.835347689937748,0.0662548088477952
11.421656,9.835340633227682,0.0658012110465892
11.426248,9.824906917288278,0.0653532547033221
11.430839999999998,9.799549369881298,0.0649190009093124
11.435424,9.772104442702108,0.0644659864877535
11.44002,9.741917070731336,0.0639851670856988
11.444608,9.706944015645414,0.0634882729990186
11.4492,9.66183281220707,0.0630140384877026
11.453796,9.614756413710657,0.0625127626780873
11.4584,9.56444883156609,0.0619994303655107
11.462987999999998,9.51679541131584,0.0614461725878703
11.467587999999996,9.467220937456146,0.0608963539887974
11.472172,9.412249856910568,0.0603505983036784
11.476767999999998,9.355357722755546,0.0598068065527808
11.48136,9.293601862219848,0.0592778327681385
11.48596,9.229191839789836,0.0587778663148428
11.490543999999998,9.166825055683413,0.0582612985927571
11.495136,9.10547989073878,0.0577341338898487
11.499732,9.048387528604096,0.0572072479227214
11.504324,8.999756630640677,0.0566511969967828
11.508924,8.956766708791438,0.056075818632324
11.513524,8.91292149394318,0.0555276752640582
11.518115999999996,8.876027385247815,0.0549786103589961
11.522708,8.845717828562902,0.0544425420171296
11.527295999999998,8.813897913859615,0.0539284664083414
11.53188,8.785964247823834,0.0534334287611859
11.536467999999998,8.761017396007922,0.0529571926764182
11.54106,8.743143835059046,0.0524791122181801
11.545652,8.728134903615885,0.0520255853914589
11.55024,8.712270679173706,0.0516019461511454
11.55484,8.701314322560831,0.051194763733005
11.559416,8.69473295347205,0.0507901408917628
11.563999999999998,8.68946171442198,0.0504017789447109
11.568584,8.6903643317913,0.0500160533139732
11.573175999999998,8.692577079199335,0.0496461650024103
11.577764,8.69724376052202,0.0492835502340408
11.582356,8.700033529683894,0.0489594901696026
11.586943999999995,8.700824201970807,0.0486787849840611
11.59154,8.696384593734608,0.0484274268986034
