Time,Force,Position
8.475947999999999,3.669906872028992,0.1545272900998559
8.489719999999998,4.20118757404556,0.1544906759510258
8.498895999999998,4.462408796081123,0.1544670908945541
8.503499999999999,4.569930925074521,0.1543686643334811
8.508084,4.662098047745801,0.1541176517793955
8.512675999999999,4.735478752467145,0.1539163664828204
8.517267999999998,4.793959287906061,0.1536969756238659
8.521864,4.84600111823382,0.1532205775234635
8.526451999999999,4.886251778213161,0.1526938816809714
8.531047999999998,4.915610702291733,0.1520940594287756
8.535636,4.937264932669062,0.1513087038905804
8.540219999999998,4.939932517116789,0.1506487607859078
8.544808,4.929787312054305,0.1499748722298387
8.549395999999998,4.901354667530206,0.1494685084549276
8.55398,4.864861014794164,0.1490057062903522
8.558575999999999,4.823215124800526,0.1486307272067346
8.563164,4.78202407184658,0.148327625750914
8.567751999999999,4.75273613432346,0.1478954480680211
8.572344000000001,4.7334302586217225,0.1473812202590609
8.576923999999998,4.7210415872559865,0.1468695100039368
8.581508,4.721211096340429,0.1462337605584375
8.586120000000001,4.726743310293871,0.145621694182187
8.590708,4.743157020516344,0.1449086973363791
8.595316,4.764689066179524,0.1442471209982097
8.599903999999999,4.792893946750414,0.1436179764933472
8.604492,4.829814900552601,0.1429690266007496
8.609088,4.874141797547375,0.1422972575394443
8.613675999999998,4.921543791659266,0.1417513814042454
8.618272000000001,4.9736534256208,0.141234330629613
8.62286,5.036888925279654,0.1406443375382658
8.627455999999999,5.105853683949946,0.1400730000242354
8.632044,5.181980016384531,0.1394950394586174
8.636644,5.261792369506964,0.1389671449743772
8.641231999999999,5.350931719431425,0.1383791857561592
8.645836,5.4417918949856645,0.1378310272492264
8.650427999999998,5.538703742245149,0.137212962095072
8.655024000000001,5.636026285095698,0.1366362421356765
8.659616,5.733392969394875,0.1361363737150406
8.664212,5.834113022056353,0.1356201712622941
8.668807999999999,5.940351866117863,0.1350279060126073
8.6734,6.043281483265701,0.1345393182090133
8.678,6.145433850680036,0.1340644471579176
8.6826,6.247175522503306,0.1335806206275396
8.687187999999999,6.347484879573718,0.1331081241491044
8.691783999999998,6.447261356338919,0.1326310147663607
8.696363999999999,6.545727703065407,0.132162550120086
8.700948,6.641740115877243,0.1317280888378146
8.705535999999999,6.732067411126272,0.1313411221008027
8.710128000000001,6.817731207974289,0.1309778224640367
8.714724,6.891536030840109,0.1307429405367206
8.7193,6.961454605038417,0.1305357965964825
8.723896,7.027442789120587,0.1303044394745019
8.728483999999998,7.090766571676704,0.1300161052606492
8.733076,7.1450077268590855,0.1297557400403073
8.737672,7.195685046067762,0.1294497617632453
8.742259999999998,7.241410355998506,0.1291466716516475
8.746872,7.281406406917815,0.1288404544230394
8.751459999999998,7.3159175682539805,0.1285178629856511
8.756048,7.343555666702774,0.1282191651164361
8.760639999999999,7.361744583635394,0.1279650190919002
8.76522,7.376736218736749,0.12764260446462
8.769815999999999,7.386365148969107,0.127292463342946
8.774396,7.3878108862753775,0.1269502013208617
8.778996,7.3818506803890624,0.1266120460785579
8.783584000000001,7.370649954347897,0.1262370177721914
8.788184000000001,7.35216546982829,0.1258577901607445
8.792772,7.326641596258538,0.1254585870899983
8.797372,7.295877202533933,0.1250189124435908
8.801956,7.265923960359719,0.124485912796498
8.806548,7.231018708907572,0.1239363166441935
8.811136000000001,7.189362579282197,0.1233903026494952
8.815732,7.14610780874119,0.1228027841730313
8.820336000000001,7.098966789532672,0.1222202731187734
8.824928,7.051415074733089,0.121612492348306
8.829515999999998,7.001531610732999,0.1210044723464287
8.834108,6.94661809418946,0.1204240489341054
8.838695999999999,6.892071131788354,0.1198141129503668
8.843284,6.833026997149012,0.1192441944154351
8.847871999999999,6.772428363042665,0.1186708860812921
8.852467999999998,6.709908675326876,0.1181176568958854
8.85706,6.644324130125706,0.117606561948284
8.861639999999998,6.578128661353809,0.1171259660915261
8.866239999999998,6.514142757068269,0.1166392861405256
8.870828,6.453754590573323,0.1161042761437469
8.875419999999998,6.393410565527003,0.1156048982831501
8.880015999999998,6.335031735538754,0.1151152142181707
8.884604,6.279273165627931,0.1146420855957311
8.889199999999999,6.226012671080388,0.1141950106948694
8.893788,6.169609275781947,0.1138484201138379
8.898375999999999,6.121344931960964,0.1134559533949818
8.902971999999998,6.075700848217408,0.1130846766591329
8.90756,6.028712732618249,0.1127985028487936
8.912156,5.987698245458818,0.1125121062614107
8.916736,5.952246691148045,0.1122034673065364
8.921336,5.921869330829352,0.1119070297852276
8.925923999999998,5.897343414236239,0.1116226486859158
8.930523999999998,5.879690560530502,0.1113341860701534
8.935108,5.875695549702256,0.110948340706924
8.939708,5.876652548151942,0.1105870455724828
8.944295999999998,5.888324716707885,0.1101743267746423
8.948892,5.907647197884703,0.1097607971095079
8.953479999999999,5.936907599434279,0.109301579543869
8.958071999999998,5.973285433299519,0.1088320731627296
8.96266,6.015270341462048,0.1084030635205903
8.967255999999999,6.066293735549684,0.1079433068746689
8.971844,6.121614073895897,0.1075062140930351
8.976436,6.181231356500684,0.1070903803251044
8.981023999999998,6.247066636973489,0.1066705141910747
8.985612,6.322551326942131,0.1061819378169136
8.990196000000001,6.4026995153117845,0.1057063572644314
8.994784,6.487755571510742,0.1052158042263488
8.999375999999998,6.584382090814977,0.1046395054972429
9.003964,6.68076424069092,0.1040873607105177
9.008556,6.777557086157928,0.1035699996826727
9.01314,6.877292604396171,0.103031191776229
9.017724,6.97547362316741,0.1024978945843658
9.022324,7.069157469700411,0.1020116511288379
9.026908,7.155645840652228,0.1016005474087042
9.031496,7.238903027955892,0.101196830650201
9.036092,7.317374532144396,0.1008116707492202
9.040679999999998,7.391182537931887,0.1004297963567573
9.045272,7.454686069204186,0.1001064829708064
9.04986,7.511482863751886,0.0998133718526639
9.05446,7.562716725450927,0.0995293303722232
9.05904,7.604667731796567,0.0992877216239694
9.06364,7.642199609169487,0.0990330464982662
9.068227999999998,7.673635673388534,0.098769847626868
9.072827999999998,7.7020407819390915,0.0984631976700919
9.077412,7.7194863509551,0.0982013964243941
9.082003999999998,7.72261901207426,0.0979928472393641
9.086592,7.723253597830141,0.0977519207392905
9.091176,7.712517948460409,0.0975321715736648
9.095768,7.697485354832098,0.0972899798707137
9.100359999999998,7.67545751360227,0.0970423594537903
9.104948,7.642470132837891,0.0968304486513117
9.109544,7.605840872834294,0.0966009164994168
9.114128,7.566713537467415,0.0963348283197401
9.118724,7.520757280661791,0.0960940275765302
9.123316,7.474879067121685,0.0958046377762587
9.127904,7.42589185464757,0.0955086441823443
9.1325,7.376738316010681,0.0951757776821795
9.137088,7.333592307630409,0.09477376907381
9.14168,7.294899330039746,0.0943015151548281
9.146259999999998,7.255018407124514,0.0938044491535397
9.150848,7.216525657513515,0.0932718773896974
9.155456,7.180076146226099,0.0927124536331869
9.160044,7.149511980481158,0.092092069952585
9.164656,7.116904576412627,0.0914918608640349
9.169244,7.086751106258748,0.0908839043578246
9.173832,7.063670926971908,0.0902334473430972
9.178428,7.039324759094981,0.0896060233088852
9.183016,7.0160443518284765,0.089002579728013
9.18762,6.992153020991245,0.0884275294972009
9.1922,6.974313361859257,0.0878269443948834
9.196796,6.965223677775455,0.0871859246061859
9.201376,6.960142427073311,0.0865443727056807
9.205976,6.956249121695734,0.0859235858450598
9.210563999999998,6.963393399118224,0.085230030798001
9.215163999999998,6.973524490760577,0.0845522712274398
9.219748,6.988685634946379,0.0838682482649352
9.224339999999998,7.004790355028457,0.0832212840736429
9.228936,7.017585848196863,0.0826240012177524
9.233524,7.0258061258615125,0.0820989073221141
9.23812,7.038934271355465,0.0815752039789431
9.242712,7.055826480802783,0.0810712350583759
9.2473,7.0759498738982565,0.0805748529466892
9.251896,7.099959515661243,0.0800994606987201
9.256476,7.130020829129469,0.0796136656399089
9.261064,7.164701499550083,0.0791054437113528
9.265648,7.20682201498017,0.0785634886838125
9.27024,7.254216952381999,0.0780122645264067
9.274832,7.308807365365009,0.0774387271310539
9.279412,7.372880861681083,0.0768136555641899
9.284,7.440307726359455,0.0762001112270614
9.288584,7.50851184077133,0.0756019425384204
9.293171999999998,7.579414258526148,0.0750027546212941
9.297767999999998,7.655835467680998,0.0743871689590932
9.302356,7.728170200188676,0.0738183973536748
9.306943999999998,7.802303801591647,0.0732529638582533
9.31154,7.877214652728123,0.0727010689283969
9.316132,7.956989230245274,0.0721257005409514
9.320736,8.040605914981308,0.071533736377636
9.325312,8.12986357583152,0.0709186749309605
9.329912,8.222063909452967,0.0702989637890782
9.334492,8.31385354748335,0.0696689172913175
9.339095999999998,8.404088686046727,0.0690443590576591
9.343684,8.489171587352509,0.0684362853210592
9.348284,8.573721608353079,0.0678281341301895
9.352875999999998,8.660314867677238,0.0672181146821749
9.357468,8.741144966173072,0.06664856194588
9.362056,8.818621696306606,0.0660859407510085
9.366651999999998,8.891967808344337,0.0655277267043374
9.37124,8.961593997877332,0.0649944450922975
9.375832,9.025168515705085,0.0644705325142913
9.380412,9.085023111028098,0.0639638391460519
9.384999999999998,9.144467010760046,0.0634474781005375
9.389584,9.201579161291487,0.0629297595234514
9.39418,9.259057865965367,0.062401424683954
9.398772,9.31444919086703,0.0618606189997179
9.40336,9.366731516834683,0.0613123146311369
9.407948,9.41488322470654,0.0607631061254569
9.412536,9.46172480253968,0.0602038308528904
9.417116,9.504557946991165,0.059636686789919
9.421712,9.537375127804374,0.0590895275130091
9.426299999999998,9.5655729516652,0.0585538054006261
9.430903999999998,9.590173037735438,0.0580242012792474
9.435492,9.611297570729224,0.0574948737513496
9.440079999999998,9.622283955370596,0.0569848992050726
9.444675999999998,9.625053245268992,0.0564889745039036
9.449272,9.622914667338089,0.0559785070533578
9.453868,9.615501667435437,0.0554666916320554
9.45846,9.601548256970956,0.0549669158372484
9.463052,9.581298805372944,0.0544712990488728
9.46764,9.555408377660754,0.053984676151222
9.472236,9.524243527976822,0.0534938641102802
9.476824,9.482818345226324,0.0530197065789831
9.481431999999998,9.430644090552688,0.052579740251364
9.48602,9.371029990869571,0.0521488839559243
9.49062,9.303365122606252,0.0517498290216552
9.495204,9.226994420743376,0.0513720800732976
9.499796,9.142040069995083,0.0510099705594744
9.504392,9.048135516218943,0.0506783476030042
9.508988,8.947201813024396,0.0503713037436466
9.513583999999998,8.843325437058613,0.05006800747285
