Time,Force,Position
9.634816,3.41139491437559,0.1760698243559008
9.639416,3.634177767880518,0.1737166102545394
9.64402,3.836253149826068,0.1724577978036431
9.648596,4.029558077459953,0.1711024989298743
9.653200000000002,4.211438388887859,0.169691983203247
9.657788,4.3840595071475175,0.1680278647689113
9.662388,4.54570060660915,0.166271165765804
9.666976000000002,4.690354157016142,0.1647795031694542
9.671576000000002,4.813645170844398,0.1635592945201796
9.676168,4.921747504513309,0.1623620382513573
9.680752000000002,5.009797431642199,0.1613726290570924
9.685332,5.078161506373505,0.1605366959052776
9.689924,5.132480704821404,0.159660298794368
9.694512,5.176186438613714,0.1586007344081896
9.6991,5.199551254989081,0.1576524022035537
9.703676000000002,5.201064795929132,0.1568728127228941
9.708264,5.189110482339617,0.1560988791236347
9.71284,5.165331096584794,0.1554179028353872
9.717436,5.133534844066656,0.1548435458982858
9.72202,5.095853246006048,0.1544216373768883
9.7266,5.060914092737012,0.1539948152833488
9.731192,5.030105557563776,0.1535029677163862
9.735780000000002,5.000118413572672,0.1530581542278923
9.740364,4.967354922973106,0.1527329370054938
9.744964,4.939743669631136,0.1523118148038977
9.749552,4.919205707156204,0.151749938807553
9.754152,4.894869778911016,0.151336040623941
9.758736,4.87237686100975,0.1509392945757246
9.763332000000002,4.855613202119921,0.1505239812001475
9.767936,4.842124868326873,0.1501233015778227
9.772536000000002,4.834610162973553,0.1496816240853022
9.777128,4.831680912755727,0.1492610862565851
9.781716,4.83051662961631,0.1489308169246592
9.78632,4.8271530216222684,0.1487975374178413
9.790908000000002,4.833116410430255,0.1485771894109694
9.795508000000002,4.84889553489685,0.1482288176950172
9.800096,4.870159548946588,0.1478943969371102
9.804696,4.897519376150196,0.1475204671648889
9.80928,4.92929833232653,0.1471285541621785
9.813872,4.9674174710850245,0.1466724897354835
9.818464000000002,5.007379620187447,0.1462418316534575
9.823060000000002,5.054459201605534,0.1457539203804287
9.827648,5.1110660078053085,0.1451254678162439
9.832244,5.17196975826366,0.1444976264826068
9.836836000000002,5.232673280742349,0.1439642695808374
9.841428,5.292932205813083,0.1435542622308116
9.846016000000002,5.361452367075423,0.1430498820253083
9.850604,5.431571169253397,0.1425913278392658
9.855192,5.5047989703653775,0.142112769356816
9.859776,5.582934639306663,0.1415924340569302
9.864372,5.665078741629603,0.1410467594509248
9.868952,5.750043332009633,0.1404546281395975
9.873548,5.835785172123167,0.1398559641266098
9.878124,5.925124750027293,0.1391949865263839
9.882712,6.009478416836595,0.1386609747654795
9.887308,6.090400672018081,0.1382386337052011
9.891892000000002,6.167192309103763,0.1378656471424486
9.896488000000002,6.243451065884234,0.1374967264250109
9.90108,6.318932572931202,0.1371377225437123
9.90568,6.393103949939459,0.1367812278275187
9.91028,6.468907869680236,0.136370597745903
9.914868000000002,6.539803921591708,0.1360178495101541
9.919472,6.600928379293199,0.1358030758814662
9.924052,6.655957023840818,0.1356139516118483
9.928652,6.707465973863364,0.1354233211324137
9.93324,6.749159188227301,0.1353136300791833
9.93784,6.786922012475099,0.1351871282403032
9.942420000000002,6.819977196873256,0.1350399832212833
9.947016,6.850001425602922,0.1348599594439978
9.9516,6.875318014482946,0.1346650590764731
9.956196000000002,6.893228660170386,0.1344862930747754
9.960788,6.904021873542161,0.1343489650290273
9.96538,6.910884696797796,0.1341870520621882
9.96998,6.916515433280235,0.1339683582395225
9.974572000000002,6.920014648541832,0.1337022918665701
9.97916,6.92150452729673,0.1333819715817889
9.983756,6.922295199583646,0.1330151764966653
9.988332,6.916867874002541,0.1326771383352319
9.992912,6.909309027200594,0.132292419212081
9.997496000000002,6.897086681997633,0.1319275373171174
10.002092,6.881877522574811,0.1315685125706283
10.00668,6.866091341398148,0.1311554318391246
10.011268,6.852304257096445,0.1306628577432547
10.015856,6.841826399708414,0.1301003589465185
10.020448000000002,6.831304400871755,0.1294952270726646
10.025036,6.826912117005857,0.1287796541748064
10.029644,6.814713433988048,0.1281815901093237
10.034232,6.805335239027328,0.1275423530900234
10.038824000000002,6.794158175171312,0.1269226937385741
10.04342,6.780693503563419,0.1263525860298461
10.048008,6.770826569746116,0.1257396784710353
10.052600000000002,6.76492392786184,0.1250603488244922
10.057192,6.760942339587007,0.1243504641227059
10.061788,6.749276536874407,0.1237487083178337
10.066376000000002,6.738510168609459,0.1231345918068751
10.070964,6.724923312287418,0.1225552993950661
10.075552000000002,6.707372164032349,0.1220362249988971
10.080152000000002,6.6867561582919,0.1215667999559637
10.084748,6.66565141369487,0.1211259941046094
10.08934,6.644546669097838,0.1206818418860593
10.093932000000002,6.618211643977692,0.1203346291946627
10.098524,6.587301403353791,0.1200895379689945
10.103124,6.553081935816217,0.1199133502208232
10.107716,6.513343676878609,0.1198047106715557
10.116916,6.427170661910536,0.1197733555085991
10.121508000000002,6.389808293622062,0.1196978095926328
10.1261,6.352612251496363,0.1196567626575784
10.130688,6.31966901218061,0.1195764148426809
10.149044,6.193235097601447,0.11951626950253
10.158232000000002,6.15448455600874,0.1194633326998162
10.16282,6.142370972966511,0.1194251653243709
10.167404,6.140806233867766,0.1192860161764534
10.172,6.1515892076078,0.1190290759305335
10.176588,6.164459561120047,0.1187834631205922
10.181196,6.183015032195104,0.1185121170065856
10.18578,6.209909782727281,0.1181402537301994
10.190364,6.242078955231198,0.1177177145883
10.194948,6.282220853049802,0.1172201590752091
10.199544,6.330623987060011,0.1166768869877483
10.20414,6.382380489432518,0.1161157146234794
10.20872,6.440555217652706,0.1154813439082425
10.213316,6.501428249215841,0.1148359953290001
10.217904,6.563445084654916,0.1141730708985494
10.222504,6.623418681770405,0.1135535505466097
10.227092,6.681715594704741,0.1129467109828462
10.231688000000002,6.741278496229165,0.1123122998231023
10.23628,6.803251190219613,0.1116267173974041
10.240876,6.864691003904849,0.110936902259233
10.24546,6.920201330598988,0.1102955584098404
10.250056,6.975423146416206,0.109623527965238
10.254644,7.023938225508824,0.1089944188349914
10.259236,7.064480579286759,0.1084415661166847
10.263824,7.099093446073595,0.1079366015174546
10.268412,7.133662171411802,0.1073951354075053
10.273,7.162956474778269,0.1068961005446845
10.277588000000002,7.185954737011199,0.1064536881425341
10.282184,7.2077650539195615,0.1059946408901219
10.286764000000002,7.2254447527321215,0.1055576874843621
10.29136,7.239360387591318,0.1051207487715936
10.295936,7.24746872017356,0.1047075229851871
10.300528,7.2540225532888,0.1042982608527745
10.305112,7.250560422765765,0.1039742379447459
10.3097,7.242068239699281,0.1036716217992654
10.3143,7.23340973047002,0.1033352592507275
10.318888,7.225117775383198,0.1029776397586083
10.323472,7.212328648058135,0.1026534990427195
10.328068000000002,7.196186152370773,0.1023426642424776
10.332656,7.1751357888541065,0.1020442252225517
10.33726,7.1544519794798775,0.1017236824088813
10.341836,7.1354007128381705,0.1013541118878658
10.346436,7.1186370539483415,0.1009417027906307
10.351024,7.099541645858006,0.1005256032469993
10.355620000000002,7.077870119138873,0.1001211473532728
10.360204,7.053255919648505,0.099748247732433
10.364804,7.030396447604804,0.0993186668537163
10.369396000000002,7.008025714417685,0.0988583408330722
10.373988,6.982834493173479,0.0984219044517258
10.37858,6.953923349424536,0.0980157219224342
10.383172000000002,6.922968967352005,0.0976339669297692
10.38776,6.900353864736596,0.0971795159095784
10.392356,6.87593989322589,0.0967363721839655
10.39694,6.860109570600603,0.0962076310042443
10.401528,6.85135253884235,0.0956362510326942
10.406116,6.841085149065721,0.0951045370792409
10.410712,6.835192746813186,0.0945517546510257
10.415300000000002,6.8398050470555045,0.093904196914129
10.419892,6.846871281212477,0.093253273657201
10.424488,6.8606442520940485,0.0925852766025216
10.429076000000002,6.8796916449473615,0.0918972946223164
10.433668,6.900704232858743,0.0912386777425178
10.438256,6.924703634989988,0.090596397023056
10.442848,6.95745301216942,0.0899174593389726
10.447444,6.992656323263505,0.0892382467030995
10.452032,7.032234621881683,0.0885440437580401
10.456644,7.0776202227768135,0.0878521636908149
10.461228000000002,7.129834745110691,0.0871473939332411
10.465828000000002,7.186302070254516,0.0864333750382747
10.47042,7.25315191317905,0.0856509791614844
10.475008,7.322700059446527,0.0848571410666701
10.479604000000002,7.38648504488568,0.0841224888304141
10.484184,7.454889387277217,0.0833687395715917
10.488776,7.522804990812173,0.0826534479963629
10.493364,7.590720594347128,0.0819534582130524
10.497964,7.661212316510881,0.0812501817565033
10.502552,7.731581853960488,0.0805673818533748
10.507152,7.793778438115748,0.0799763579227372
10.511748,7.860716563937537,0.0793659461211437
10.516348,7.927121809454116,0.0787529410545631
10.520928,7.988663328590018,0.0781844664635566
10.525524,8.049549782706565,0.0776157528822603
10.530112,8.112601659860843,0.0770339792928669
10.534708000000002,8.17602009115756,0.0764490914097094
10.539296,8.24238119522551,0.0758521404824484
10.543892,8.311807156778842,0.0752423483117412
10.54848,8.374692707770347,0.0746722114075151
10.553064,8.436023759294848,0.0741075698693883
10.557656,8.502585091342462,0.0735090394962913
10.562248,8.566203750618842,0.0729439412438579
10.566832000000002,8.63378670182825,0.072361864142724
10.57142,8.703290706647099,0.0717729584691059
10.57602,8.77165090759001,0.071206265827063
10.5806,8.841643651265441,0.0706168135899317
10.585192,8.90636197296913,0.0700419105175888
10.589788000000002,8.973856641281282,0.0694314347094764
10.594376,9.038242310659424,0.0688172980538275
10.598984000000002,9.10618157637953,0.0681660128179943
10.603564000000002,9.166925366518452,0.0675387420736162
10.608156,9.223171984419135,0.0669261539508014
10.612748,9.280928960338196,0.0662914597824039
10.617340000000002,9.337131436790251,0.0656561795406556
10.621940000000002,9.387937306556417,0.0650383293780781
10.626536000000002,9.432324950474907,0.0644431107820626
10.631128,9.473114856602804,0.0638601308212058
10.635716000000002,9.50466604882593,0.0633064173703055
10.640312000000002,9.53784978378158,0.0627246547153225
10.644892000000002,9.569479019270224,0.0621418053280805
10.649496,9.590603552264012,0.061601820599271
10.654084,9.604410424962474,0.061078702359333
10.658684,9.611021822079753,0.0605683608963337
10.663276,9.61620090444417,0.0600477411079573
10.667872,9.616472118979289,0.0595166940520463
10.672468000000002,9.607015880753048,0.0590239320305954
10.67706,9.6003801305839,0.0585231527706582
10.681664,9.586959600424636,0.0580484639339229
10.68626,9.570596397494134,0.0575843544099239
10.690852,9.550513272058897,0.0571280755862635
10.695444000000002,9.534394438556683,0.0566544576285065
10.700036,9.522117712273358,0.0561685351403596
10.704616,9.504977259609356,0.0556984901761532
10.709196000000002,9.484116884440615,0.0552337456097148
10.713788,9.46145764037658,0.0547681938187318
10.71838,9.437898961864894,0.0543006232992754
10.722956,9.407799872791385,0.0538427290140288
10.72754,9.376801349270227,0.0533808648156443
10.732128,9.34134979495946,0.052950587697437
10.736716,9.300912329553867,0.0525386079238666
10.741316,9.258675995252982,0.0521227963079635
10.745896000000002,9.213619172895006,0.0517074924647143
10.750488,9.16627474278515,0.0513071928069219
