Time,Force,Position
9.943492,4.055631989169914,0.1751274676542002
9.948072,4.340082420313284,0.1715468096121964
9.952664,4.6044363034680025,0.1691523630512595
9.957244,4.846283846168048,0.1674994384348287
9.961832,5.07347558901396,0.1661900409587411
9.966428,5.287888444166549,0.1648423586857964
9.971004,5.481016806005923,0.1637157638476201
9.975596,5.654615401978747,0.1626190801127402
9.980184,5.807296058780791,0.1616242042146086
9.984759999999998,5.936238288354964,0.1607888928373472
9.989352,6.043607513739001,0.160006497979168
9.993944,6.130058799952259,0.1592251513658297
9.998528,6.195425820831962,0.1584291160547827
10.003132,6.239297880787046,0.1575758024105256
10.007724,6.256811253436833,0.1568003973589618
10.012315999999998,6.249931133839396,0.1560976878534231
10.016904,6.217680044281567,0.1555255841853481
10.021504,6.167341743241785,0.1550382583519148
10.02608,6.103257316427254,0.1546596121232437
10.030684,6.032544196153641,0.1543022017738107
10.035276,5.955490893297863,0.153998860049373
10.039872,5.87581733036466,0.1536809762246573
10.044452,5.796221810696975,0.1532893417690725
10.049048,5.718381018475957,0.1528115260219646
10.053643999999998,5.6348551086921335,0.1523924273409721
10.058239999999998,5.546176961650712,0.1520450276501701
10.062836,5.456599380161645,0.1517084749859031
10.067428,5.368331928711288,0.1513581903264569
10.072015999999998,5.280841726994434,0.1509844774340902
10.0766,5.195072350907358,0.1506369402892942
10.081188,5.1107794310217685,0.1503295883177017
10.08578,5.035402812347141,0.1498987816896266
10.090364,4.962446225770274,0.1495491338713363
10.094964,4.896651212957702,0.1491672095610066
10.099548,4.839572273376426,0.1487405665146058
10.104136,4.786467865359919,0.1483864277185784
10.108728,4.738481792784118,0.1480740529647626
10.113312,4.70018927115278,0.1476363302884543
10.1179,4.671101561609323,0.1471193192023326
10.122508,4.642923526145252,0.1467705671065179
10.127095999999998,4.6185978375318015,0.1465149803350024
10.131684,4.603887656597298,0.1462039320353911
10.13628,4.591886018637477,0.1460265216254944
10.140876,4.588722638623097,0.1458057829827969
10.145476,4.593131527964077,0.1455945661870353
10.150068,4.609321348021737,0.1452690906396167
10.15466,4.63602611020599,0.1448833421911698
10.159247999999998,4.667360468974366,0.1445879970117963
10.163847999999998,4.704878923793872,0.144369389969816
10.168436,4.751357821272968,0.1441045846512141
10.173036,4.805120477230502,0.1438199769029652
10.17762,4.86436802277118,0.1435713843414802
10.18222,4.9352301728657615,0.1431893475414914
10.186804,5.012721016419427,0.1428073390888209
10.191399999999998,5.092465565908082,0.1424864807630231
10.195992,5.17495256018831,0.1421669342392119
10.200588,5.268887832859669,0.1416822161709965
10.205184,5.364666115874951,0.1412494291659773
10.209784,5.46367558253839,0.1408129125014089
10.214375999999998,5.570491448353739,0.1402084924115839
10.218956,5.685113713320998,0.139448976473465
10.223544,5.795893871069376,0.1387801767044968
10.228132,5.910882690179073,0.1380150061751681
10.232716,6.023173205945826,0.1373166984922276
10.237316,6.137707188015829,0.1365317815988012
10.241908,6.248477106132468,0.1358017243449518
10.246496,6.355482960295742,0.1351086588214405
10.251079999999998,6.462522716275905,0.1343266185363436
10.255655999999998,6.56702025544416,0.1334821509230789
10.260236,6.666032905029271,0.1326369157110412
10.264831999999998,6.761237349212387,0.1317749679624798
10.26942,6.844783047392971,0.1309817508179958
10.27402,6.913727326799788,0.1303093220550389
10.278612,6.969336176022922,0.129709900769369
10.283207999999998,7.017006201748259,0.1291097581331455
10.287812,7.064665987841857,0.1283813516624036
10.292412,7.09706929014233,0.1277577714224948
10.297004,7.121655953659154,0.1271286132416123
10.301583999999998,7.132907186992294,0.126559817225823
10.306183999999998,7.139040084884727,0.1259534843811769
10.310768,7.1371119745652205,0.1253524733324597
10.315368,7.131331517395092,0.1246706108648736
10.319956,7.113892314222431,0.1240248103571755
10.324556,7.088758656980265,0.1233513357003116
10.32914,7.052909829631843,0.1227438292610468
10.333732,7.006345832177162,0.1222002290037831
10.338328,6.953275325977546,0.1216421617464668
10.342924,6.892843018033974,0.1211196637545443
10.34752,6.829546080584686,0.1205825813201278
10.35212,6.761707829448529,0.1200419400912781
10.356711999999998,6.68998332964486,0.1195030260532946
10.361304,6.619280449002982,0.1189401157453159
10.365892,6.551520241132343,0.1183249485656851
10.370487999999998,6.487479955766437,0.1176541804703418
10.375076,6.426137973743474,0.1169453125622518
10.379676,6.3572781034455215,0.1163729196273579
10.384263999999998,6.290383428205637,0.1158112403668251
10.388848,6.22161184080494,0.1153158734485982
10.393439999999998,6.160079870434053,0.1147793096109211
10.398028,6.096182249045771,0.1143396148636338
10.402615999999998,6.030696226373595,0.1139987625477654
10.407204,5.968118974655764,0.1137061838821299
10.41178,5.91511308916825,0.1133709245869579
10.416384,5.868613712425675,0.1130485009979662
10.420972,5.827066344961031,0.1127454760600195
10.42556,5.794313093993202,0.1124059416819351
10.430152,5.768310721198604,0.1120652933053411
10.434739999999998,5.746238738520143,0.1117635671112208
10.439332,5.72449940816723,0.1115409944775016
10.44392,5.711309824882841,0.1113011146869445
10.448519999999998,5.70241718585703,0.1110774400694674
10.453104,5.697699306375649,0.1108793307035452
10.457704,5.697156186438698,0.1107076421052789
10.462288,5.702586694941475,0.1105447019653065
10.466876,5.715911885493419,0.1103665768146204
10.47146,5.738519931398761,0.1101280607250211
10.476056,5.771310267105148,0.1098252635401648
10.480648,5.815304511774375,0.1094415433177112
10.485243999999998,5.864739504578118,0.1090615274470906
10.489832,5.919981799658812,0.108655838451262
10.494424,5.980254147282957,0.1082186208158876
10.499004,6.043757678555256,0.1077753909567134
10.503588,6.106650286256826,0.1073803866471224
10.508176,6.174040066196637,0.1069557953575937
10.512771999999998,6.246948637536481,0.106481187319765
10.517364,6.322799881647558,0.1059796712681058
10.521944,6.398284571616198,0.1055100649382818
10.526536,6.479532422413164,0.1049781896275874
10.531119999999998,6.567565053200245,0.1043690535416582
10.5357,6.652777195930238,0.1038028708407018
10.540292,6.738888773107881,0.1032377514232328
10.54488,6.827532327465692,0.1026236966821202
10.549471999999998,6.916786805394231,0.1019850342404899
10.554064,7.003054469102907,0.1013515529216369
10.558652,7.0800392774581855,0.1007712238594027
10.563256,7.154037271593601,0.1001938734072672
10.567836,7.220429094556768,0.0996624054831727
10.572428,7.278437496614185,0.0991734846589145
10.577012,7.330227900803584,0.0986906362320456
10.581612,7.378254241039618,0.0982059422734365
10.586196,7.425703559521813,0.0976732031198854
10.590796,7.470410433212438,0.0971247111115695
10.59538,7.512374862111491,0.0965572104339266
10.599972,7.544934250942999,0.0960353016648263
10.604568,7.570131838030551,0.095532800848903
10.60916,7.5911988070223,0.0950461310611415
10.61376,7.611566569546065,0.0945174625664026
10.618351999999998,7.6234287264499345,0.0940225447164789
10.62294,7.628339777200914,0.0935627130920194
10.627536,7.633084501789117,0.0930727417532526
10.632112,7.632921358548015,0.0925903535437775
10.636712,7.628627597211111,0.0921179208548658
10.641296,7.619714478921824,0.0916784271554436
10.645879999999998,7.6101462956131805,0.0912320925006327
10.650476,7.60634127313286,0.0907368887283052
10.655064,7.603802239242624,0.0902204314720375
10.659652,7.602407009228327,0.089686725333605
10.66424,7.603710082556973,0.0891384684102396
10.66882,7.603214286990324,0.0885981923792828
10.673416,7.601041807242526,0.0880607671965698
10.677996,7.598624958066436,0.0875375897239794
10.682584,7.598251347213933,0.0869952170011415
10.687179999999998,7.60069822441852,0.0864348518229307
10.691776,7.603922351356608,0.0858721468702088
10.696368,7.609600412209348,0.0853074423583775
10.700948,7.613113050024355,0.0847693110914886
10.705548,7.611639776744542,0.0842763666669752
10.710131999999998,7.614419306274677,0.0837729119406236
10.714731999999998,7.620019323861901,0.0832509517034354
10.719316,7.620999984496739,0.0827553117658484
10.723912,7.626600002083962,0.0822330735731148
10.728504,7.631056215795247,0.0817264392512312
10.733096,7.635756798934822,0.0812057941453318
10.737676,7.641112447093755,0.0806949133678923
10.742268,7.640460564996071,0.0802389693479266
10.746848,7.633801152641772,0.0798362223049944
10.751432,7.627918990020975,0.0794362367629904
10.756007999999998,7.623058446561972,0.0790280058287914
10.7606,7.624371759522358,0.0786008338040752
10.765192,7.627239571949748,0.0781779820714526
10.76978,7.631006818824787,0.0777540320083687
10.774372,7.634285326843242,0.0773566288920507
10.778959999999998,7.63666440041405,0.076964840853166
10.78354,7.644684450099035,0.0765424559607672
10.788124,7.655402803126964,0.0761130751273796
10.792711999999998,7.669963263373778,0.0756604024028392
10.79732,7.687222026963534,0.0751964500974502
10.801908,7.70280410637214,0.0747343057707005
10.806496,7.717120197190661,0.0742944510495291
10.811092,7.740552817199806,0.0738218581403978
10.815668,7.7601433299900675,0.0733743665196398
10.820263999999998,7.783209395856777,0.0729226303213144
10.824844,7.809095949780576,0.0724582784196248
10.829439999999998,7.834205253970871,0.0719934291657718
10.834032,7.863278850094195,0.0715005230613442
10.838628,7.897582726740631,0.0709600394982849
10.84322,7.929843365063481,0.0704383335630915
10.84782,7.9572402770056545,0.0699483685123211
10.852404,7.978996212833651,0.069488069041266
10.856996,7.999852714213998,0.0690310637939957
10.861584,8.019809781146698,0.0685804433708477
10.866176,8.0371907294506,0.0681334021741771
10.870764,8.053794428020998,0.0676857365808373
10.87536,8.066556019372515,0.0672606789295364
10.879948,8.077640926542882,0.0668378272619138
10.884532,8.088848018427395,0.066412762365673
10.889112,8.103775032816644,0.0659761541303499
10.893704,8.124220838605927,0.0655259900146422
10.898295999999998,8.145033198537647,0.065061054823649
10.902884,8.157506279012242,0.0646267717420706
10.907484,8.17357709727743,0.064186150194623
10.912071999999998,8.188992850523263,0.0637395332193721
10.916656,8.2059631032361,0.06330350887205
10.92124,8.224732224844232,0.0628666119156554
10.925828,8.241702477557068,0.0624343419869584
10.930436,8.259083425860968,0.0620246121001083
10.935024,8.281450285259693,0.0615895808756073
10.939612,8.308436501610803,0.0611426623137922
10.944204,8.341430248218527,0.0606646871389117
10.948788,8.374301810112105,0.0601921156524522
10.953384,8.403986329806157,0.0597452990807141
10.957968,8.433304295357772,0.0593141842597899
10.962568,8.459313033995716,0.0589129623263852
10.967156,8.49030768372848,0.0584886850431062
10.971752,8.519136910423512,0.0580839147112018
10.97634,8.545145649061455,0.0576901796022709
10.98094,8.569477703518247,0.0572971906884261
10.985532,8.586247728251422,0.0569297065598491
10.990128,8.601873949108656,0.056574084118595
10.994704,8.617133615823453,0.0562317480280934
10.999292,8.626996675852363,0.0558950227965358
11.00388,8.634816497557685,0.0555710326687522
11.00848,8.639160766186562,0.0552466708971607
11.013068,8.637986243415408,0.0549319060338266
11.01766,8.638732774253693,0.054610977285666
11.02224,8.634082698406093,0.0542939260127388
11.026832,8.618927920063637,0.0540085525783581
11.031424,8.598498719749442,0.0537209890301536
11.036016,8.568219881959745,0.0534734614929623
11.040603999999998,8.538307598312485,0.0532093031346989
11.045188,8.505697011322283,0.0529446551380081
11.049764,8.471654109579223,0.0526639125075025
11.05436,8.436833958102659,0.0523760621930158
11.058948,8.392164169150597,0.0521270676367806
11.063555999999998,8.342875023246151,0.0518830879903938
