Time,Force,Position
9.813720000000002,3.2551939472751297,0.1698223793027437
9.818312,3.4603002848891684,0.1685300645763508
9.822904,3.6561576689667015,0.1677086797977284
9.827492,3.847507641174256,0.1669499096150378
9.83208,4.035860559530209,0.1660134315263573
9.836672000000002,4.208990895909928,0.1653717653571119
9.841268,4.375115745056388,0.1645587189674427
9.845852,4.534112922255443,0.1636524705724533
9.850448000000002,4.686759677240597,0.162668488607775
9.855024000000002,4.836775932516585,0.161524890116683
9.859612,4.977088397216373,0.1604557530212416
9.864216,5.10650912601539,0.1593931977278775
9.868804,5.223850173589072,0.158323644580258
9.873412,5.330177300547836,0.1572615037938677
9.878000000000002,5.421770584386951,0.1562835723978181
9.882592,5.502349947611149,0.1553099947006163
9.887188,5.574291280869566,0.1543491982089689
9.891784,5.642913147582571,0.1533558074151409
9.89638,5.712145937866307,0.1523411905748949
9.900972,5.777981218339115,0.1513400698023503
9.905568,5.833389839582583,0.1505302174226851
9.910152000000002,5.890509046824094,0.1495893026877704
9.914752000000002,5.943575679235317,0.1486496009841604
9.919332,5.985927141540285,0.1478472731379418
9.923932,6.019606672062582,0.1471359882695861
9.928516,6.052586996116894,0.1463726170138964
9.933108,6.084090863969719,0.1455703727127839
9.937688,6.112441591439906,0.1447512377286232
9.942280000000002,6.135718124918017,0.1439532030040861
9.946880000000002,6.147135684413931,0.1433134850620957
9.951480000000002,6.152090876613537,0.1427406583326652
9.956072,6.153404189573923,0.142179742534638
9.960664,6.1504646997243615,0.1416731509625135
9.965252,6.144005515349726,0.141167301911809
9.969844,6.134437332041082,0.1406802834548083
9.974432000000002,6.120738530636635,0.140237024151317
9.979028,6.105851783907621,0.139777143634189
9.98362,6.085568430492719,0.1393987474251866
9.988208000000002,6.058456155639073,0.1391015234216565
9.9928,6.024925654937745,0.1389088970486671
9.99738,5.989718470055268,0.1387371153048577
10.001976,5.952345862135056,0.1386157586246527
10.006560000000002,5.916772123110142,0.138462392154032
10.011148,5.88696154491355,0.1381976213166816
10.015744,5.861525954241055,0.1378697946306447
10.020332000000002,5.836867613302059,0.1375345142335562
10.024936000000002,5.81286433738242,0.1372005287032865
10.02952,5.788250137892055,0.1369084884938579
10.034108000000002,5.765845502888049,0.1366097944512796
10.038708000000002,5.749248170160996,0.1362521565898771
10.043304,5.737680889977392,0.1358402595566044
10.0479,5.726035566528269,0.1354849598297366
10.052476,5.717132687870721,0.1351380028607632
10.05708,5.707785211805216,0.1348752670907947
10.061668,5.702323984407223,0.134589613173291
10.066268,5.697928517619649,0.1343305601398913
10.07086,5.69087888893776,0.1341610844386626
10.075456,5.689636562532824,0.1339342461491562
10.080040000000002,5.693957168976548,0.133668232024115
10.084632,5.710381118830761,0.1332524804856802
10.08922,5.737109543200166,0.1327167300963771
10.093816000000002,5.768090770379518,0.1321398254086764
10.098412,5.800259942883439,0.1315895323985051
10.103008,5.834149941017136,0.1310803628381998
10.107596,5.867429015580107,0.1306224717903795
10.11218,5.901773850753498,0.1301958355536062
10.116772,5.937184446537313,0.1298029921012122
10.121364000000002,5.977747279578722,0.1293614895000793
10.125956,6.018842992925342,0.1289385836289701
10.130544,6.0636586287767,0.1284695660874108
10.135136,6.103488353533236,0.1280939293668068
10.139728,6.147160185508655,0.1276578353287162
10.14432,6.19287525580766,0.127187931093599
10.148908,6.241777368306192,0.126650418692495
10.153496,6.293866523004251,0.1260557373582939
10.158104,6.350575034654696,0.1254066147111965
10.162692000000002,6.410348403790522,0.1246980740652784
10.167292000000002,6.462926297345164,0.1240793118548912
10.171884,6.517014548918183,0.1234240140837064
10.176472,6.565539867642539,0.1228113724364066
10.181068000000002,6.607480634356442,0.1222544622966081
10.185656,6.646068032708044,0.1217308891160232
10.190248,6.6826902360015765,0.1211971477147978
10.194836,6.715914929484181,0.1206492025470726
10.199436,6.747174427908716,0.1200879626955806
10.204024,6.776713100703472,0.1194979475139462
10.208628,6.80171045981136,0.1189141796023539
10.213216,6.818080028585206,0.1184053368853242
10.21782,6.830685533405688,0.117899108176159
10.222412,6.837728105377509,0.1174180652952216
10.227008,6.848813012547875,0.1168263784932261
10.231592,6.856011671050729,0.1162460468980467
10.236188,6.856503592828984,0.1157088654793303
10.240776000000002,6.856174123425109,0.1151325800066305
10.245368,6.850936786191929,0.1145824993897588
10.249956,6.838093277786502,0.1140828455933443
10.254552000000002,6.824961258504154,0.1135551520083469
10.25914,6.81705951974492,0.1129381046622035
10.263724000000002,6.8011850556710005,0.1123903606301449
10.268312,6.779669615482903,0.1119053109229214
10.272908,6.757499110275448,0.111411383609129
10.277500000000002,6.7319752367056935,0.1109340563647116
10.282100000000002,6.701954190897698,0.1104959599628263
10.286684,6.66923484174676,0.1100793310576643
10.291272,6.635616058148173,0.1096678063563415
10.295864,6.599954036225999,0.1092846780113052
10.300452000000002,6.568011936808563,0.1088566618480671
10.305036,6.537091456552924,0.1084088992701471
10.309632,6.509890898802017,0.1079163928639863
10.31422,6.48130216774688,0.1074588863973358
10.318824,6.44723878674034,0.1071010183390807
10.32342,6.413708286039011,0.1067545790153315
10.328008,6.383653338414128,0.1063790759746781
10.332612,6.350944228894929,0.1060705084205466
10.337204000000002,6.3186458149667954,0.1057811363449102
10.3418,6.288801334953313,0.1054798666308623
10.346380000000002,6.2605113544068365,0.1051743130458671
10.350972,6.2301781355367725,0.1048970907962126
10.35556,6.20229885058136,0.10460874240941
10.360164,6.180715606759483,0.1042622605119531
10.364752,6.157744189633374,0.1039522655696824
10.369352,6.139925009764863,0.1036078836855003
10.373948,6.128157501601596,0.1032214404053307
10.378544,6.123096730162931,0.1028027412964263
10.383136,6.118568839029474,0.1023980966842365
10.387732000000002,6.118293750705967,0.1019697217042938
10.39232,6.11663048907823,0.1015812706947099
10.39692,6.12396157192697,0.1011190887953914
10.401512000000002,6.132602784814424,0.1006771396401221
10.406104,6.144719550778322,0.1002129702978078
10.410696,6.162355108142254,0.0996960971085191
10.41528,6.183466218582631,0.0991612267756047
10.419860000000002,6.206909078223514,0.0986303684474768
10.424452,6.233827490940845,0.0980795777796341
10.429044,6.266142510344061,0.0974934326330922
10.43362,6.300012029214283,0.0969103259293866
10.438212000000002,6.334170058961425,0.0963661119212879
10.4428,6.372336522090222,0.095823167213573
10.447388000000002,6.414755788028967,0.0952648423814848
10.451996,6.458851738148862,0.094708444073092
10.456584,6.512963651907029,0.0940826511434285
10.461196,6.567852815398698,0.0934681679074968
10.465784,6.624296478357372,0.0928664707368098
10.470392,6.679962891582544,0.0922764571018163
10.47498,6.739227042598307,0.0916678874497756
10.479568,6.799512812775864,0.0910566657661094
10.484164000000002,6.860575832686922,0.0904500980622635
10.488756,6.917918930093244,0.0898881582856227
10.49336,6.975384212213712,0.0893298035196057
10.497936,7.03566998239127,0.088757730916146
10.502536,7.097754621464122,0.0881849318761602
10.507124,7.162904118022355,0.0875924140322568
10.511716000000002,7.2303412223324655,0.0869752396570846
10.516304,7.29712326162322,0.0863564799912859
10.520904,7.359285943961589,0.0857773901615826
10.525496,7.421570811014104,0.0851960508513894
10.530092000000002,7.480624494418464,0.0846183402013342
10.53468,7.53759079805061,0.0840310799081534
10.539268000000002,7.595045840539339,0.0834286084044
10.543856,7.653889056332298,0.0828090969569925
10.548448,7.7057811659723665,0.082223551464473
10.553036,7.755097156983636,0.0816495423042357
10.557624,7.799016541309019,0.0811023971250958
10.562204,7.840237622291458,0.0805721742441616
10.566808,7.878760399930955,0.0800575907811517
10.571392,7.913807624494004,0.079556401261865
10.575984,7.950365207075431,0.0790267736366741
10.580576,7.986145539923355,0.078499753655291
10.585156,8.017673069961331,0.0779824120074033
10.589752,8.044825612475213,0.0774810103229971
10.59434,8.069113525483377,0.0769641503780832
10.59892,8.085184343748567,0.0764867085171943
10.603528,8.098679043384958,0.0760181034197853
10.608116,8.108820374659048,0.0755508128141452
10.612724000000002,8.11752939118028,0.0750726231914251
10.617312,8.127870950434035,0.074560908671017
10.621900000000002,8.137435259954287,0.0740457590089385
10.626504,8.143401831683946,0.0735424145854929
10.631096,8.14397179672772,0.0730571740688238
10.635696,8.138123535923812,0.0725980198531643
10.640292,8.12933260234867,0.0721568252387518
10.644888,8.11910935402067,0.0717033680386947
10.649468,8.11051864842519,0.0712124715696062
10.654068,8.098452389753264,0.0707243371688849
10.658656,8.088018673813862,0.0702007686089249
10.66326,8.07860657703625,0.0696687092075424
10.667852000000002,8.064452938592112,0.0691592861750252
10.672448,8.046823747071526,0.0686524488869513
10.677032,8.027151317227354,0.0681578887612006
10.681624,8.007601072097327,0.0676562128571922
10.686224,7.985763219215421,0.0671794052247916
10.690816,7.963925366333516,0.0666990732443191
10.695416,7.937101602356789,0.0662496394305928
10.700008,7.915019380046592,0.0657769076840535
10.704596,7.893592222755752,0.0653112079404887
10.709184,7.865380285474793,0.0648790862551725
10.713772,7.844075312898099,0.0644058910462553
10.718368,7.825224274236056,0.0639362590929895
10.72296,7.81291364613584,0.0634432197388968
10.727556000000002,7.803056951950275,0.0629544336441313
10.732148,7.7952434960882995,0.0624491564634733
10.736736,7.790905593302767,0.0619432503428521
10.741336,7.78812218998424,0.0614458533784663
10.745924,7.789958143618098,0.0609343833617677
10.750516,7.790405923947725,0.0604478839009545
10.755108000000002,7.791875323439147,0.0599560157103884
10.759696,7.797964079882953,0.0594525220362335
10.764304,7.807528389403204,0.0589494406580422
10.768892,7.821834240589985,0.0584288688544653
10.773504,7.837938960672063,0.057907797781568
10.778092,7.85661979938294,0.0573895652588971
10.78268,7.876977322274966,0.0568736301660966
10.787276,7.902076386833523,0.0563410458864296
10.791864,7.92182298615482,0.055852730643332
10.796468,7.944512258247352,0.0553529990415967
10.801048,7.973253202045129,0.0548573035184342
10.80564,7.992022323653261,0.0544162157553223
10.810228,8.011935249137332,0.0539656336809627
10.814828,8.025596274936497,0.0535595785374711
10.819412000000002,8.038357866288013,0.0531546807900907
10.824016000000002,8.051774522658887,0.0527605617783383
11.131604,1.939501271799177,0.0524535178267871
