Time,Force,Position
10.424064,3.4253752925923013,0.1719666209105588
10.428651999999998,3.5858016016225425,0.1716277409659508
10.437848,3.869125525231777,0.1714324656093517
10.44244,3.9957430623155097,0.1713617014873358
10.447027999999998,4.122139892156101,0.1709429726391571
10.451616,4.245373341982315,0.1702217983023641
10.456212,4.360291174536558,0.1694395833261035
10.460792,4.46297323933443,0.168831679553446
10.465396,4.559427066632546,0.168116345765668
10.469983999999998,4.652517285936621,0.1673007340905726
10.474579999999998,4.741222278084865,0.1664130877467045
10.479168,4.823376620039544,0.1655655631033625
10.483768,4.913082752086104,0.164356224840515
10.488355999999998,5.001845308236388,0.1631571128970548
10.492952,5.091507298834321,0.1619737610736921
10.497535999999998,5.183422995367243,0.1608477208900048
10.502131999999998,5.272151649700636,0.1598575122909913
10.50672,5.359736500158091,0.1589167736627
10.511311999999998,5.447321350615548,0.1579700620348178
10.515904,5.526322552187589,0.1572699955333641
10.520496,5.605856634064844,0.1565973487625953
10.525083999999998,5.691808941789777,0.1558089657982221
10.529672,5.779071379553424,0.1550152229859808
10.534259999999998,5.868088544763738,0.1541614451150021
10.538859999999998,5.94823355021172,0.1535173685908226
10.543448,6.026824056192701,0.1529084576108255
10.548024,6.101450270240649,0.1524027458544718
10.55262,6.173866919802239,0.1519095969995193
10.557208,6.24431837430576,0.1514232852140441
10.5618,6.309573450103055,0.150982570063084
10.566387999999998,6.373063558821944,0.1504883884687778
10.570968,6.430413712938335,0.1499999203927706
10.575572,6.47165209026258,0.1497352450613937
10.58016,6.5041743943555295,0.149501022853378
10.584763999999998,6.532355612741272,0.1492366040627411
10.589348,6.555785049828744,0.1489184109857069
10.593928,6.576427900676018,0.1485546020329243
10.59852,6.599436402540688,0.1480828664736511
10.6031,6.622645132385019,0.1475517318733592
10.6077,6.64670915522837,0.1469621726377056
10.612291999999998,6.667497852974941,0.1463618890189816
10.616887999999998,6.681413487834136,0.1458094896339935
10.62148,6.698183512567309,0.1451207707891604
10.62608,6.711189473347117,0.1444567888824932
10.630663999999998,6.7203091854594135,0.1438146576918332
10.635256,6.725009768598989,0.14318617909123
10.639836,6.729011145270579,0.1425098636910863
10.644432,6.734889434102983,0.1417593149847794
10.649024,6.7381474628579605,0.1409972487060214
10.653615999999998,6.737274873517135,0.1402716372988421
10.658195999999998,6.730106243042775,0.1396327979148268
10.662784,6.72281542785427,0.1390007695364878
10.667364,6.719611089312939,0.1382834179605407
10.671956,6.721148292438138,0.1374892382526009
10.676548,6.721008811382187,0.1367131245007924
10.681136,6.721646580059739,0.1359334290240125
10.685728,6.721018360147204,0.1351875859134238
10.690316,6.7182247171969385,0.1344939672995218
10.694908,6.715186704818379,0.133816704712505
10.699495999999998,6.709083834954441,0.1331955432354112
10.704084,6.703513845395713,0.1325858445007615
10.70868,6.699009616447408,0.1320003715597132
10.713268,6.690707421728847,0.1315209801439958
10.717856,6.6814277492971215,0.1311033234287764
10.722452,6.676689390552263,0.1306715950728986
10.727044,6.677147410513628,0.1302319214919316
10.73164,6.682024559447715,0.1297889561371213
10.736228,6.68747873013564,0.1294036229179394
10.740823999999998,6.695475117635475,0.1290866525688843
10.745416,6.712632175774563,0.1286994623411834
10.750012,6.736417927372734,0.1283074074204378
10.754599999999998,6.764256253801189,0.1279375280466439
10.759204,6.795125535898135,0.127607484692148
10.763799999999998,6.828248523930071,0.127325753282951
10.768399999999998,6.868366759563526,0.1270260677159063
10.772984,6.912659754741411,0.1267448422922986
10.77758,6.963292932501459,0.1264385293193453
10.782168,7.016302000910642,0.1261701132250964
10.78676,7.075651251901989,0.1258823516957989
10.791351999999998,7.145427162122672,0.1255065160765271
10.795944,7.21986657074437,0.1251228131802399
10.800532,7.296271174424135,0.1247568152501535
10.80512,7.377461461219059,0.124374230181939
10.809708,7.462782366109788,0.1239693525242211
10.814292,7.550679389629314,0.1235502767195489
10.818884,7.638576413148839,0.1231401218744218
10.823468,7.730437728601392,0.1226917790912826
10.828064,7.826385520701121,0.1221961729870671
10.832644,7.924210224961662,0.1216455715520788
10.837236,8.014839453641018,0.1211709653339173
10.84182,8.104647291138246,0.1206702234038484
10.846412,8.190158184376896,0.1201651079193272
10.851,8.273293186966415,0.1196334478103621
10.855596,8.347922583936036,0.119158129969877
10.860184,8.411225887228673,0.1187710839029401
10.864788,8.468555562081582,0.1183896623123997
10.869379999999998,8.521954846818353,0.1179888021082212
10.873972,8.56794818836254,0.1175862782981154
10.878548,8.605513967552348,0.1172007896978506
10.883148,8.633752749940133,0.1168394302337469
10.887728,8.65368615468768,0.1164835066941267
10.892331999999998,8.667357420118584,0.1161042805564579
10.896912,8.669492124261104,0.1157389304730874
10.901496,8.662788570458176,0.1153651216415493
10.906088,8.647002389281514,0.1149941297632985
10.910683999999998,8.626630752969357,0.1145891980787231
10.915272,8.590147339865055,0.1142714416457605
10.919868,8.538329399702112,0.1140391119082922
10.924444,8.478738962204147,0.1138140989423519
10.929028,8.418571502952345,0.1135404668497748
10.933607999999998,8.351164426670731,0.1132846136560434
10.938192,8.280892720883399,0.1130168578380713
10.942783999999998,8.206856951142703,0.1127425792989743
10.947364,8.135064647705255,0.1123899989264532
10.951948,8.06539362585691,0.1119652510273575
10.956532,7.994290289255709,0.1115307498062644
10.96112,7.917301607112038,0.1111592855529461
10.965716,7.842233978577807,0.1107610356162524
10.970304,7.763324242824691,0.1103991049156954
10.974896,7.684292322357431,0.110035424998793
10.979487999999998,7.609513204700119,0.1096409685388082
10.984076,7.536943651529167,0.1092435959084422
10.988672,7.47095865036867,0.1088144427406835
10.993248,7.410414397342687,0.1083735796592937
10.997852,7.357354130774808,0.1078947445016247
11.002428,7.303316386493764,0.1074614292643024
11.007032,7.260360366461414,0.1069645698195721
11.011615999999998,7.22758663623011,0.1064107556520061
11.016215999999998,7.201808153600325,0.1058496956527512
11.020804,7.176318181847459,0.1053107847046141
11.025396,7.158434381266842,0.1047330655892198
11.029984,7.148156751858472,0.104119139823145
11.034576,7.141931697280389,0.10353468596315
11.039167999999998,7.136938729475499,0.103007832278407
11.043763999999998,7.137142140376834,0.1024935796484246
11.048352,7.142786299412683,0.1019793405521725
11.052948,7.157180433496721,0.1014117013570622
11.057532,7.176893131001128,0.1008535802881084
11.062128,7.205522129716496,0.100274611969838
11.066712,7.239347507138088,0.0997128550520951
11.071304,7.275915329351252,0.0991780024600211
11.075895999999998,7.318945518860726,0.0986381815425258
11.080484,7.3701147598476595,0.0980922788384743
11.085076,7.424148630340309,0.0975668141642313
11.089664,7.475528338938644,0.0971026090742232
11.094252,7.533614784261578,0.0966203273107696
11.098847999999998,7.594032978785019,0.0961493234912665
11.103436,7.657926726384906,0.0956706192169693
11.108028,7.720021605089497,0.0952095031721339
11.112624,7.788945405232834,0.0947294410613924
11.117212,7.855459412910147,0.0942978963033196
11.121816,7.918786378387933,0.0939145824623365
11.126404,7.986444189941186,0.0934817765742525
11.131008,8.057533413122256,0.0930027744129853
11.135595999999998,8.129888624893411,0.0925108537117815
11.140188,8.201710956359355,0.0920142270781094
11.144775999999998,8.26735943140591,0.0915499521739819
11.149368,8.330920526680249,0.0910782510284025
11.153956,8.395703469096048,0.0905593653831376
11.158556,8.456722347558479,0.0900342262905102
11.16314,8.513854977353397,0.089508647610618
11.167736,8.563503620690216,0.0890000522825116
11.172327999999998,8.603336528368423,0.0885063410702527
11.176923999999998,8.641570795130999,0.0879816243608434
11.181527999999998,8.680782539606742,0.0874147440867222
11.186123999999998,8.712632482338527,0.0868551681319947
11.190712,8.736099004164561,0.0863112385331835
11.195312,8.754002593141934,0.0857670141788876
11.199899999999998,8.769696617632947,0.0852138037541292
11.204488,8.774308917875267,0.0846848942079679
11.209075999999998,8.775279338878367,0.0841363683294718
11.213668,8.773262945661603,0.0835755017905753
11.218251999999998,8.767360303777329,0.0830101994008978
11.222827999999998,8.757327043797252,0.0824480630609754
11.227424,8.739443243216638,0.081906889121147
11.232012,8.71628502066428,0.0813801465657482
11.236596,8.695536590577948,0.0808171277532899
11.241192,8.671434792129313,0.0802554637652749
11.245779999999998,8.638871529509409,0.0797383922369437
11.250372,8.608595874641384,0.0791917982037734
11.25496,8.576887905020502,0.0786323915143967
11.259555999999998,8.548122608170857,0.0780501241411751
11.264152,8.518091322731124,0.077482376661355
11.26874,8.486016798967805,0.0769298519257817
11.273331999999998,8.453942275204488,0.0763756471221022
11.277924,8.426487108393555,0.0757987066214854
11.28252,8.405327982716157,0.0751992528481646
11.287112,8.385845541219908,0.0745977352529258
11.291707999999998,8.370205206942542,0.0739744515885638
11.296296,8.366501889912891,0.0733058454193106
11.300896,8.367051375693187,0.0726336132966418
11.30548,8.374019087321164,0.0719405796962506
11.310072,8.378210452340676,0.0712943863617126
11.314664,8.381790893789463,0.070672838199489
11.319259999999998,8.391667376371785,0.0700341296270235
11.323848,8.407062650354142,0.0693765965265409
11.32844,8.424667488822855,0.0687361088772714
11.333028,8.445381326225581,0.0681081549006812
11.33762,8.47149177031419,0.0674664977043767
11.342207999999998,8.49711347554622,0.0668505209895716
11.346787999999998,8.528542483055201,0.0662446847496168
11.351383999999998,8.5594827517076,0.065662154608038
11.355976,8.599783918978911,0.0650495987611837
11.360572,8.642661204879023,0.0644409115159755
11.365152,8.688891859141435,0.0638421927313661
11.369744,8.737454262604354,0.0632608433953112
11.374324,8.786793915800773,0.0626901939353152
11.378904,8.835522645426465,0.0621475944644528
11.383511999999998,8.881841582586134,0.0616377770485509
11.3881,8.923174608650982,0.0611625283355275
11.392708,8.971048045277653,0.060676649450895
11.397296,9.01802204745668,0.0602002737548686
11.401884,9.06703928795929,0.0597127164438628
11.406487999999998,9.124640177347317,0.0592016521112763
11.411076,9.183018316468845,0.0587010328427708
11.415672,9.244339128361604,0.0581969139514328
11.420252,9.308724797739748,0.0576839522997722
11.424852,9.375275890155622,0.0571610265062952
11.429439999999998,9.442604232304998,0.0566469753900112
11.434039999999998,9.504047228911906,0.0561564874699537
11.438628,9.562791922175869,0.0556738647538474
11.443228,9.624479288211068,0.0551841610191774
11.447824,9.67962624368444,0.0547150840532702
11.452415999999998,9.730808907224786,0.0542642842608701
11.457,9.7764727793651,0.0538251945908736
11.461595999999998,9.814941175924226,0.053392851342311
11.466184,9.846869161921529,0.0529745490890626
11.47078,9.877242648451825,0.0525488021666791
11.475367999999998,9.90606163551512,0.0521158879584419
11.479956,9.931160700073676,0.0516896654814388
11.48454,9.938193032413755,0.0513065256988885
11.489132,9.93231086979296,0.0509707206577271
11.493719999999998,9.92565145743866,0.0506306498241458
11.498312,9.903745800922978,0.0503261745690444
11.502904,9.869536573017143,0.0500455310328671
11.507495999999998,9.819836731521631,0.0498070123903362
11.512095999999998,9.75476846115059,0.0496058096307673
11.516676,9.679195488284693,0.0494266145641227
11.521268,9.594383801514024,0.0492552988788678
