Time,Force,Position
10.0857,4.7087087648913055,0.1564428085314175
10.09028,4.824071194853506,0.1558338160330012
10.09488,4.928341660935273,0.1552863489757689
10.099456,5.018533348916746,0.1547918551528093
10.104056,5.094768443512068,0.1543516782106413
10.108636,5.15729131414953,0.1539349597585628
10.113232,5.207900829724431,0.1534890668710896
10.117808,5.249705989170776,0.1530008456387782
10.122404,5.283039444814115,0.1525468725306283
10.127,5.31142089117952,0.1521262665580544
10.131588,5.33800346864963,0.151747710760015
10.136176,5.364463861405596,0.1513830474202575
10.14076,5.389125385266265,0.1510561732985879
10.14534,5.408145933012756,0.1508559314645045
10.149932,5.430475707672919,0.1505552963642337
10.154524,5.453538590617954,0.15019825553452
10.1591,5.473370289914834,0.1498822777320925
10.1637,5.488171936668265,0.1496392101577426
10.168276,5.505261191173575,0.1493287683560809
10.172864,5.523616434268968,0.1489740091343555
10.177468,5.540539362611503,0.1486257163128172
10.182056,5.5581953992389135,0.1482181383406641
10.186648000000002,5.572087371912956,0.1478332850882064
10.191236,5.589410756214819,0.1473435932390215
10.195824000000002,5.606079075497323,0.1468500692188787
10.200424000000002,5.623646829227478,0.1463426118061211
10.205024000000002,5.645545429033096,0.1457223958706154
10.209616,5.661925237438682,0.1452097672375094
10.214196,5.679448849720206,0.1446665469109959
10.218796,5.688755367258755,0.1442705074553201
10.223384,5.6965073853303,0.1438866537095745
10.22798,5.701927654201338,0.1435201193040561
10.232564,5.7050161738718685,0.1431695273351788
10.237164,5.7093706821324846,0.1427728116443486
10.241756,5.711393441192594,0.1423965208038131
10.246348,5.711739516071553,0.1420428710634511
10.25094,5.713351579540598,0.1416467668899602
10.255532,5.718561380800233,0.1411913613121088
10.260124,5.716086967622102,0.1408923164292347
10.264708,5.71373473915812,0.1405848362399675
10.269288,5.712281945141783,0.1402633356077644
10.273872,5.712750204734887,0.1399048624385917
10.278464,5.716161137099228,0.1394846580238619
10.283048,5.7166293966923325,0.1391271911407446
10.287632,5.717874906018941,0.1387644189483683
10.292208,5.72128583838328,0.1383491717243919
10.296792,5.717545436615066,0.1380958502019985
10.301384,5.715603903742148,0.1378141684401878
10.30596,5.71390674029752,0.1375160643227642
10.310568,5.72067104102416,0.1370677900698592
10.315152,5.727190972322509,0.1366363730338488
10.31974,5.736042652821364,0.1361909132472227
10.324332000000002,5.74992438586367,0.1356914847607534
10.328932000000002,5.766382237534772,0.1351624513669651
10.333536,5.784272403958735,0.1346378291745094
10.338124,5.803839254563846,0.1340999932394446
10.34272,5.825082789350106,0.1335520466664827
10.347308000000002,5.844405270526927,0.1330426106330585
10.351904,5.87206703116087,0.1323987705649715
10.356496,5.897685553471224,0.1318005495546832
10.361088,5.923059706353288,0.1312248339446982
10.365672,5.944591752016469,0.130719221208385
10.370264,5.963836189927772,0.130275421156783
10.374844,5.985901115896165,0.1297884975548913
10.379436000000002,6.011930333797586,0.1292335028510351
10.384024,6.030275337261241,0.1288102936638167
10.38862,6.052462447943778,0.1283184710532964
10.393208,6.075793362502256,0.127799990586357
10.397792,6.0951599851277045,0.1273574365436635
10.40238,6.108885631638974,0.1270076827900127
10.406972,6.12555395092148,0.1266063109393539
10.411556,6.141567205184629,0.126201276328892
10.416132,6.1530832872095385,0.1258563071818792
10.420724,6.161656696463213,0.1255644473341312
10.4253,6.1710073554503895,0.1252725795618411
10.429888000000002,6.176149353076244,0.1250691107507249
10.434492,6.180147546826162,0.1248959397862397
10.43908,6.18570024004308,0.1247174127385223
10.443688000000002,6.1872886413269725,0.124609965844092
10.448272,6.191330976525518,0.124485754493268
10.45286,6.193862953705686,0.1244139566686208
10.457452,6.202446602591096,0.1242815514785622
10.462040000000002,6.214505804552955,0.1241137816535357
10.466644,6.225831898229936,0.1239965795880623
10.471224,6.233726580279102,0.1239619594878779
10.475824,6.250615606804748,0.1238201769840368
10.480408,6.269303502225688,0.1236596397706935
10.485008,6.289301527685343,0.1235126369832279
10.489596,6.312897290935588,0.1233238595904291
10.494192000000002,6.340090791976426,0.1230940216074545
10.498788,6.365241054693676,0.1229029706888175
10.50338,6.392190186306222,0.1226941509605655
10.507972,6.425924097908885,0.1223867926148057
10.512568000000002,6.463866670872869,0.1220034949496374
10.517156,6.496534821865112,0.1216731541384659
10.521748,6.5307133308757335,0.1212901491988625
10.526336,6.561660656238199,0.1209254741339972
10.530924,6.59052060182845,0.1205541338485278
10.535516,6.61807041737999,0.1201705118572016
10.5401,6.643288483731021,0.1197948295460006
10.544684,6.669361843081072,0.1193641430921602
10.54926,6.688728465706523,0.1189845113893153
10.553856,6.704863904683818,0.1186229495613044
10.558432,6.720055767764839,0.1182286998792569
10.563024,6.732138631911848,0.1178412583666345
10.567612,6.736248770744174,0.1175349175798607
10.5722,6.733940683728818,0.1173042900942764
10.576784,6.725458740294072,0.1171342413667258
10.581376,6.7156666668206135,0.1169527354164966
10.585972000000002,6.70239904027071,0.116801936292723
10.590576,6.690519587025035,0.1166103894550523
10.595164,6.677985068760004,0.1164127062594673
10.599764,6.658010705485497,0.1163042012336518
10.60436,6.637259092477487,0.1161947990519062
10.608952,6.620349586688361,0.1160334720416271
10.61354,6.605483319222823,0.1158381935032114
10.618136,6.590494867043138,0.11564952648553
10.622716,6.574362610987515,0.1154840211352074
10.627316,6.560928658274835,0.1152905821576984
10.631908,6.54851632472395,0.1150799801504242
10.636500000000002,6.537247795049002,0.1148448444534909
10.641092,6.53059862232644,0.1145575128351023
10.645688,6.527014307089258,0.1142218989948488
10.650284,6.520365134366696,0.1139337007111314
10.65488,6.516536449701222,0.1136108484369641
10.65946,6.51937036031172,0.1132044269511048
10.664044,6.529233420340629,0.1126925546365122
10.668636,6.547680129254951,0.1120750014473157
10.673224,6.5628176112556,0.1115186468074657
10.677812,6.581308461618549,0.1109433611166353
10.682408,6.601353811448503,0.1103719588232226
10.687,6.619766618545937,0.1098551896937438
10.691580000000002,6.643453847615112,0.1092964090031588
10.696172,6.665508533951765,0.1087947269224414
10.70076,6.689117719755423,0.1082964626572914
10.705336,6.716080273921381,0.107788523966845
10.709948,6.745496762001991,0.1072709543483455
10.714536,6.781087106501991,0.1067096823526707
10.719136,6.816310896859553,0.1061736754601127
10.723728,6.854110805845913,0.1056272813953549
10.728316,6.893998094604488,0.1051016304150024
10.732907999999998,6.935317698115922,0.1045912770143796
10.737496,6.973983139733042,0.1041480702610716
10.742092,7.023031099130868,0.1036057375803634
10.74668,7.077597849928729,0.1030253128764113
10.75128,7.130898612136505,0.1024815546440746
10.755868,7.18334408134526,0.1019948671062671
10.760468,7.231048008887486,0.1015632120236701
10.765048,7.285658901133975,0.101054958471896
10.769648,7.342557401132342,0.1005163854253051
10.774232,7.398556466683061,0.0999922235863946
10.778824,7.45631025968045,0.0994189765063131
10.783411999999998,7.515574410696211,0.0988196681293708
10.788008,7.577370538892145,0.098176987524656
10.792608,7.636834917887572,0.0975400062022217
10.7972,7.6920464940730495,0.0969292408584105
10.801776,7.749667862724553,0.0962829419870296
10.806372,7.804180232442046,0.0956447376641751
10.810956,7.856483037673179,0.0949995124929835
10.815556,7.906576278417951,0.094353594190718
10.82014,7.949063347990474,0.0937329637733935
10.824728,7.988685788057281,0.093104481622055
10.82932,8.02850845610375,0.0924274811067653
10.833908,8.05549467245486,0.0918405766388602
10.8385,8.07426379406299,0.0913098975263343
10.843088000000002,8.0911899053272,0.090755000280029
10.84768,8.106883929818213,0.090147717118466
10.852272,8.123188877879953,0.0895126996798971
10.856864000000002,8.134341588684098,0.0888978998470163
10.861472,8.139564812497145,0.0883003798770061
10.866064,8.139102918747387,0.0877044441572613
10.870652,8.139007579140065,0.0870934959687251
10.875248,8.131594579237415,0.0865241487916838
10.879844,8.115964484591789,0.0859978228967148
10.884448,8.099801509640951,0.0854574501612274
10.88904,8.081184600775462,0.0849160948783204
10.893632,8.057415454652375,0.0843870901657035
10.898212,8.02939350571934,0.0838641365896042
10.902808,8.006479652595276,0.0832916435789613
10.907396,7.98548685308065,0.082705860355544
10.912,7.975120940775026,0.0820447542910589
10.91658,7.963733409307608,0.0813926287159781
10.921176,7.953245312287837,0.0807365340238273
10.925768,7.948520376096391,0.0800382204975051
10.93036,7.946083047656824,0.0793077946400591
10.934964,7.943034795646528,0.0786052073386111
10.93956,7.936066393151832,0.0779683493219178
10.944156,7.926932567619405,0.0773543432923735
10.948747999999998,7.923317533487009,0.0767169829572692
10.95334,7.923955302164561,0.0760752149550539
10.957923999999998,7.930644742547357,0.075421970507226
10.962504,7.937744878521218,0.0747920716454897
10.9671,7.95011943646682,0.0741497439870906
10.971692,7.970833273869545,0.0734692709819503
10.976284,7.993878860472775,0.0728004337269051
10.980876,8.0220766843336,0.072128410570109
10.985456,8.055182376023732,0.071464953428215
10.99004,8.091274881933725,0.0708179148505692
10.994632,8.124713225949403,0.0702218746871591
10.99922,8.15484234305141,0.0696645785465707
11.003828,8.173855834087835,0.0691927008396517
11.008408,8.195323259038911,0.0687270540831101
11.012996,8.219366802618783,0.0682643443291665
11.017592,8.243943226503868,0.0678181309688117
11.022188,8.27187301875125,0.0673777689311937
11.026784,8.301723864608077,0.0669295362430515
11.031376000000002,8.33733787129323,0.0664539980789341
11.03598,8.377571234930763,0.0659661818202943
11.040556,8.414861925797062,0.0655017746948318
11.045156,8.451008812787425,0.0650538808048135
11.049736,8.488954568673082,0.0646085564962005
11.054336,8.5224031523205,0.0641738701644781
11.058924,8.554830116806123,0.0637494812400886
11.06352,8.584314408520513,0.0633443239757077
11.068104000000002,8.611999831339604,0.0629451561117621
11.0727,8.636087516368107,0.0625547974303064
11.077288,8.659520136377251,0.062159639883609
11.081884,8.688960286643013,0.0617354958591324
11.086472,8.720565859946507,0.0612972563807876
11.091068,8.752415802678291,0.0608495367760967
11.095656000000002,8.790395460380836,0.0603634429565312
11.100244,8.823511391702707,0.059899644030787
11.104832000000002,8.852540846377401,0.0594636974214792
11.109436,8.882836289642185,0.0590152617884994
11.11402,8.909411810402228,0.0585793395936499
11.118612,8.935454450857058,0.0581326120571385
11.123208000000002,8.958021538235446,0.0576879291407613
11.127796,8.976868703109096,0.0572545592384234
11.132388,8.98970833772613,0.0568500608635198
11.136976,9.000216223142656,0.0564344662951327
11.141564,9.003284263549713,0.0560362695952441
11.146176,9.006107934528474,0.0556457446777231
11.150764,9.002757749087847,0.0552544525779165
11.155360000000002,8.998630313913717,0.0548589888003607
11.159952,8.991804575396644,0.0544647298499524
11.164556,8.981258914374836,0.0540758167858806
11.169148,8.9641728427912,0.0536999742134719
11.17374,8.934416645674974,0.0533704660555287
11.178332,8.897220603549277,0.0530536444306957
11.182924,8.861046180585372,0.0527296520110056
11.18752,8.822706334583735,0.0524197900247157
11.192096,8.786409726905685,0.0520973748657552
11.196696,8.753833041732372,0.0517682183867179
11.201276,8.714349391854794,0.0514642533533349
11.205876,8.672822503653633,0.0511685233457724
11.210464000000002,8.628519268844009,0.0509108168984275
11.21506,8.583971664606095,0.0506606703782683
11.219648,8.53738082204459,0.0504185816995914
11.224240000000002,8.493854836968469,0.0501585465701177
11.228832,8.45049517805512,0.0499258309641944
11.233428,8.40689114971348,0.0497003033306599
11.238016000000002,8.363164936657697,0.0494777251406543
11.242612,8.323569341697713,0.0492665787927166
11.2472,8.281563954271705,0.0490790601925226
11.251784,8.239069827989116,0.0489097483260143
11.256372,8.196864212583446,0.0487640694956879
11.260964,8.156868161664137,0.0486370626834528
11.265556,8.124800694610885,0.0484762875676506
