Time,Force,Position
13.720384,8.36003226851607,0.151036281637241
13.724976,8.483282323817372,0.1502094053946543
13.729563999999998,8.584969614560274,0.149483828113365
13.73416,8.672822496631174,0.1487772941001233
13.738739999999998,8.750438707820658,0.1480405375749675
13.743328,8.811854859320743,0.1474108726193848
13.74792,8.865987252342386,0.1468094310920456
13.752508,8.919542623610194,0.1461819028991487
13.757111999999998,8.96970048506707,0.1455573620527328
13.761704,9.01417322896114,0.1449804744405046
13.766291999999998,9.061911058320256,0.1443158530787703
13.770891999999998,9.10494124782973,0.1436491732908356
13.775491999999998,9.140321124718328,0.1430215704593749
13.780088,9.168461384577114,0.1424476734091417
13.784676,9.191283081015529,0.1418974693364556
13.789272,9.217492047633137,0.1412599276491073
13.79386,9.244145611658697,0.1405742140789256
13.79846,9.266135677283245,0.1399120117040194
13.803048,9.285916178421433,0.1392567846215435
13.807643999999998,9.305530353396843,0.1385766142336476
13.812228,9.3237122136194,0.1379023423167982
13.816819999999998,9.338051966623071,0.1372739434701673
13.821408,9.35839924988336,0.1365644254653807
13.826004,9.37899090257194,0.1358453507601964
13.830588,9.400848543850602,0.1351060624171403
13.835184,9.423072739271705,0.1343497244530283
13.839767999999998,9.443620250511652,0.1336047535974585
13.844364,9.4553397434379,0.1329694654491584
13.848952,9.465260367468847,0.1323510922636159
13.853547999999998,9.475180991499798,0.1317327558137407
13.858136,9.480892954169429,0.1311773545256979
13.862728,9.483540059353675,0.1306622001083998
13.867312,9.486842229557285,0.130150243289001
13.871892,9.487978976723156,0.1296708034459561
13.876484,9.4877275505848,0.1292209385601844
13.881075999999998,9.4775043022568,0.1288951600135585
13.885652,9.460906969529743,0.1286608751420389
13.890264,9.447907374593283,0.1283946937828876
13.894851999999998,9.436462279123829,0.128124019086301
13.899451999999998,9.42632731369308,0.1278596305901382
13.904047999999998,9.410839883025076,0.1276717786617598
13.908636,9.39960525516702,0.1274559466237862
13.91324,9.390335822367032,0.1272504163777285
13.917827999999998,9.382132150177467,0.1270626321258435
13.922432,9.373073184988886,0.12691302589417
13.927012,9.36879990291546,0.1267463540634293
13.931612,9.370333923118988,0.1265505453322159
13.936199999999998,9.382783341408436,0.1262633098085883
13.940796,9.402472376727694,0.125951332831267
13.945379999999998,9.424126607105022,0.1256508394263883
13.949979999999998,9.450033640292297,0.1253272575806122
13.954564,9.482891779632462,0.124959813242779
13.95916,9.520369275925011,0.1245569847778116
13.963751999999998,9.56275464004687,0.1241354606089935
13.968344,9.608493372531026,0.1236979870021535
13.972931999999998,9.665802568120458,0.1231781900199078
13.977527999999998,9.729529989557571,0.1226052778835729
13.982116,9.792113607118743,0.1220575691443257
13.986703999999998,9.85326490992706,0.1215124100752952
13.991292,9.916703820487252,0.1209401902813623
13.995879999999998,9.988848564647004,0.1202859373512868
14.000464,10.0603382437874,0.1196339104970642
14.005055999999998,10.12974054315558,0.11898420486673
14.009648,10.200242504951074,0.1182962589912615
14.014236,10.269434336707851,0.1176047182320584
14.01882,10.333185420330116,0.1169280145224842
14.023412,10.390351951941923,0.1162805418536313
14.028,10.43954575823905,0.1156897193860246
14.032592,10.48072269777286,0.1151245093496117
14.037172,10.52107824612454,0.114535159437933
14.041759999999998,10.559957338274735,0.1139211517918086
14.046355999999998,10.595194551185712,0.1133081061690625
14.050948,10.624257907677295,0.1127340012149247
14.05554,10.649268689338596,0.1121440874370545
14.06012,10.67615638316071,0.111515921257758
14.064711999999998,10.695682275238866,0.1109130073908334
14.069292,10.713365156973095,0.1102969141323609
14.073892,10.727939039773322,0.1096847285250177
14.078487999999998,10.740058988658896,0.109078758495959
14.083087999999998,10.748825569182166,0.1084869524276123
14.08768,10.75256209716199,0.1079151554264868
14.092276,10.753966875941304,0.1073450013510116
14.096863999999998,10.75279553609182,0.1067855571857562
14.101459999999998,10.748925892899395,0.1062421185466908
14.106048,10.743868304382405,0.1056853043807114
14.110644,10.741753388636642,0.1051053469740659
14.115232,10.740660092052678,0.104514452609932
14.11982,10.735436177372913,0.1039299579024227
14.1244,10.733154935464372,0.1033214495785835
14.128991999999998,10.729319194088836,0.1027131161532335
14.133584,10.719598107170825,0.1021496786021886
14.138176,10.708078151357524,0.1015948879699478
14.142772,10.695125880791364,0.1010331825198773
14.147348,10.682706490530412,0.100479542014428
14.151928,10.661825636098197,0.0999786594301622
14.156511999999998,10.63632542471359,0.0995012455516809
14.1611,10.60596148694831,0.0990574778787415
14.165687999999998,10.573432126145295,0.0986339965769342
14.17028,10.54245726480929,0.098208874398195
14.17488,10.508295361273754,0.0978132129116737
14.179476,10.471312969681131,0.0974327139151961
14.184067999999998,10.436906696717305,0.0970421452305196
14.188672,10.403155488772835,0.0966546564326413
14.193252,10.366339423342987,0.096291502501685
14.197839999999998,10.329934053504203,0.0959404348451382
14.202428,10.292018325647044,0.095615163698607
14.207032,10.255534912542744,0.0952937651555733
14.211619999999998,10.228823093648424,0.0949299548093083
14.216219999999998,10.201500351183372,0.09458811208741
14.220816,10.174343934881096,0.0942682686363981
14.225408,10.151440321388767,0.0939359657329952
14.230004,10.128580849345068,0.0936307542409125
14.234595999999998,10.113449733187764,0.0933034285041512
14.239184,10.103470854288055,0.0929627857046665
14.243784,10.101342515988884,0.0925961356988929
14.248371999999998,10.106043099128458,0.092211115005175
14.252968,10.118594222868577,0.0918014893794585
14.257547999999998,10.137807941884663,0.091352677471197
14.26214,10.159597779529545,0.0908989943894974
14.266728,10.1906263310792,0.0904021079714933
14.271319999999998,10.229383238515249,0.08988893522831
14.275912,10.269939014846592,0.089373702302592
14.280499999999998,10.313070909806736,0.0888551330592054
14.285095999999998,10.364053345367417,0.088316844577293
14.289675999999998,10.41965513788048,0.0877619909511317
14.294268,10.47627854955534,0.0872026657459119
14.298864,10.535067384267933,0.0866280741114672
14.303451999999998,10.590913546209292,0.0860784323873652
14.308044,10.645738088988852,0.0855378141556188
14.312623999999998,10.7036274892538,0.0849777457854713
14.317223999999998,10.761516889518743,0.0844200868209404
14.32182,10.823859320573296,0.0838235274850197
14.326416,10.881704579389616,0.0832487645740789
14.331012,10.931332743462956,0.0827085534791556
14.335603999999998,10.979406408069291,0.0821705641722965
14.340196,11.032588168484594,0.0816038463341006
14.344775999999998,11.083315994985243,0.081042791482785
14.349375999999998,11.130978964000514,0.0805070803498651
14.353955999999998,11.177209618262925,0.0799679811008233
14.358555999999998,11.217921481125304,0.0794545356617897
14.363148,11.253236737301796,0.0789601495977429
14.36774,11.284832070973552,0.0784828666049188
14.372327999999998,11.311152982673566,0.0780169794967779
14.376924,11.332566026544274,0.0775525753217515
14.381524,11.349237528748452,0.0771106575871408
14.38612,11.367952269276216,0.0766588998899645
14.390712,11.389365313146923,0.0762047671445661
14.395303999999998,11.409346042264776,0.0757444871450386
14.399892,11.432635998296297,0.0752595959054439
14.404483999999998,11.455026519880173,0.0747796817654498
14.409076,11.482402952558866,0.0742773762210033
14.413672,11.50785833162812,0.0737869082771989
14.418255999999998,11.532780830392166,0.0732881157866298
14.422848,11.56142325166095,0.072777137492778
14.42744,11.588266804034433,0.0722717867071954
14.432028,11.608692130560238,0.071787519562932
14.436624,11.628218022638396,0.0713068784423533
14.441207999999998,11.64888771859249,0.0708183602964982
14.445796,11.668413610670648,0.0703402320828005
14.4504,11.687528807157737,0.0698497484999779
14.454987999999998,11.707254927215558,0.0693408975700589
14.459576,11.72824703586346,0.0688201315166229
14.464163999999998,11.7529590670161,0.0682887936334208
14.468752,11.777671098168742,0.0677584753142693
14.473348,11.803771302625613,0.0672126437201974
14.477939999999998,11.822553846787155,0.0666834661622719
14.482544,11.83401873065337,0.0661719536791167
14.487124,11.848181917862526,0.0656579228733739
14.491724,11.858625182566945,0.0651545117726917
14.496311999999998,11.87009006643316,0.0646483663550151
14.500915999999998,11.875258909165838,0.0641535589863565
14.505508,11.877729448555574,0.0636629287732776
14.510108,11.882776106574108,0.0631737439442413
14.5147,11.88728988428743,0.0626751436737787
14.519296,11.892825281162544,0.0621722524935849
14.523887999999998,11.898238493323518,0.0616731473042862
14.528484,11.90275227103684,0.0611754971843342
14.533072,11.905589364569012,0.0606770116819831
14.537672,11.911491315586565,0.0601659370380074
14.542263999999998,11.915760723871598,0.0596772590264893
14.546848,11.91749815497646,0.0592114420640038
14.551436,11.91874684722474,0.0587607710749877
14.556024,11.92473708113955,0.0583012475389133
14.560608,11.935102302578454,0.0578433392424729
14.565204,11.944201535427275,0.0573975626146126
14.569788,11.958697374961982,0.0569470431208788
14.574372,11.977690386734928,0.0564938450908275
14.578967999999998,11.995661779346085,0.0560472217795893
14.583556,12.020828647538416,0.0555985080253183
14.588148,12.043952277407168,0.0551600947194894
14.592743999999998,12.067242233438686,0.0547423997902063
14.597332,12.08992126589948,0.0543420642866793
14.601928,12.105815518370155,0.0539594724941704
14.606516,12.123019900879545,0.053591059799958
14.611104,12.141778782855935,0.0532304039480613
14.6157,12.161314914565832,0.0528735701462524
14.620292,12.181628296009231,0.0525206038107698
14.624888,12.203496176919632,0.0521750565729174
14.629476,12.219234342859275,0.0518527849840953
14.634076,12.2388146160178,0.0515229895895682
14.638656,12.259416508338116,0.0511888044452166
14.643256,12.273600174810753,0.0508588451895472
14.647844,12.27883363825554,0.0505563801307538
14.652444,12.27188571502432,0.0502699111785951
14.657036,12.262650184041224,0.0499970585128957
14.661632,12.24830655724916,0.0497420314020038
14.66622,12.22039337047686,0.0495156294882782
14.670816,12.18569540371444,0.0493030841242224
14.675404,12.136650627238287,0.0491161749567147
14.679996,12.078777832448427,0.0489499543040884
14.684584,12.01550843097268,0.0487827336836557
14.689171999999996,11.94786404197284,0.0486103359024753
