Time,Force,Position
13.331636,7.45551783879016,0.1498185878224903
13.336232,7.528844162431137,0.149574089931925
13.34082,7.597741117467653,0.1492313997682883
13.34542,7.655912662766173,0.1488748143202076
13.350008,7.70581273224135,0.1484842073758606
13.354603999999998,7.748751455931893,0.1480604925111567
13.359196,7.779742922742986,0.1476834027952439
13.363792,7.801285208037905,0.147373540367113
13.368392,7.820085048541255,0.1470668717825602
13.372988,7.843337919834215,0.1466697010299948
13.377584,7.864381226640813,0.1462791988228892
13.382176,7.886157641732286,0.1458472496733028
13.386784,7.911487653165721,0.1453337005469857
13.391379999999998,7.93816169645476,0.1447473850615721
13.395976,7.964014348561667,0.1441320209055518
13.400568,7.985447871695855,0.1435321741235953
13.405155999999998,8.008513937562563,0.1428838471086563
13.409744,8.031413677266498,0.1422066025896296
13.414328,8.05210385248407,0.1415346451403415
13.418912,8.069807213481782,0.1408685901478447
13.423496,8.080437283612454,0.1402829543186077
13.428072,8.089512854276123,0.1397077183649429
13.432668,8.088694646015666,0.1392493873667168
13.437244,8.088365176611791,0.1387661424600559
13.44184,8.08402727382626,0.1383087430718352
13.446424,8.076458187392575,0.137872358355216
13.451012,8.076040435091443,0.1373189205954172
13.45562,8.076766486666253,0.1367421261717276
13.460207999999998,8.070463388822652,0.136273997873093
13.464811999999998,8.05803057600829,0.1359049524656472
13.469407999999998,8.047152262660935,0.1355282008475533
13.473996,8.036151764599431,0.1351571830415566
13.478596,8.023474582356778,0.134799063813018
13.483176,8.009653596238186,0.1344635898395035
13.48778,7.995466055977157,0.134147171580612
13.492368,7.983365895488341,0.1338335599780594
13.496963999999998,7.969999746409441,0.1335487242316264
13.501552,7.9563892279022514,0.1332759106927117
13.506152,7.943678143842709,0.1329926324880015
13.510739999999998,7.938406904792641,0.1326206360332022
13.515339999999998,7.938654457142605,0.1321853992642454
13.519924,7.940045813368508,0.1317291602579296
13.524515999999998,7.947078145708589,0.1312028410627117
13.529104,7.95247793531615,0.1307261891568721
13.5337,7.960864539143573,0.1302462975755251
13.538287999999998,7.969661838562061,0.1297820232795448
13.542884,7.977970399123967,0.1293486043028393
13.547472,7.984113536648141,0.1289516345792191
13.552063999999998,7.99818525803837,0.1284448341366357
13.556652,8.017120705809274,0.1278729763372825
13.561239999999998,8.03527890384668,0.1273044165378838
13.565832,8.05523597077938,0.1267200520954021
13.570428,8.074948668283788,0.1261487023614766
13.57502,8.095438615521699,0.1255775480806707
13.579608,8.114906943597816,0.1250218378840035
13.5842,8.13413090224564,0.12448140899783
13.588788,8.156297533664702,0.1239071184359478
13.59338,8.181040283712559,0.123316482863391
13.597964,8.211301825160449,0.1226759312687937
13.602543999999998,8.23682182494181,0.1220948146738918
13.607132,8.258377532790142,0.1215665461746863
13.611724,8.274825144829506,0.1211089146893774
13.616312,8.292050006602372,0.1206531634005236
13.620908,8.311806845555408,0.1201478783394558
13.625495999999998,8.326289262536703,0.1196831948150014
13.630091999999998,8.34048316864108,0.1191949989166337
13.63468,8.346215610574188,0.1187947267296139
13.63928,8.354480029687464,0.1183418013912174
13.643867999999998,8.357103472686564,0.1179487997248278
13.648476,8.360992904275749,0.1175321621076671
13.653068,8.366026139740873,0.1170962587631931
13.657664,8.369138321596555,0.1166820802769528
13.662247999999998,8.37159543843288,0.1162624692886412
13.66684,8.368778133297464,0.1158802540035981
13.671432,8.36452851340919,0.1154933718843733
13.676023999999998,8.357536448729343,0.1150930003468908
13.680604,8.344248342915963,0.1147439638648239
13.685199999999998,8.326707434292631,0.1144187595562329
13.689788,8.301848865373973,0.1141570948085722
13.69438,8.276990296455317,0.1138941432799611
13.698968,8.25429715057439,0.1135975134388818
13.70356,8.240432023007168,0.1131999466372777
13.708156,8.225012395972943,0.1128045590036415
13.712744,8.202807988948601,0.1124804794302408
13.71734,8.186244558038437,0.1121015705619217
13.721927999999998,8.174178299366513,0.1116880482221425
13.726523999999998,8.172616743189442,0.1111694125259497
13.731108,8.171465882603437,0.1106690690338692
13.735696,8.17571162870332,0.110129331406768
13.740288,8.177547582337178,0.1096344601084961
13.744875999999998,8.180815850723894,0.1091461448942382
13.749468,8.18522792298655,0.1086398696675867
13.75406,8.194137167487446,0.1081035070666553
13.758655999999998,8.213062375626613,0.1074941719484208
13.763251999999998,8.23726200573752,0.1068552534902253
13.767844,8.26612513424944,0.1062167294864483
13.77244,8.29899669614302,0.1055696668623122
13.777027999999998,8.336898310580047,0.1049054547720585
13.78162,8.378153293379373,0.1042285270750202
13.7862,8.4219843948075,0.1035428644125124
13.790796,8.469413234026216,0.1028414705580961
13.795392,8.511856162150112,0.1022015611257215
13.799983999999998,8.553932536131569,0.1015820839296489
13.804576,8.605902689037153,0.1009028583821364
13.809172,8.656729038066798,0.1002472360626079
13.813776,8.703468910449269,0.0996417152123771
13.818368,8.746366675612858,0.0990783011426102
13.822959999999998,8.79028605993824,0.0985090263556511
13.827552,8.830363337044739,0.0979756184375471
13.83214,8.872606037188971,0.0974192371099833
13.836731999999998,8.915093106761494,0.0968579260013465
13.841324,8.957457991619872,0.0963050927391005
13.84592,8.99982287647825,0.0957603563031194
13.850507999999998,9.032949047431854,0.0952789131453245
13.855107999999998,9.068485010851488,0.0947703256667711
13.8597,9.099768171461172,0.0942767230621888
13.864287999999998,9.133583309251028,0.0937471994073637
13.86888,9.167232120878108,0.0931970673808858
13.873468,9.199570802466477,0.0926371517517551
13.878063999999998,9.230477169301984,0.0920741641599153
13.882656,9.258807417508695,0.0915249213715374
13.887248,9.289425273467282,0.0909506258775812
13.891844,9.32040968356831,0.0903632993825915
13.896432,9.342644118621148,0.0898097175963637
13.90102,9.359726316416394,0.0892691874835379
13.905615999999998,9.37897393724937,0.0887066933450662
13.910211999999998,9.393724385844106,0.0881635617320887
13.914808,9.406920334971838,0.0876208406545311
13.9194,9.42456931488918,0.087030540433575
13.923996,9.438498372301789,0.0864618617474015
13.928587999999998,9.446908638314362,0.0859206951747719
13.933187999999998,9.457362142650522,0.0853645312426926
13.937776,9.464095724481943,0.084830004101433
13.942376,9.47364979437046,0.0842777639954866
13.94696,9.47490872625048,0.0838004568428004
13.951563999999998,9.479887580635234,0.0833049030001838
13.956156,9.481801577534611,0.0828367220592764
13.960752,9.480406347520312,0.0824041754064026
13.965336,9.480565616973022,0.0819752563059827
13.969924,9.48125776673094,0.081558546761778
13.974512,9.48158336234642,0.0811576184872472
13.979104,9.48219746883882,0.0807798911295374
13.983695999999998,9.486042758979377,0.0804061400671942
13.988276,9.497860774434615,0.0800110847466337
13.992856,9.520472003261627,0.0795825080191981
13.99744,9.54308323208864,0.0791564988473079
14.002032,9.572889936496836,0.0787088819494774
14.006612,9.605028390105538,0.0782701484016608
14.011204,9.632713812924628,0.0778782463128525
14.015792,9.664119158248456,0.0774725055165289
14.02038,9.70361941360112,0.0770447866691661
14.024984,9.741198615344338,0.0766305187641661
14.029571999999998,9.780698870696996,0.0762085476325745
14.03418,9.826861721325626,0.075760335368524
14.038768,9.875556549134426,0.0752791430857796
14.043356,9.92335194249558,0.0748049028052422
14.047952,9.969470651675582,0.0743323441476921
14.05254,10.017754783893318,0.0738438209270612
14.05714,10.064362231929906,0.0733579612142417
14.061736,10.111458418823076,0.0728578413919381
14.066328,10.154057433478004,0.0723690409285112
14.070916,10.191992949731926,0.0718690504341246
14.075512,10.222977359832951,0.0713793686452003
14.080099999999998,10.24688847906694,0.0709050206196678
14.084699999999998,10.263726307433894,0.0704472662826494
14.08928,10.277743647743756,0.0700006941013429
14.093875999999998,10.288407619691318,0.0695559762430808
14.098468,10.294163723809575,0.0691061467673666
14.103064,10.300286382070274,0.0686428854351229
14.107651999999998,10.301911868092729,0.068189243885451
14.112248,10.2955646288005,0.067748381886434
14.11684,10.287051966470536,0.0673235902548533
14.121432,10.27481938163584,0.0669095325993273
14.12602,10.25424751734402,0.0665202731675444
14.130612,10.2344529027857,0.0661329524569967
14.1352,10.211182735150937,0.0657466470236078
14.139792,10.19073305557326,0.0653504708426184
14.144388,10.166441268776705,0.0649679849578463
14.148976,10.144070535589586,0.0645776107347787
14.153568,10.115570087431708,0.0642202283653724
14.158155999999998,10.091933365654508,0.0638412257754563
14.162748,10.069484589201874,0.063479244991267
14.167336,10.050633550539832,0.0631101204647663
14.171927999999998,10.034725184649025,0.0627270176693968
14.176536,10.019594068491717,0.0623463937410881
14.181124,10.007527809819791,0.0619485726459966
14.185728,9.99378486696672,0.0615481082161255
14.190316,9.982495858028296,0.0611516541996271
14.19492,9.97247283767996,0.0607408546682241
14.199516,9.965392490102856,0.0603172809143405
14.204104,9.963053684192284,0.0598791246779869
14.2087,9.960959247710004,0.0594310512847878
14.213288,9.959642060961222,0.0589846218607859
14.217883999999998,9.960001558393593,0.0585394275292518
14.222472,9.95741838305473,0.0581049462351418
14.227072,9.95638970718287,0.0576761905963104
14.231659999999998,9.95703771549216,0.0572521071950967
14.236263999999998,9.96026184243025,0.0568290770084747
14.240852,9.96348596936834,0.0564076000866682
14.245452,9.975660299334278,0.0559495509080518
14.250035999999998,9.985913575690777,0.0554983887010664
14.254628,9.994367983151978,0.0550475486462214
14.259224,10.001800771451386,0.0546020557214668
14.26382,10.00706813671306,0.054170757141649
14.268415999999998,10.006572341146414,0.0537540365350177
14.273015999999998,10.003788937827888,0.0533560247775799
14.277604,9.999495176490983,0.0529785208023061
14.2822,9.989438254325757,0.0526150220248218
14.286787999999998,9.973007247761478,0.0522869061837928
14.291372,9.952245395121732,0.0519850616615297
14.295963999999998,9.924332208349432,0.0517147130511975
