Time,Force,Position
13.460136,7.305948176263652,0.1445109172852141
13.464732,7.438633990527712,0.1439506169094495
13.469324,7.556297450795201,0.1433916653614987
13.473916,7.650399049629335,0.1430070659106037
13.478496,7.731443489524968,0.1426129443275487
13.483088,7.799963650787305,0.1422231682971095
13.487676,7.85836932588238,0.1417745599528302
13.492268,7.90400635291587,0.141339516718431
13.496864,7.941371904126014,0.1408580105543245
13.50144,7.974352228180327,0.1403167937137011
13.506036000000002,7.999926609042053,0.1398034756394227
13.510624,8.017239753712177,0.1393611579549225
13.515216,8.03095516059171,0.1389628300789234
13.519804,8.041850079414152,0.1386033536660474
13.524392,8.050168879607794,0.1382690464163375
13.528996,8.057832614782082,0.1379316775277787
13.533576,8.065740719384662,0.1375820804653094
13.538163999999998,8.062611241187176,0.1373677270591033
13.54276,8.064878369675577,0.1370945462217015
13.54736,8.072009224544654,0.1367522650671011
13.551952,8.082082752184967,0.1363686770717003
13.556536,8.089990856787546,0.1360257328466018
13.561132,8.097288037819398,0.1357163167885204
13.56572,8.113168867736661,0.1352938969464234
13.57032,8.133791239320457,0.1348154455149061
13.574908,8.154291426190104,0.134345595160091
13.579508,8.17520230865082,0.133895386227722
13.584091999999998,8.198811494454477,0.1334194273583564
13.588684,8.224219549153432,0.1329281370998823
13.593276,8.246440561652859,0.13249412990242
13.597872,8.266496151114552,0.1320971896890019
13.60246,8.289250043919191,0.1316747426937413
13.607052,8.31535730508613,0.1312313167314279
13.611632,8.341220196824777,0.1307993474352391
13.616224,8.370436456925724,0.1303467268171339
13.620804,8.401984466227177,0.1298877643429007
13.625396,8.435575713852218,0.1294034521198418
13.629988,8.475585187324938,0.1288517492213135
13.63458,8.514573041635865,0.1283235271206046
13.639176,8.554460330394441,0.1277936757054293
13.643764,8.589606077486486,0.1273192491053554
13.648356,8.623974574845029,0.1268472937536542
13.652944000000002,8.658953995774299,0.1263477969966838
13.657532,8.691357298074774,0.1258734555831709
13.662128,8.716320755365773,0.1254793500940409
13.666716,8.739851897903913,0.1250847274211504
13.671304,8.757331368736809,0.1247338377986049
13.6759,8.774033589836204,0.1243877816884718
13.680488,8.790857995649747,0.1240390182902248
13.68508,8.806494456138719,0.1236774057525202
13.68966,8.824907263236152,0.1232542893043516
13.694264,8.839067267523639,0.1228587967178433
13.698852,8.85036264230541,0.1224613085932894
13.703452,8.8632905598197,0.1220215183563753
13.70804,8.87028899034289,0.1216178129826461
13.71264,8.874422791360367,0.1212101771406474
13.717232,8.872260551244306,0.1208554150781379
13.721824000000002,8.864946073870652,0.1205342698973674
13.72642,8.84965887118231,0.1202740660320004
13.731012,8.827420562341077,0.1200612997332317
13.735612,8.809923795166377,0.1197989030001588
13.740204,8.792793582134115,0.1195182732140714
13.744792,8.771044012149462,0.1192796689631934
13.749388,8.74941662687896,0.1190343942748766
13.753976000000002,8.73187571825563,0.1187356817095113
13.75856,8.713557559898799,0.1184373059585702
13.763136,8.699980943208494,0.1180893035315648
13.767732,8.681662784851664,0.1177885502276991
13.772324,8.65668203121886,0.1175557435545197
13.776916,8.63247852731956,0.1173202416318907
13.781508,8.60995170760141,0.117074772377315
13.786096,8.589878821797909,0.1168186121154966
13.790692,8.569072827709537,0.1165962722632202
13.795279999999998,8.548022464192872,0.1163844265530768
13.799868,8.531591457628592,0.1161305702143104
13.804476,8.516470581103027,0.1158850486958954
13.809064,8.504947442368051,0.1156105737735419
13.813672,8.49407936865243,0.1153395305120164
13.818256000000002,8.490651139946287,0.114999406525153
13.82286,8.490454094888296,0.114646789320085
13.827452,8.487558746487363,0.1143159636468145
13.83204,8.483397409496346,0.1140089655035752
13.836636,8.48025769166712,0.1136870667808775
13.841216,8.474175301066659,0.1133978880512567
13.845812,8.466826921876114,0.1131335314871275
13.8504,8.462954095762015,0.1128474606875456
13.855,8.460757953829066,0.1125543494137934
13.859588,8.462281734400854,0.1122271550180587
13.864192,8.468913610781609,0.1118350414414032
13.868776,8.473624433552922,0.1114621969902708
13.873368,8.473227160515268,0.1111533863736743
13.877948,8.475117495229496,0.1108089192671189
13.882544,8.478518187962097,0.1104287393316568
13.887132,8.479997827085258,0.1100672639732467
13.891728,8.482254715941918,0.1097068382257042
13.896311999999998,8.485533223960376,0.1093349245743767
13.9009,8.489056101407124,0.108952075614571
13.905487999999998,8.49924157412984,0.1085097597904698
13.910087999999998,8.50713943910068,0.1081046261043763
13.914676,8.52259933379514,0.1076372340412972
13.919268,8.541779150994337,0.1071427440118188
13.923863999999998,8.564923260126564,0.1066087412185499
13.928452,8.595262844839972,0.1060305106171044
13.933044,8.625358060125087,0.1054614241965803
13.937632,8.654431656248413,0.1049044804673945
13.942228,8.680684764314647,0.1043733950113684
13.94682,8.70501681877144,0.1038626270727985
13.951408,8.730370492390028,0.1033428240719985
13.956004,8.757933730494976,0.1028321382657374
13.960596,8.788439641371157,0.1022947926465522
13.965184,8.820988790570928,0.1017347036061574
13.969776,8.851372516732962,0.1012063223070584
13.974364,8.883188557647856,0.1006872862807975
13.978967999999998,8.919623955515135,0.1001383333051555
13.983564,8.955037734220623,0.0996045781677966
13.988168000000002,8.991717501516193,0.0990541838182095
13.992748,9.03109557215471,0.0984935575919125
13.997348,9.06675372028849,0.0979658987124867
14.001936,9.102900607278848,0.0974186573658752
14.00654,9.12980878036444,0.0969362965578582
14.011124,9.149932173459913,0.0965098109642911
14.015728,9.17185443545068,0.0960786996335583
14.020308,9.187480656307914,0.0956833516894013
14.024904,9.20833715768826,0.0952354483374163
14.029504,9.234179570163429,0.0947471996184091
14.034096000000002,9.262065220962182,0.0942413046819056
14.038688,9.290073056475086,0.0937318274257722
14.04328,9.31910251114978,0.0932167127928768
14.047868,9.346044586052258,0.0926931333423157
14.052456,9.372864476240592,0.092177783881175
14.057044,9.402871408628451,0.0916337300426748
14.061632,9.432101091282812,0.0910897777220067
14.06622,9.458754655308372,0.0905553830998707
14.070804,9.482832100705131,0.0900318756944817
14.075396,9.504333427473098,0.0895161664219396
14.079988,9.524935319793416,0.0890082476022274
14.08458,9.54475996238023,0.0885039369874714
14.089168,9.56303010550004,0.0879990484334325
14.09376,9.583343486943438,0.0874800166610706
14.098351999999998,9.607498975605717,0.0869367893045435
14.10294,9.638805798400554,0.0863351600154352
14.107532,9.665493264243004,0.085760411504032
14.112116,9.697821706199631,0.0851582468223585
14.116704,9.729128528994467,0.0845706977938411
14.121312,9.753894941227475,0.0840191370419194
14.125903999999998,9.776862484565193,0.0834760945880724
14.1305,9.801995450940638,0.0829155185381394
14.135076000000002,9.828272221192025,0.0823476560319119
14.139676,9.853283002853322,0.0817984762184331
14.144268,9.880703576980649,0.0812247351992995
14.148872,9.901339371117851,0.0806918657227425
14.15346,9.926061641902232,0.0801318767189262
14.15806,9.953726585457847,0.079556460886155
14.162655999999998,9.982413148175256,0.0789764061209595
14.167244,10.014697448683256,0.078386780813458
14.171836,10.044938510867668,0.0778139739338097
14.176431999999998,10.070315846671404,0.0772696609358958
14.18102,10.094427193885055,0.0767416596843664
14.185612,10.11625093334683,0.0762398594073746
14.190204,10.136275803913309,0.0757448149509418
14.194788,10.151969828404315,0.0752893599034174
14.19938,10.16868547205712,0.0748276041995392
14.203976,10.179760139595748,0.0743916052485744
14.208564,10.18789213436314,0.0739731017929433
14.213159999999998,10.201665105244713,0.07353251451155
14.217752,10.21711476030743,0.0730927750374126
14.222332000000002,10.229377373170625,0.0726791403013773
14.226924,10.23755350938664,0.0722937632861039
14.231512,10.24830576423146,0.0719071871475276
14.236104,10.253338999696584,0.071576194134869
14.2407,10.263768841847591,0.0712322612231405
14.245288,10.26974565320899,0.0709285927214726
14.249884000000002,10.273557041532651,0.070643128376728
14.254472,10.276879690999731,0.0703758993041698
14.259060000000002,10.278525656285666,0.0701091312609243
14.263656,10.2809488713051,0.0698447880612729
14.268248,10.287092008829276,0.0695683581270239
14.272852,10.295933449696392,0.069286386321453
14.277448,10.305918694439448,0.0689947948250931
14.28204,10.318480057811302,0.0687030149606546
14.28662,10.334106278668536,0.0683939502017123
14.29122,10.347567076488035,0.0681013450115812
14.295808,10.36348180822219,0.0678123354299125
14.300415999999998,10.378252736080404,0.0675333734498939
14.305008,10.390980425615034,0.0672682564003745
14.309592,10.401664876826072,0.0670154260226598
14.314188,10.415169816094204,0.0667542532646707
14.318776,10.431739612847712,0.0664766760189604
14.323376,10.444833856524776,0.0662017993605527
14.327964,10.455718535715478,0.0659130225650397
14.332556,10.465170900153325,0.0656158558389643
14.337152,10.472169330676516,0.065313712986111
14.34174,10.475570023409118,0.0650168949872402
14.346328,10.476516782227066,0.0647160722253833
14.350908,10.47746354104502,0.0644156428944166
14.355504,10.476733615681818,0.0641135753268942
14.360096,10.475226440585116,0.0638092247558871
14.364692000000002,10.473308569897345,0.0634899386369154
14.369288,10.46959183031428,0.0631735635030007
14.373872,10.461377918492976,0.0628634828955208
14.37846,10.451609507204669,0.0625480572825699
14.383044000000002,10.44412870366824,0.0622129886749197
14.387619999999998,10.43443833564545,0.0618645446627195
14.392208,10.42703557537454,0.0614965591943595
14.3968,10.41615726202718,0.0611283709733515
14.401388,10.407566556431703,0.0607413597286636
14.405992,10.394723048026275,0.0603510714382189
14.410592,10.379958486011407,0.0599675161655852
14.415184,10.367359347034274,0.0595688415675095
14.41976,10.363466041656691,0.0591407798650046
14.424356,10.357651682669676,0.0587182871712404
14.428944,10.35874428838692,0.0582691212875996
14.433544,10.365844424360782,0.057794266345494
14.438136,10.370368441705844,0.0573155386840951
14.442736,10.372194155707962,0.0568386131751482
14.44732,10.37401986971008,0.0563605348917868
14.451912,10.372003476493315,0.0558924707276047
14.456508,10.36487898746759,0.0554470228042053
14.461104,10.355589075404126,0.0550140249968509
14.465688,10.346299163340662,0.0545788898615293
14.470275999999998,10.33472164352532,0.0541610552174562
14.474864,10.320323635652889,0.0537480394576738
14.47946,10.30388238945687,0.0533422254789042
14.484048,10.281677982432528,0.0529497447388682
14.488644,10.255509283475154,0.0525681658311073
14.493232,10.22075693563237,0.052204839809017
14.497827999999998,10.1847385991995,0.0518516187835723
14.50242,10.140136613881218,0.0515157861352526
