Time,Force,Position
13.599372,6.955071978103496,0.1614734088702165
13.603956,7.163901421143948,0.1606480851974006
13.608548000000004,7.360030019756595,0.159676578118506
13.613136,7.541947415923063,0.1586754239635367
13.617715999999998,7.706833121586262,0.1576881123964113
13.622311999999996,7.855508527928322,0.1567408244097341
13.626904,7.98809581966339,0.15582270851894
13.631496000000002,8.10741548484855,0.1548739459853899
13.636084,8.213223154055518,0.1539222416438626
13.64068,8.310426695113595,0.1529137551052942
13.645272000000002,8.398170815023757,0.15189611248813
13.649876000000004,8.474822971053488,0.1509049757332113
13.654459999999997,8.534541959108944,0.1500741344850843
13.65906,8.589064568458177,0.1492702553885073
13.663652000000004,8.650083446920608,0.1483517553719343
13.668248000000002,8.713756487277353,0.1473756274051041
13.672836,8.777263201471325,0.1463812195135551
13.677432,8.839948524483168,0.1453646638150829
13.682019999999998,8.899402663846855,0.144384806492537
13.686612,8.956236543133116,0.1434059617170676
13.691199999999998,9.011105227361307,0.1424346279500868
13.695784,9.060821674331905,0.1415222453565277
13.700371999999998,9.10910580654964,0.1406198345744143
13.704972,9.154936004852726,0.1397458040878846
13.709556000000005,9.198434453955304,0.1388877542232695
13.714147999999998,9.243198891647967,0.1380115731201727
13.71874,9.286164460445336,0.1371582973908716
13.723328,9.326187356471468,0.1363474908760245
13.727923999999998,9.361635036993846,0.135622837075888
13.732511999999996,9.388132514488372,0.1350195894684978
13.737104,9.413852742249396,0.1344287447550301
13.741699999999998,9.44149402361986,0.1338203890549279
13.746292,9.468480239970969,0.1332102945450514
13.750888,9.495710825750368,0.1325909562154934
13.755480000000002,9.517833315720802,0.1320448096087363
13.760068,9.537668197939356,0.131540268045987
13.764664,9.556237091567828,0.13106247209612
13.76924,9.575705419643942,0.1305799510900084
13.773836,9.593497063538909,0.1301097304920729
13.778412,9.610389272986229,0.1296491482422149
13.783012000000005,9.621273952176931,0.1292621289973048
13.787592,9.629093773882254,0.1289140647196935
13.792188,9.635769791711638,0.1285856187938437
13.796772,9.639625321483932,0.1282863401039214
13.801368,9.647200773760964,0.1279534537847735
13.805947999999995,9.650279053799755,0.1276588199746333
13.810531999999998,9.655522756876278,0.1273345638487534
13.815124,9.661543709686306,0.1270082978435396
13.819708000000002,9.670873889410007,0.1266342605226781
13.824296,9.685067795514383,0.1262066109249041
13.828880000000002,9.690678052733348,0.1258663369454563
13.833468,9.692446202733429,0.1255667966839328
13.838064,9.69462504832457,0.1252812488237325
13.842656000000002,9.697581143649217,0.1249945467132725
13.847244,9.703602096459242,0.1246713823941781
13.851836000000002,9.711421918164566,0.1243352581154996
13.856416,9.718220120708096,0.1240114659892246
13.861008000000002,9.72489613853748,0.1236948153950307
13.865604,9.737335317195187,0.123324463623933
13.870192,9.751451180034044,0.1229473882337439
13.874788,9.775172310920109,0.1224793987867602
13.879375999999995,9.806455471529793,0.121945314024698
13.883956,9.837616447425331,0.1214174801661572
13.888560000000002,9.870454107502022,0.1208826865610339
13.893151999999995,9.901248529255124,0.1203770261629419
13.897755999999998,9.937317372979964,0.119840686561812
13.902336000000002,9.97109860895293,0.1193405734203657
13.906935999999998,10.007944702411276,0.1188101399478907
13.911516000000002,10.044546426441327,0.1182944102350194
13.916112000000002,10.083191388794972,0.1177611677894893
13.9207,10.127477327262794,0.1171792546744399
13.925299999999996,10.176504807397144,0.1165609885121108
13.929883999999998,10.227819895283371,0.1159144210563961
13.934479999999995,10.27721392956016,0.1152870962790272
13.939068000000002,10.323543106351568,0.1146954321787232
13.943659999999998,10.368972848695323,0.1141137765392991
13.948248000000005,10.41734526381032,0.1135072463098727
13.952844000000002,10.46530698333425,0.1128925156098253
13.957432,10.505706673134556,0.1123436762612775
13.962016000000002,10.545573482629653,0.1117904273963652
13.966604,10.582741988781809,0.111262687685502
13.971196000000004,10.617334376305166,0.1107532765617091
13.975792000000002,10.65613542518984,0.1102037790112813
13.98038,10.693626344035806,0.1096480337802342
13.984976,10.72800826394776,0.1090967930348009
13.989563999999998,10.760058434659207,0.1085521058831965
13.994156,10.792475159513094,0.1079950249101689
13.998735999999996,10.821538516004678,0.1074524687470729
14.003324000000005,10.847370688848107,0.1069177303007462
14.007928000000003,10.86895005888159,0.1064009816401662
14.012516000000002,10.889996548609863,0.1058773518336391
14.017104,10.905113551347036,0.1053758384590338
14.021696000000002,10.918798239331352,0.1048727827387484
14.026296,10.939512076734076,0.1043142804123424
14.030888,10.963901695192911,0.1037087831530566
14.035480000000003,10.982484011374792,0.1031161295919214
14.040072,10.998079513336808,0.1025211585937085
14.044652000000005,11.010610157813446,0.1019537817444129
14.049252,11.02567277947025,0.1013512778722322
14.053839999999996,11.037259848050606,0.1007624894921196
14.05844,11.04177362576393,0.1002044996252557
14.063024000000002,11.0438334695626,0.0996521551137792
14.067615999999996,11.04061889138953,0.0991226242367091
14.072196000000002,11.04136860514949,0.0985650312601302
14.076787999999995,11.045838241414184,0.0979877714916196
14.081376000000002,11.045932890154788,0.0974259740642224
14.085972000000002,11.045494658590178,0.096855525777617
14.090552,11.04415699257792,0.0962885045377284
14.095136,11.04126482709866,0.0957187317505143
14.099723999999998,11.03608505386752,0.0951720318284905
14.104316,11.029228596455228,0.094628435775201
14.108900000000002,11.024048823224089,0.0940802001161565
14.113488,11.017847430831154,0.093540300981732
14.118076,11.003062389552808,0.0930530787700903
14.122663999999997,10.982025448589557,0.0926174780711935
14.127267999999995,10.966018560169752,0.0921706294798117
14.131852,10.950422367341014,0.0917363021150307
14.136439999999997,10.93494835922642,0.0912962986377326
14.141032,10.915143505036363,0.0908953889618633
14.145611999999996,10.898814203922754,0.090483534295183
14.150204,10.885593901743151,0.0900728561511373
14.154799999999998,10.86894218793573,0.0896974523630403
14.159392,10.85282335443352,0.0893304943280889
14.163988,10.832495859569992,0.088999276633105
14.168575999999998,10.80411759612626,0.0887248322813045
14.173176000000002,10.77986995077833,0.0884449730207833
14.177756,10.758198424059197,0.0881585348719057
14.182351999999998,10.739635896274072,0.0878755375693394
14.186944,10.723815813280522,0.0876084749866442
14.191532,10.714780510277087,0.0873007114783916
14.196127999999998,10.708199141188306,0.086991617668562
14.200723999999996,10.704071706014178,0.0866818652770235
14.205316,10.699455531983466,0.0863889835461258
14.209908000000002,10.697659846009843,0.0860818705094491
14.214508,10.702771124740485,0.0857316638953647
14.219108000000002,10.711846695404152,0.0853583766337503
14.223699999999996,10.726563242182,0.0849610024959138
14.228292,10.747042949788172,0.084535481071568
14.232884000000002,10.775984121565612,0.0840728569367477
14.237467999999996,10.805702543076553,0.0836147168374336
14.24206,10.83860800678702,0.0831335583263768
14.246652,10.879442054363546,0.0826070101831948
14.251236000000002,10.920931166959427,0.0820872116895027
14.255816,10.965362952326542,0.081553631762302
14.260412,11.017478952131423,0.080980870471491
14.264992000000005,11.069839321364595,0.0804035801655383
14.269583999999998,11.120034267560037,0.0798479653824087
14.274179999999998,11.16789746455497,0.0792905287665989
14.278768000000005,11.22123531150131,0.0786928487663459
14.283364000000002,11.27559477760944,0.0780966926040613
14.287952,11.33199748204116,0.0774931403130521
14.29254,11.385946252558226,0.0768918737934092
14.297144,11.441038826951232,0.0762816967579144
14.301731999999998,11.495887031915949,0.0756821432934204
14.306327999999995,11.547670379395283,0.0751063649047282
14.310916000000002,11.59483436992223,0.0745502650389045
14.315512000000002,11.633536896277912,0.0740281982950039
14.320092,11.66839731541471,0.0735267925586392
14.324692000000002,11.698105497293913,0.0730338329030833
14.329283999999998,11.725237560544317,0.0725449880400998
14.333876,11.750570754899426,0.0720627998029934
14.33846,11.773083461197446,0.0715940583031684
14.343056,11.79902757912328,0.0710996644973255
14.347652,11.823172828153824,0.0706112518988015
14.352248,11.848706250488595,0.0701098632120384
14.356835999999998,11.87448404225166,0.0696036517862735
14.361431999999995,11.901405637890663,0.0690900749572898
14.366024,11.927427799082018,0.0685784726101787
14.370608,11.945110680816253,0.0680907930161615
14.375200000000005,11.95727477115045,0.0676181179830809
14.379783999999995,11.965963308408204,0.0671495300724442
14.384376,11.97567346482775,0.066676461602076
14.388972,11.98779341371332,0.0661842332934248
14.393556,12.001423720617266,0.0656739110523481
14.398143999999998,12.017341635273093,0.0651485622522656
14.402736,12.03428116909071,0.0646192436164802
14.407324,12.05596224457486,0.0640763595316641
14.41192,12.073923397554273,0.0635415207828509
14.416515999999998,12.09164018110539,0.0630146380572522
14.421104000000003,12.109479149370657,0.0624846934700561
14.425707999999997,12.126296498474131,0.061960448983605
14.430296000000002,12.141970043701669,0.0614461317604898
14.434900000000004,12.151880428100874,0.0609501578558646
14.439491999999998,12.160114128318934,0.0604528163984084
14.444084,12.16258466770867,0.059972932006334
14.448688,12.163134153488963,0.0594992301032797
14.453280000000005,12.160085901478666,0.0590288355988795
14.457876000000002,12.159980322239605,0.0585490529612592
14.462464,12.167192403295871,0.0580601985735619
14.467063999999995,12.173138495762055,0.0575817162800148
14.471652000000002,12.179861837961738,0.0571066938670569
14.476252,12.186707364875566,0.0566291428408725
14.480832000000005,12.188200426552138,0.0561800620391841
14.485432,12.18356377325795,0.0557551133321119
14.490016,12.172020155259496,0.0553512976293878
14.494612,12.160598721975193,0.0549440653732435
14.499204000000002,12.150321092566823,0.0545303276220609
14.503800000000002,12.142741766501398,0.054113781909862
14.508399999999998,12.13299701739824,0.053707639921797
14.512995999999998,12.120964660543205,0.0533153592353845
14.517588,12.109587368707526,0.0529294669966584
14.522180000000002,12.095511773528902,0.0525439067563768
14.526768,12.083112862531427,0.0521600152472335
14.531364,12.072146266286817,0.0517854957636143
14.535948,12.06261198479506,0.051419884513538
14.540544,12.05348839889437,0.0510678843390854
14.545136000000005,12.0438760741371,0.050728488052907
14.549724,12.031731772199656,0.0504107216407023
14.55432,12.008594028910776,0.0501262003918217
14.558908,11.98713296980305,0.0498437151088318
14.5635,11.961096695191562,0.0495891518138525
14.568079999999998,11.92958577062867,0.049362336177634
14.572667999999997,11.896031607742191,0.0491412967004728
14.577264000000005,11.864687009342076,0.0489328447171312
14.581852,11.835019095123108,0.0487259698958253
