Time,Force,Position
15.270724,6.521461041826939,0.1541621414813173
15.27532,6.626708985621872,0.1537255189143315
15.279908,6.721021052067407,0.1531852542159827
15.284508000000002,6.801210198964018,0.1526463556561744
15.289088,6.864744449131536,0.1521886879057837
15.293684,6.9081482494935145,0.151859226288127
15.298271999999995,6.9393501839160106,0.1514753833698421
15.302872,6.955818275218856,0.1511167717368956
15.307468,6.966591009327152,0.1506877371570346
15.312060000000002,6.968114789898941,0.1502810751701362
15.31664,6.961255149564979,0.1499696883253044
15.321236,6.956605073717378,0.1496496206221985
15.325823999999995,6.958373223717457,0.1492309679207684
15.330420000000004,6.963983480936419,0.1487449021449995
15.335008000000002,6.973968725679476,0.1482006365805012
15.339604,6.984609035441888,0.1476598416109937
15.344192,6.995004975776008,0.1471400597242471
15.348788,7.007977034738927,0.1465957602874752
15.353375999999995,7.021359789292911,0.1460734189345907
15.357972000000004,7.03989478110449,0.1454930259843214
15.362564,7.0572079257746125,0.14498845916723
15.367156,7.077507884664597,0.1444734455559878
15.371752,7.099773038612653,0.1439705693650598
15.376331999999998,7.12478063735228,0.1434761323103935
15.380927999999995,7.15698371167309,0.1428941437932443
15.38552,7.193195219375559,0.1422848360696672
15.390107999999998,7.231249737421949,0.1416954750125932
15.394703999999996,7.275766622764649,0.1410657361529516
15.399292000000004,7.315053227584233,0.1405411177498031
15.403896000000003,7.358470450499621,0.1399893317300647
15.408492000000004,7.407162095386752,0.139388631563366
15.41308,7.461372531673914,0.1387256239185659
15.417676,7.515993663552142,0.1380901309661111
15.422268000000004,7.569348806840284,0.1374908124494058
15.426864000000002,7.622337395985991,0.136915863134606
15.431444,7.676958527864218,0.1362953896422164
15.436044000000004,7.728348476094291,0.1357006079819682
15.440624,7.773442383190829,0.1351817274245659
15.445228,7.813261868315625,0.1347169220604377
15.449820000000004,7.8530372119917935,0.1342229125199713
15.454416000000002,7.898243064170739,0.1335949258476303
15.459000000000003,7.941605906005761,0.1329532863748814
15.463583999999996,7.984391726086943,0.1322722641027558
15.468187999999998,8.02312497133784,0.1315810628186574
15.472783999999995,8.049632688464106,0.1310066339268877
15.477380000000004,8.071066211598291,0.1304341933823373
15.481968000000002,8.086936801883818,0.1298870658410414
15.486556,8.092625102368295,0.1294216987749951
15.491143999999998,8.09708131607958,0.128902746167673
15.495736,8.094297912761055,0.1284237693386462
15.500332,8.079044611889605,0.1280692766484369
15.504919999999998,8.056429509274196,0.1277585393288454
15.509515999999998,8.032215765743155,0.1274152336898621
15.514108,8.007957880763486,0.127033772399093
15.518700000000004,7.983900223763483,0.1266018129455783
15.523296000000002,7.957144263420534,0.126195351649515
15.527884,7.930754857220023,0.1257676974784075
15.532476000000004,7.907552493219036,0.1252858445363596
15.537064,7.889091670884581,0.124745312571748
15.541652,7.864745503007657,0.1242819220790263
15.546248,7.833903066017533,0.123927298205947
15.550843999999998,7.801794640437325,0.1235987254964436
15.555432000000003,7.7652331840675055,0.1233478188860255
15.560028000000004,7.728838053860461,0.123124993320369
15.564616,7.701437268129895,0.1228150707368863
15.56922,7.677556176924402,0.1225126181743335
15.5738,7.665367733538331,0.1221000596866622
15.578404,7.6610298307528,0.1216238053860043
15.582991999999996,7.6622548608159295,0.1211281750438778
15.587592,7.666344520384777,0.1206365154509439
15.59218,7.682493381915483,0.1200167462618419
15.596780000000004,7.698442015466526,0.1194444206719612
15.601368,7.709693248799666,0.1189628473183172
15.605967999999995,7.720622069438997,0.1185385465896677
15.610551999999998,7.731717216241104,0.1181472048408106
15.615147999999998,7.746942981139011,0.1177376505253462
15.619751999999998,7.763601060789777,0.1173331191844107
15.624340000000004,7.782468704926905,0.1169340294410733
15.628932,7.8021135987975345,0.116536954882973
15.633524,7.8271550993540515,0.11609338055443
15.638116000000004,7.854117653520009,0.1156277692446361
15.642704000000002,7.886598999086001,0.1151133829838249
15.647288000000003,7.923821886318523,0.1145483888787882
15.651879999999998,7.962843642446339,0.1139696385038613
15.656460000000004,8.001987583288303,0.1133943301778703
15.661048,8.044973631349148,0.1127847759683246
15.665644,8.077943715771722,0.1122695464494319
15.670232,8.10821549685135,0.1117800702384883
15.674824,8.140530516254568,0.1112734667535744
15.679412,8.176032577857312,0.1107267328829243
15.683999999999996,8.20769253224117,0.1102270976853389
15.688595999999997,8.245482201595793,0.1096551545674303
15.693184000000002,8.291078270102327,0.1090027744439855
15.697772,8.338429066055527,0.1083047005896988
15.702368,8.386024231437016,0.1075996850553356
15.706955999999998,8.430266028456208,0.1069155606944381
15.711551999999998,8.477328313532487,0.1062149489589582
15.716127999999998,8.523857718303558,0.1055115510230499
15.720728,8.56973205805527,0.1048092680809094
15.725320000000004,8.613929713625833,0.1041181947613546
15.72992,8.660947857253486,0.1034095663885306
15.734499999999995,8.704368263090545,0.1027315720625961
15.7391,8.749054657517693,0.1020394493217898
15.743684000000002,8.79230873719198,0.1013445347363387
15.74828,8.832742328809179,0.1006780361142869
15.752859999999998,8.86802368316878,0.1000395436010733
15.757455999999998,8.905881156157177,0.0993898993938691
15.762044000000005,8.94476024830737,0.0987325938285639
15.766640000000002,8.97505569157215,0.0981477015745112
15.771228,9.003307896513343,0.0975892585715834
15.775816,9.033236785635683,0.0970306466660637
15.780403999999995,9.06136680586273,0.096488903772085
15.785004,9.089374641375631,0.0959600994866887
15.789592,9.119303530497977,0.0954218017497678
15.794184,9.148332985172672,0.0948908248778382
15.798768000000004,9.175441386237926,0.0943747177937188
15.803359999999998,9.199074234226732,0.093876280088777
15.807955999999995,9.217843355834864,0.0934168501945546
15.812544000000004,9.234569239119407,0.0929780608752811
15.817124,9.253093991299249,0.0925326668971052
15.821716000000002,9.26712157124085,0.0921109141175995
15.826304,9.283314574220183,0.0916676934840547
15.830908,9.295665469980635,0.0912539600499854
15.835504,9.312513537979328,0.0908221307276835
15.840096000000004,9.326663302635072,0.0904023581058496
15.844692000000002,9.341590317024322,0.0899842799603079
15.849283999999995,9.355862266394212,0.0895607691725033
15.853880000000004,9.370500769906544,0.0891245937433089
15.858456000000004,9.390247369227843,0.0886430221420414
15.863056,9.408806023224573,0.0881460413798586
15.867635999999996,9.418370332744823,0.087686716774033
15.872236,9.423681839455128,0.0872373504406097
15.876815999999998,9.422164424726684,0.0868040417266039
15.881411999999996,9.41627202247415,0.0863852009525147
15.886004,9.41099054379234,0.0859418775765948
15.890591999999998,9.409018292024207,0.0854630515688228
15.895187999999996,9.403326117751336,0.0850020053089196
15.899783999999997,9.400165920658631,0.0845027434675684
15.904376,9.397616647136656,0.0839782672053711
15.908968000000002,9.392735624414176,0.0834502876608297
15.913556,9.390919459177075,0.0828974218079484
15.91814,9.386038436454593,0.0823703919905212
15.922719999999998,9.379602914265108,0.0818385217494764
15.927315999999998,9.36789297010388,0.0813222796178961
15.9319,9.360147317875684,0.0807779216507062
15.936487999999995,9.352890404504064,0.0802144183716612
15.94108,9.349597783065477,0.0796257964846288
15.945667999999998,9.34054200079856,0.0790680745851654
15.95026,9.32993171906464,0.0785068460614484
15.954844,9.319854317635937,0.0779569917310687
15.959432,9.319259999540291,0.0773577690024835
15.964039999999995,9.318176942588064,0.0767752704981166
15.968636000000004,9.318526200388694,0.076199231206997
15.973228,9.32018558822804,0.0756368238391813
15.977823999999998,9.319312998887211,0.0751088859080403
15.982408,9.31831822483224,0.0745877601793797
15.987004,9.3220649924438,0.0740431950604545
15.991591999999995,9.325323021198775,0.0735179741428714
15.996188000000004,9.331934418316056,0.0729947643285789
16.000768,9.337279826843249,0.0724879501984993
16.005367999999997,9.338783128151556,0.0720003068928837
16.009956000000003,9.34130804862166,0.0715057195148735
16.014556,9.350129010225295,0.0709967084407585
16.01914,9.361770459886024,0.07047724576332
16.023736,9.370224867347227,0.0699840392022835
16.028316000000004,9.3772911015042,0.0695127128230127
16.032908,9.38219191262344,0.0690626806705786
16.037508000000003,9.395309818485654,0.0685903334364384
16.042104000000002,9.410759473548374,0.0681283635766712
16.046692,9.426209128611095,0.0676677519438815
16.051276,9.442558218121466,0.0672104625837691
16.055864,9.46467046846016,0.0667300129421354
16.060464000000003,9.490624826017736,0.0662351552320843
16.065052,9.5160463032701,0.0657293616936841
16.069632,9.545309887741348,0.065209276793051
16.074227999999998,9.570120441422985,0.0647281950279777
16.078803999999998,9.593542821800392,0.0642689271212376
16.083396,9.621828928558475,0.0637916463708841
16.087984,9.646150743383531,0.063336588525207
16.092571999999997,9.674314665427469,0.0628684634135952
16.097168000000003,9.706076325261993,0.0623956920138038
16.101744000000004,9.73796016981067,0.0619206958591069
16.106336,9.76828951489234,0.0614450922964942
16.110932,9.79939610970751,0.0609766955392313
16.115524,9.835488615617503,0.0604871812463082
16.12012,9.87182549095579,0.0599900746290076
16.124708,9.905464062951133,0.0594980225620474
16.129308,9.93587145129832,0.0590016366259831
16.133896,9.96255891714077,0.0585153633762777
16.138496000000004,9.988346948535572,0.0580313535182829
16.143084,10.005795700473252,0.0575657735668472
16.147692,10.015926792115604,0.057111954278042
16.152284,10.024136830148516,0.0566660035278045
16.15688,10.02940419541019,0.0562298697690382
16.161472000000003,10.029152769271834,0.0558023273026096
16.166068000000003,10.027835582523052,0.0553472305836837
16.170656,10.0263520696115,0.0548667803511633
16.175252,10.016284907814534,0.0544094565086373
16.179851999999997,10.00478543126471,0.0539387172374507
16.184444,9.984702305829472,0.0534883993746556
16.189031999999997,9.961676507622998,0.0530477019325037
16.193616,9.933786983035851,0.0526201540257786
16.198208,9.897069440135,0.0522202937063476
16.202804,9.850624444472794,0.0518482453210372
16.207392,9.797272484106324,0.0514990680704896
16.211987999999998,9.740611296826184,0.0511701029813583
16.21658,9.679985817613012,0.0508519349707621
16.221168,9.613885688448438,0.0505675887392922
16.225768000000002,9.545620136246129,0.0502943769107684
16.230356,9.474167541844295,0.0500369953659984
