Time,Force,Position
17.243992,7.714449546117207,0.1488562151074859
17.248568,7.842105307837818,0.1482960111531219
17.253168,7.951629716627849,0.1477707078531936
17.257755999999997,8.044166576363239,0.1472308393211014
17.262351999999996,8.12409087456808,0.1466263925248908
17.266935999999998,8.191769165384812,0.1459441232341149
17.271535999999998,8.242137494453091,0.1453096978312731
17.27612,8.278060491278639,0.1447119846064754
17.280711999999998,8.299015515187984,0.1442537950773991
17.2853,8.31146493347743,0.14388097479795
17.289896,8.312710442804038,0.1436223290004776
17.294487999999998,8.312357311215012,0.14333554201068
17.299079999999996,8.309872658405142,0.1430128145828476
17.303659999999997,8.302313811603197,0.1426988728530084
17.308244,8.286738098037937,0.1424384502373095
17.312831999999997,8.269685928271189,0.1421432925629848
17.317415999999998,8.248625325122786,0.1418735187312402
17.322011999999997,8.223434103878581,0.1416343376141521
17.326587999999997,8.191413961195629,0.141456055097483
17.331187999999997,8.155263200416876,0.1413069424362275
17.335767999999998,8.126996882055552,0.1410001079037327
17.340343999999998,8.104449583073924,0.1405764981639202
17.344939999999998,8.083168272682379,0.1401222520708375
17.349528,8.062664212024336,0.1396622195195769
17.354124,8.039461848023352,0.1392300388630677
17.358707999999996,8.010007584337458,0.1389007477991697
17.363307999999996,7.984151058442157,0.1385300934110245
17.367911999999997,7.961115020603946,0.1381217046552235
17.372504,7.943475589451623,0.1376523839137368
17.377108,7.928167907499805,0.1371708074544921
17.381683999999996,7.919933516415023,0.1366135346975311
17.386283999999996,7.916729177873693,0.1360170425818814
17.390863999999997,7.912791731047488,0.135459383966916
17.395467999999997,7.9114304028500815,0.1348776792965572
17.400056,7.914199692748477,0.1342639178049798
17.404656,7.917013124095501,0.1336867894711863
17.409239999999997,7.923179923804824,0.1330836149601428
17.413832,7.931434103286362,0.1324851074974066
17.418419999999998,7.944596150597206,0.1318551435940705
17.423011999999996,7.960089947108555,0.1312171012297503
17.427611999999996,7.968720920364269,0.1307180302507914
17.432208,7.976252231192673,0.1302799610652955
17.436795999999998,7.979863391536676,0.1299347140682633
17.44138,7.988382419709984,0.1295615291175542
17.445967999999997,8.00193150042674,0.1291541066141062
17.450567999999997,8.023819860600621,0.1286523811380824
17.455156,8.046118916365566,0.1281711769048686
17.459747999999998,8.073692394102252,0.1276503465031309
17.464332,8.102942556020087,0.1271239455549604
17.468919999999997,8.134113771547366,0.126576129903985
17.473512,8.163119564036911,0.1260658946055682
17.478099999999998,8.18779451045099,0.125630040819428
17.482688,8.213124521884426,0.1251984673500502
17.487284,8.235267491118336,0.1248162642053815
17.491867999999997,8.258432079514039,0.1244211505413711
17.496471999999997,8.284661525395123,0.1239855207748197
17.50106,8.312445470743212,0.1235502505340744
17.505647999999997,8.335487874424768,0.1231674529576875
17.510251999999998,8.356609224496884,0.1228095764291457
17.51484,8.379651628178443,0.1224333132134153
17.519443999999996,8.407147062649612,0.1219833706848863
17.524023999999997,8.436152855139158,0.121498675339271
17.528619999999997,8.4716549167419,0.1209152175040948
17.533199999999997,8.501105306639401,0.1203768001892112
17.537803999999998,8.525936339584513,0.1198854970045231
17.542388,8.549090688348478,0.1194100843416229
17.546988,8.571057091787877,0.1189230435085641
17.551579999999998,8.58108647797956,0.1185454885924957
17.556175999999997,8.58481982303771,0.1182201340909069
17.560764,8.589452602543505,0.1178891654682865
17.565355999999998,8.595595740067678,0.1175216949944368
17.569944,8.600795301695575,0.1171262610425538
17.57454,8.60546198301826,0.1167204207710872
17.579127999999997,8.615481129578207,0.1162372344577038
17.583712,8.626766264728236,0.1157323417758099
17.588288,8.633920781782464,0.1152474670637925
17.592879999999997,8.638987919064474,0.1147571794242494
17.597475999999997,8.653904693821985,0.1141600003636096
17.602064,8.670331826597874,0.1135296752016442
17.606655999999997,8.681484537402019,0.1129357345159799
17.611244,8.688795140987283,0.1123813786856863
17.615835999999998,8.693407441229601,0.1118485834516835
17.620423999999996,8.69135714619595,0.1113797752567295
17.624999999999996,8.695314381418912,0.1108449512526189
17.629603999999997,8.700659789946105,0.1102801833816667
17.634192,8.701508026235059,0.1097475601936714
17.638796,8.701456828076365,0.1092215967033188
17.643387999999998,8.710766528536587,0.1086143655077888
17.647975999999996,8.725961574539278,0.1079471698266045
17.652568,8.74140098997026,0.1072738283359334
17.657159999999998,8.757617655134746,0.1066029393435149
17.661755999999997,8.780130361432766,0.1058934775150579
17.666335999999998,8.804808490768519,0.1051582135468173
17.670931999999997,8.829364435390124,0.1044353970195046
17.675511999999998,8.850977707240496,0.1037440115329411
17.680111999999998,8.874922728291372,0.103053817685424
17.684692,8.89940062964746,0.1023779152484651
17.689287999999998,8.91631650127993,0.1017680053336079
17.693876,8.932988003484109,0.1011724634646591
17.698468,8.954034493212378,0.1005568361091988
17.703068,8.97982252460718,0.0999072648479909
17.707659999999997,9.00753160961142,0.0992446925748033
17.712248,9.040759486015698,0.0985484175713085
17.716831999999997,9.07182193938224,0.097885191386282
17.72142,9.10546051137758,0.0972162356409402
17.726015999999998,9.142574636449368,0.0965338393530387
17.730604,9.18009945711222,0.0958691791170689
17.735191999999998,9.215947593593922,0.0952155366247792
17.739776,9.25052974148554,0.0945877475872224
17.744352,9.280370347710626,0.0939953231029324
17.748948,9.31111038838336,0.0934029927267691
17.753539999999997,9.339274310427296,0.0928255720052937
17.758128,9.368992731938237,0.0922551401544632
17.762724,9.399488403182678,0.0916914748937407
17.767311999999997,9.430883508874771,0.0911248496841146
17.771891999999998,9.46150136483336,0.0905601764566545
17.776491999999998,9.491464155772594,0.0899926120225329
17.781091999999997,9.524003065340622,0.0894193847231705
17.785683999999996,9.551556063813832,0.0888855044540034
17.790263999999997,9.576410758944098,0.0883657945011169
17.794863999999997,9.59742334685548,0.087874606674942
17.799452,9.617292130890924,0.0873993311011943
17.804052,9.63344099242163,0.0869464617280099
17.808639999999997,9.648446050076396,0.0865086579275425
17.813239999999997,9.66447272689296,0.0860661809750597
17.817836,9.682542642033107,0.0856102606790503
17.822436,9.70212291519163,0.0851287008436208
17.827015999999997,9.721703188350157,0.0846500513861781
17.831612,9.740384027061028,0.0841765272605429
17.836212,9.76176316911485,0.0836926493708065
17.840804,9.78032182311158,0.0832254234807376
17.845408,9.796348499928138,0.0827943085526634
17.850004,9.810576307849402,0.0823726657080272
17.854591999999997,9.819285324370632,0.0819756383464872
17.859188,9.829138144767809,0.0815674752496832
17.863775999999998,9.837969346003185,0.0811675031446528
17.86836,9.84745561225792,0.0807751426135297
17.872943999999997,9.855265194331505,0.0803848901026524
17.87754,9.869204491375848,0.0799491178509189
17.882136,9.882244353972544,0.079515899396587
17.886715999999996,9.896305835731038,0.0790757650498691
17.891308,9.90742464471829,0.0786529165465665
17.895884,9.917766203972048,0.0782279422224131
17.900471999999997,9.92667544847294,0.0777947072087943
17.905067999999996,9.930843151307306,0.0773858752617173
17.909651999999998,9.928470443579842,0.07700555373155
17.914243999999997,9.92405449752879,0.0766401838093566
17.918836,9.920293616497096,0.0762826064893226
17.923436,9.917676539341342,0.0759139308701274
17.928031999999998,9.91248334355679,0.0755475343606053
17.932619999999996,9.906390713324589,0.0751828354180254
17.937216,9.902052810539056,0.0747835121050778
17.941795999999997,9.892196116353489,0.074402196409316
17.946388,9.886181529386809,0.0740015192873767
17.950975999999997,9.879267507972475,0.0736037904028599
17.955575999999997,9.870676802376996,0.0732048864048552
17.960171999999996,9.85771110925742,0.0728118772393419
17.964768,9.844745416137847,0.0724180937411635
17.969355999999998,9.83075810385648,0.072031870851512
17.973947999999996,9.819835649060492,0.0716251574377375
17.978544,9.809690443998006,0.0712212217334456
17.983136,9.803998269725133,0.0707768372369799
17.987723999999996,9.79908334518576,0.070334027097087
17.992316,9.797766158436982,0.0698837130633619
17.996903999999997,9.797470590849995,0.0694261699013174
18.001488,9.800772761053604,0.0689596893461916
18.006075999999997,9.803952746543064,0.0684975151975707
18.010672,9.800714506184844,0.0680521932235492
18.015264,9.793511973893596,0.0676273324655837
18.019852,9.789662809964646,0.0672036766283882
18.024436,9.789777937968726,0.0667598370135621
18.029024,9.789404327116223,0.0663346332353847
18.033616,9.792628454054311,0.065900706351834
18.038212,9.793687157954666,0.0654842164732301
18.0428,9.793357688550794,0.0650874002103424
18.047396,9.797403206671012,0.0646871822742729
18.051984,9.806723146762971,0.0642819463238795
18.056572,9.816698151874288,0.0638845040840488
18.061168,9.824629918662016,0.0634999361296633
18.065756,9.83333893518325,0.0631205644285237
18.07036,9.840615636951622,0.0627315993979286
18.07494,9.849202468758708,0.0623601940718414
18.079548,9.860854158051175,0.0619731093964439
18.084124,9.86866374012476,0.0616006511246838
18.088724,9.877372756645997,0.0612274648097373
18.093312,9.88428290427193,0.0608565627196403
18.097912,9.894135724669102,0.0604747225123304
18.102496,9.909751705894596,0.0600726729159527
18.107092,9.929454163767266,0.0596493942521056
18.111676,9.95156641410596,0.0592055687508408
18.116268,9.967915503616329,0.0587813107261338
18.12086,9.98450896255499,0.0583496465400973
18.125452,10.002901290388946,0.0579171985774416
18.130044,10.022681791527132,0.0574676055275249
18.134636,10.043073216236047,0.0569969272222867
18.139216,10.061787956763812,0.0565257101967697
18.143812,10.076904959500986,0.0560585861586493
18.1484,10.093410135542392,0.055575353363265
18.153,10.109915311583798,0.0550922624968016
18.157592,10.12065732679688,0.0546260817865857
18.16218,10.127190680648637,0.0541820660106429
18.166772,10.125140385614984,0.0537597029812032
18.17136,10.118226364200655,0.0533529251491555
18.175952,10.106448616405649,0.052958468838228
18.180544,10.088785523068177,0.0525821459552904
18.185132,10.069323560835404,0.0522045061582099
18.189728,10.043076818612514,0.0518459640378294
18.19432,10.010045296399507,0.0515055020558111
18.198908,9.969207375034593,0.0511870851448767
