Time,Force,Position
12.83744,6.931374081250621,0.1483187933578267
12.842016,7.036421797065891,0.1480578357328746
12.846612,7.123959323153047,0.1479127485555912
12.851192,7.199994189768706,0.1477550428074027
12.855788,7.263915473342139,0.1476233615121581
12.860372,7.32173070412996,0.1474054065735442
12.864964,7.368698340465641,0.1471774457094337
12.869555999999998,7.402042035740719,0.1470197543270015
12.874148,7.424992973603348,0.1468984626160518
12.878748,7.443602825758772,0.1467458878620582
12.88334,7.454973060884385,0.1466518012797097
12.88794,7.466998361029354,0.1465620320970093
12.892531999999996,7.482377029536624,0.1464389289521659
12.897107999999998,7.494157960253303,0.1463637421565631
12.901704,7.508881563741215,0.146240891111448
12.906279999999995,7.531778120523477,0.1459705062508391
12.910863999999998,7.560682207562355,0.1455998073279524
12.915459999999998,7.595716009571992,0.1451256402742423
12.920044,7.632670865191073,0.1446238307934675
12.924628,7.668970655790795,0.1441286199683166
12.929204,7.698730035828691,0.1437272952006993
12.933792,7.7352741958567055,0.1432234944120077
12.938387999999998,7.775249767512538,0.1426462978166053
12.942972,7.813426470273074,0.1420931859033141
12.947563999999998,7.855689649680785,0.1414780742788864
12.952156,7.892434037688463,0.1409422986105042
12.956752,7.92917842569614,0.1404124024321141
12.961352,7.971685974532142,0.1398067526966494
12.965932,8.019423803891257,0.1391115308113128
12.970524,8.069615567165021,0.1384059427750188
12.975104,8.121317688457166,0.1376593469181205
12.9797,8.171587494996452,0.1369206102303056
12.98428,8.222223855678173,0.1361657322140872
12.98888,8.276457954150485,0.1353752151411982
12.993463999999998,8.32672776068977,0.1346480360082075
12.998048,8.373399829438464,0.1339731792204685
13.002643999999998,8.415041845643707,0.1333455641855339
13.007239999999998,8.45104288573477,0.1327948714952714
13.011843999999998,8.486633230234771,0.1322327501876269
13.016428,8.518503652230034,0.1317165513491982
13.021011999999995,8.555482170034264,0.1311271232100554
13.025595999999998,8.588985134762048,0.1305727643107214
13.030184,8.621055784736974,0.1300217020798211
13.034776,8.651039054939684,0.1294651774643568
13.039356,8.672027980665916,0.128997467421247
13.043936,8.690440787763348,0.1285487326276048
13.048532,8.702801923155539,0.1281479110967686
13.053108,8.707190333233044,0.1278202021726282
13.057695999999998,8.710268613271836,0.1274875795049891
13.0623,8.707128895442612,0.1271744620396268
13.066876,8.698836940355791,0.1268988034216029
13.071467999999998,8.688335420782611,0.1266236784727171
13.07606,8.674069837256063,0.1263530746404739
13.080643999999998,8.652320267271413,0.1261263961082359
13.085239999999995,8.629627121390488,0.1258729099854266
13.089819999999998,8.602925542127906,0.1256353465504019
13.094415999999995,8.571848975341231,0.1254319371453941
13.099004,8.539584463229989,0.125213048503124
13.103599999999998,8.502045529147006,0.1250363327264646
13.108188,8.461397596130011,0.124867503492459
13.112788,8.417518479464865,0.1247091991985744
13.11738,8.371551983027501,0.1245423535025065
13.121975999999998,8.32300936796134,0.1243912077015764
13.126556,8.278186675399917,0.124198511935584
13.131147999999998,8.235529405876228,0.1239701203403838
13.135736,8.196059178552064,0.1236903593482156
13.140327999999998,8.16133049289443,0.1233554533567426
13.144916,8.134408206388708,0.1229228589458902
13.149504,8.101356204912223,0.1225735415423697
13.154092,8.070758137350392,0.1222098771291114
13.158688,8.044412872598508,0.1218164887320086
13.163271999999996,8.019377737885337,0.1214301795813162
13.16786,8.000272090163264,0.1210051374911218
13.172444,7.99130459079361,0.1204802496436933
13.177023999999998,7.987367143967405,0.1199274738929211
13.181616,7.987560315237003,0.1193547323638547
13.186212,7.996747830983079,0.1187067228334952
13.190799999999998,8.005324423158426,0.1180877272866346
13.195392,8.020074871753161,0.1174207981984271
13.199984,8.042431491520146,0.1167111238123702
13.204571999999995,8.064832252735759,0.1160383917147385
13.209164,8.089975458742945,0.1153792150510933
13.213755999999998,8.121048151741226,0.1146900270471245
13.218347999999995,8.154452593940016,0.1140053422732038
13.222927999999998,8.195707576739345,0.1132747691870467
13.227523999999995,8.237251070415594,0.1125719674906369
13.232103999999998,8.282147932454142,0.1118616736004042
13.236703999999998,8.321447959827141,0.1112461247866609
13.241283999999998,8.369331636085551,0.1105467351351639
13.245879999999998,8.421345930439765,0.1098377706130435
13.250472,8.479123385622303,0.1090827066669108
13.255068,8.538944079128427,0.1083094265936347
13.259668,8.59684371902511,0.1075644679820422
13.264264,8.647469840075091,0.1069171392422733
13.268855999999998,8.695275473067987,0.1063002130703194
13.273448,8.738217379680203,0.1057322279702288
13.278035999999998,8.775640494892388,0.105212918926065
13.282624,8.818948955647041,0.1046394603704989
13.2872,8.86609952362058,0.1040421957419685
13.291796,8.909119473498313,0.1034623963383554
13.296388,8.952505977518484,0.1028677827745484
13.300968,8.997280654842886,0.102250318955547
13.305568,9.03870196380499,0.1016505438287199
13.310155999999996,9.074971035509495,0.1010769755459909
13.314748,9.103145197185173,0.1005562995610515
13.319331999999998,9.129887044107988,0.1000317603701287
13.32392,9.15033284989727,0.0995463664230787
13.328528,9.171511763971424,0.0990287290510731
13.333116,9.19023674413093,0.0985212354239032
13.337704,9.201111183689893,0.0980490799751678
13.342296,9.202746909344086,0.0976394545235076
13.346876,9.203361015836489,0.0972417705077012
13.35148,9.203075687881238,0.0968497547543649
13.356059999999998,9.204300717944369,0.0964258109134769
13.360659999999998,9.205115052416437,0.0959859200340329
13.365239999999998,9.209360798516313,0.095499516691555
13.369835999999998,9.214505979063842,0.0950086067196354
13.37442,9.215031802658986,0.0945486093176797
13.37902,9.203498424292274,0.094163836694116
13.383611999999998,9.190288361744408,0.0937815141642775
13.388207999999995,9.178344287786626,0.0933792230186176
13.392783999999995,9.162802476038255,0.0929944614066741
13.39738,9.145339610680445,0.0926226962931562
13.401976,9.128653995056132,0.0922504575514973
13.406567999999998,9.112745629165325,0.091877294728052
13.411159999999995,9.098636132169812,0.0914951201936254
13.415752,9.086203319355448,0.0911080876527778
13.420339999999998,9.074425571560443,0.0907266510381817
13.424919999999998,9.059338596851765,0.090383241258267
13.429511999999995,9.051569282438416,0.0900003620881411
13.4341,9.048419324977452,0.089590578535068
13.438691999999998,9.04359268333534,0.0891841700713579
13.443267999999998,9.040809280016814,0.0887604543839495
13.447863999999996,9.04072418004123,0.0883256492702516
13.452448,9.043748078999654,0.0878970536752575
13.457036,9.048204292710938,0.087477688659505
13.461628,9.05458156003166,0.0870473213222628
13.466215999999998,9.064312195714685,0.0866137900596401
13.470808,9.08520259891192,0.0861210425299751
13.475408,9.11406572742384,0.0856043776232383
13.479991999999998,9.140641248183885,0.0851170298642541
13.484595999999998,9.169792887572724,0.0846253722954401
13.489171999999998,9.20356388391395,0.0841139271215567
13.493771999999998,9.240155368312264,0.0835900751998578
13.49836,9.282632198253047,0.0830301486959565
13.502956,9.32792951625092,0.0824621052968998
13.507539999999995,9.3802559836672,0.0818495844681803
13.51214,9.432704635797627,0.081235329096876
13.516732,9.491160818184673,0.0805827937929359
13.521323999999998,9.549861370000007,0.0799299867270982
13.525916,9.612281844320078,0.0792694459036819
13.530508,9.674580133926003,0.078615556495483
13.535112,9.735079554636632,0.0779735997623387
13.539708,9.794801725613762,0.0773361412919333
13.544304,9.84924947461915,0.0767130370998501
13.548899999999998,9.901121104995742,0.0760971118092979
13.553488,9.95131605119118,0.0754867655695839
13.55808,9.997502564004964,0.0748746006146964
13.562668,10.039069719866363,0.0742860627246216
13.56726,10.071520346537138,0.0737300618914701
13.571851999999998,10.10793526514094,0.0731540322698466
13.576444,10.144716737887178,0.0725682453344611
13.581036,10.175979419233384,0.0720028172010899
13.585623999999996,10.207486470007884,0.0714332474263724
13.590208,10.236050848011146,0.0708843674297213
13.594795999999995,10.261017488223818,0.0703482438963879
13.599379999999998,10.280998217341669,0.0698455546428989
13.603975999999998,10.304698868964254,0.0693343404899259
13.608564,10.324557413367955,0.0688430700464131
13.613151999999998,10.341473285000427,0.0683688437728365
13.617747999999995,10.351193681051711,0.0679109365181973
13.622344,10.362957315426586,0.0674420520972977
13.62694,10.374354395659026,0.0669868357884576
13.631531999999998,10.382808803120229,0.0665455758096404
13.636136,10.398047990571548,0.0660777643406098
13.640723999999995,10.41790653497525,0.0656006091771902
13.645324,10.43674346021716,0.0651302002484448
13.649912,10.459178123249664,0.0646558175083475
13.654507999999998,10.481612786282165,0.064182877979006
13.659096,10.512508913485934,0.0636871099165748
13.663679999999998,10.53878568373732,0.0632045791715831
13.668275999999995,10.56583970372221,0.062728277824943
13.672872,10.59673583092598,0.0622394793806075
13.677459999999998,10.624689285358514,0.061765057472521
13.682051999999995,10.649045002000458,0.0612960553769698
13.686648,10.669680796137662,0.0608356138274142
13.691244,10.685697233322484,0.0603847363854129
13.695831999999998,10.697094313554922,0.0599456418292155
13.70042,10.706692524892064,0.0595087558899883
13.705007999999998,10.714491867333908,0.059073947048906
13.709603999999995,10.723068459509255,0.0586412757016602
13.714192,10.727925129179866,0.0582165039626041
13.718787999999998,10.73045004964997,0.0577816336343345
13.723379999999995,10.73039885149128,0.0573431596444809
13.727968,10.719965135551876,0.0569295502681721
13.732563999999998,10.702458128745436,0.0565180537635245
13.737139999999998,10.6831522530437,0.0561064495871901
13.74172,10.659104835675432,0.0557057796052249
13.746331999999995,10.631337495802429,0.0553100838290638
13.75092,10.59498650704401,0.0549359535692841
13.755511999999998,10.555815030228503,0.0545646850182029
13.7601,10.507404839508231,0.054204276506868
13.764687999999998,10.454497476549715,0.0538437639014404
13.76928,10.396726387210524,0.0534948964421237
13.773872,10.339976917033123,0.0531379421451373
13.778463999999998,10.283882511875085,0.0527853544990072
13.783052,10.228565356450543,0.0524332071920555
