Time,Force,Position
15.364164,4.512475764360023,0.1547304295286336
15.368743999999998,4.802377183269647,0.1544242320559822
15.373343999999998,5.074225292514208,0.1540644823126968
15.377928,5.333216470799931,0.1535957244979338
15.382519999999998,5.582171206183903,0.1530293093105613
15.387112,5.813116773351441,0.1525235892779655
15.391704,6.028218595340276,0.1519726093905971
15.396295999999998,6.218726697102222,0.1515587883558191
15.400884,6.39052642417975,0.1510938387559993
15.405471999999998,6.541085799392689,0.1507036156007238
15.410056,6.669994127149974,0.1503627355479857
15.414644,6.781504210261551,0.1500058110886157
15.419244,6.8740615492604205,0.1496344768459497
15.423832,6.945622905822989,0.1492883144064876
15.42842,6.997820822681782,0.1488984883648355
15.433012,7.029633680675007,0.1484873801713829
15.437592,7.041594360107872,0.1480650259496626
15.44218,7.036078751629512,0.1476549478708773
15.446764,7.022702362918874,0.1472155409640594
15.451356,7.006583529416665,0.1467707616139536
15.455947999999998,6.989765489446471,0.1462795678519379
15.46054,6.964686213284673,0.1458682026904654
15.46514,6.935720688455363,0.1454785654391526
15.469732,6.89988210073868,0.1451235753593758
15.47432,6.853616853792658,0.1448971836946044
15.478923999999996,6.804731346769212,0.144656098091709
15.483516,6.751304526058897,0.1444335790244331
15.488108,6.702819474994777,0.1440640070393362
15.492688,6.655844781949033,0.1436342845084249
15.497288,6.606904893845218,0.1431907336086331
15.501875999999998,6.554489452664958,0.1427875876926763
15.506475999999996,6.496799589512958,0.1424498691329709
15.511068,6.434612554122717,0.1421747028644813
15.515664,6.375490376217858,0.1418256481806555
15.520248,6.317634186903081,0.1414266923139032
15.524836,6.257856943978865,0.1410575163060249
15.529431999999998,6.196935897178709,0.1407153698155901
15.534027999999998,6.136669915397908,0.1403735400855568
15.538616,6.073994141151085,0.1400997321331691
15.543207999999998,6.012872866371264,0.1398120560264993
15.547796,5.945499691906538,0.1396664647323528
15.552383999999998,5.879070093338089,0.1395541011856563
15.556972,5.818569981760735,0.1393621988427019
15.561572,5.762611183870248,0.1391466401949575
15.566164,5.714747296008594,0.1387984303959017
15.570752,5.674245209890895,0.138370417486693
15.575344,5.63893950247942,0.1379224564813867
15.579935999999998,5.60180102435576,0.137605707995274
15.584528,5.5670384368812345,0.1373189895939252
15.589116,5.542091585065317,0.1369374346663863
15.593704,5.5279820880698045,0.1364429375168693
15.598304,5.520990023389956,0.1358984622028802
15.602887999999998,5.523324955512133,0.135300831758212
15.6075,5.523827116922125,0.1348377513381354
15.612092,5.523928822372792,0.1345101968876137
15.61668,5.531680840444334,0.1341483577523912
15.621276,5.548593529155129,0.1336972166261554
15.625863999999998,5.57147984630565,0.1332314347822902
15.630468,5.606591691580803,0.1326173658178102
15.635044,5.653562510838153,0.1318960581501513
15.639648,5.70842801214467,0.1311161767504346
15.644232,5.771799119071083,0.1302547977915397
15.648828,5.835869432465483,0.1294616805153711
15.653415999999998,5.9074237323179855,0.1286190125622364
15.658015999999998,5.977756185029032,0.1278764879179549
15.6626,6.044412856683969,0.1272513608493373
15.667196,6.113523462253558,0.1266187702911107
15.671784,6.187131240061388,0.1259317207991951
15.67638,6.260372463726781,0.1252784292078705
15.680967999999998,6.326584537973763,0.1247651216960042
15.68556,6.388954505001864,0.1243283077561059
15.690148,6.451080102601672,0.1239162054441325
15.694743999999998,6.515082612362296,0.1234472936164212
15.699336,6.586603010397908,0.1228335055531093
15.703932,6.663842427813218,0.1220960742980321
15.708515999999998,6.742836572675197,0.1213147225612014
15.713112,6.818477349174875,0.1205782830879786
15.717704,6.892397300044774,0.1198210536310469
15.722284,6.958222340885842,0.1191705555970668
15.72688,7.011699668888133,0.1186510414104084
15.731467999999998,7.065499409584232,0.1180745987904871
15.736064,7.112714598269876,0.1175442800151835
15.740656,7.159108395773391,0.1169805494013674
15.745247999999998,7.197363141799444,0.116463060036851
15.749843999999998,7.235818115805161,0.1158945314174786
15.754432,7.275494936952335,0.1152590886827871
15.759019999999998,7.309486640536702,0.1146505149132697
15.763608,7.33677160739647,0.114082068195064
15.768199999999998,7.363357367788251,0.1134715060536467
15.772795999999998,7.390143356159696,0.1128036129404854
15.777376,7.41418689973957,0.1121220251024245
15.781975999999998,7.433034064613219,0.1114362167921221
15.786552,7.441332385543387,0.1108371503927596
15.791147999999998,7.443212480625871,0.1103061964876891
15.79574,7.4392852734314046,0.1098055035807227
15.800332,7.42636372176046,0.1093816624568293
15.804923999999998,7.410210986441362,0.1089674851448192
15.809516,7.390827067474107,0.108561474328542
15.814104,7.366657465391696,0.1081641172139613
15.818695999999996,7.341055548556425,0.1077583405684915
15.823288,7.311978078644708,0.1073738638330277
15.82788,7.28044667481834,0.1069951689878186
15.832468,7.246216967649028,0.1066362503941032
15.83706,7.20904458770848,0.1063107941246557
15.841647999999998,7.168152285263194,0.1060192127905668
15.846244,7.120719572256081,0.1057904041314717
15.850823999999998,7.076351716734349,0.1055144968588452
15.855412,7.03414928425035,0.1051999726311158
15.860008,6.987860375119177,0.1049394769221393
15.864588,6.9433703348833,0.1046604714009455
15.869179999999998,6.8967148716096895,0.1044143164614233
15.873772,6.856111080041323,0.1041266260559344
15.87836,6.81963790656876,0.1038209161017034
15.882955999999998,6.781121494772608,0.103541962342502
15.887548,6.742771409139232,0.1032950284887017
15.892151999999998,6.7089184957440935,0.10300944977297
15.896744,6.67547627794002,0.1027433537541502
15.901331999999998,6.645798124089312,0.1024818155284367
15.905924,6.623726141410852,0.1021823904691579
15.910503999999998,6.608483080171139,0.1018460091867007
15.9151,6.597126267598936,0.1015097318009512
15.919688,6.5904329534277455,0.101173230171784
15.924288,6.586604268762273,0.1008515395345827
15.928868,6.593446612754431,0.1004553704376418
15.933468,6.604297390128245,0.1000532070098831
15.938052,6.623531588407809,0.0996170534570266
15.942648,6.645263862050654,0.0992216985965527
15.94724,6.673458502989807,0.0988198659107268
15.951831999999998,6.709381499815354,0.0983813813676565
15.956431999999998,6.747391876413117,0.0979629848072191
15.961031999999998,6.793130608897272,0.0975092842059169
15.965624,6.838913482830056,0.0971058604285904
15.970216,6.887683170982704,0.0967137934650905
15.974796,6.940705661945298,0.0963040197448576
15.979383999999998,6.995937717394256,0.0959037179786562
15.983968,7.056199825386661,0.0954957038709825
15.988563999999998,7.121081290331451,0.0950554062976027
15.993156,7.187761624171539,0.0946110473310386
15.997744,7.253298154135687,0.0941928061882055
16.002344,7.319367564405044,0.0937964639000239
16.006923999999998,7.384537540226756,0.0934121628046324
16.011511999999996,7.449707516048466,0.0930317447687974
16.016092,7.514588980993257,0.092629392067908
16.020671999999998,7.572397155071011,0.0922731355290606
16.025259999999996,7.630694068005347,0.0918970845557021
16.029856000000002,7.68768085090097,0.091512649686547
16.034444,7.741925189005023,0.0911102295991522
16.039051999999998,7.792527647869855,0.0906991705581441
16.043644,7.838222238905383,0.0902984117140922
16.048235999999996,7.881951634882843,0.0898805408336102
16.052816,7.922039151621082,0.0894507996470201
16.057415999999996,7.9568081049389505,0.089008118960127
16.061999999999998,7.989856232627042,0.088535013991632
16.066603999999998,8.02016191552356,0.0880407657764684
16.071196,8.048868957504448,0.0875088906424266
16.075792,8.066127721094205,0.0870239912193596
16.080384000000002,8.077579182407007,0.0865485966461184
16.084975999999997,8.08154665726171,0.0860834032704644
16.089568,8.082771687324836,0.0855948938175617
16.094160000000002,8.076879285072302,0.0850975607023467
16.098751999999998,8.062603461914017,0.0846101720902073
16.103347999999997,8.041210206440065,0.0841106830405625
16.107936000000002,8.014786898422663,0.0836156452842321
16.112519999999996,7.983333537861812,0.0831231261240044
16.117112,7.945828505595717,0.0826446429110462
16.121707999999998,7.901616736605022,0.0821711911242989
16.126295999999996,7.852130545642585,0.0817110999189961
16.130884000000002,7.795981759404177,0.0812924218556519
16.135475999999997,7.73840065841291,0.0808584298428527
16.140064000000002,7.677221819631052,0.0804345041805212
16.144655999999998,7.611301439182664,0.0800360616115371
16.149243999999996,7.546402677896068,0.0796208334296921
16.153832,7.478805613266529,0.0792107480484137
16.158428,7.408920940885113,0.078826907317384
16.163007999999998,7.336870845465961,0.0784627777959681
16.167603999999997,7.272382779770431,0.0780454718112123
16.172199999999997,7.210593017417844,0.0776112131853328
16.176788000000002,7.152278808141704,0.0771627080086122
16.181392000000002,7.092820794989623,0.0767237221004373
16.18598,7.036960519628133,0.076263419589845
16.190584,6.990094588743124,0.0757627970974217
16.19516,6.953777501801596,0.0752302050155672
16.199756,6.919669979346428,0.0747072364236475
16.204335999999998,6.893412997491802,0.0741633853202136
16.20894,6.870509383999474,0.0736146634181686
16.213524,6.854801246088329,0.0730372487949459
16.218116000000002,6.847843083225374,0.0724403413368996
16.222696,6.847058776781807,0.0718251771587665
16.227288,6.849505653986393,0.071216728186187
16.231879999999997,6.855061530124987,0.0706198736837102
16.236472,6.8665468932546805,0.0700205347464485
16.241059999999997,6.87922020170894,0.0694476330436181
16.245647999999996,6.896268497687294,0.0688688470382717
16.250236,6.922555507570418,0.0682540435127788
16.254832,6.954239124139429,0.0676260733428836
16.25942,6.989520478499032,0.0669981393622089
16.264015999999998,7.024190909287906,0.0664043170163485
16.268611999999997,7.064013577334376,0.0658152714610207
16.273192,7.110010101800234,0.065221055550965
16.277783999999997,7.161036678809544,0.0646408583168246
16.282372000000002,7.212718320838209,0.0640802634997639
16.286963999999998,7.261212920667349,0.0635596019796987
16.291559999999997,7.317025180791816,0.063023879872394
16.296148000000002,7.37463630981158,0.0624934115907981
16.300748,7.439565099126671,0.0619523354926041
16.305327999999996,7.5047823993186835,0.0614477407690319
16.309916,7.569222449777192,0.0609492923524472
16.31452,7.635050673539933,0.0604342884122387
16.319108,7.700756712588527,0.0599303531436711
16.323712,7.768628174674856,0.0594120014344699
16.328291999999998,7.836988375617764,0.0588787058088459
16.332892,7.908291249331909,0.0583359473902098
16.337471999999998,7.974730396665377,0.057819600191327
16.342072,8.032053014808222,0.0573269431342048
16.346655999999996,8.086799514322268,0.0568383353852093
16.351256,8.131940745789107,0.0563906886305165
16.355843999999998,8.17667128166488,0.0559239618255244
16.360436,8.21342909222597,0.0554636127880003
16.365024,8.240826004168145,0.0550291284864423
16.369619999999998,8.25616371414846,0.0546219260149526
16.374207999999996,8.265982632728742,0.0542261912838528
16.378804000000002,8.269627694889634,0.053829752867915
16.383392,8.262479543678753,0.0534426423479961
16.387976000000002,8.245193244115454,0.0530725483771667
16.392556,8.214826123428502,0.0527324933426287
16.397143999999997,8.17546465826507,0.0523963288575661
16.401736,8.124821240873285,0.0520852629523108
16.406323999999998,8.067270858777231,0.0518013530176768
16.410924,8.006244923604736,0.0515106796556204
16.415512,7.935858089813324,0.0512361562366194
16.420104000000002,7.858686476031796,0.050981756099219
16.424692,7.769455660288406,0.0507440013356981
16.42928,7.676382737326135,0.0505151866000518
16.433872,7.580000587450193,0.0503114145796484
16.43846,7.478876895907718,0.0501137752811456
16.443064,7.376853769917595,0.0499125941284522
16.447651999999998,7.2707441672802995,0.0497298462321278
16.452247999999997,7.161447522443478,0.0495660690462668
16.456851999999998,7.0559929848255365,0.0493845316654449
