Time,Force,Position
18.97478,4.912836214548987,0.1595679539216239
18.979372,4.976048052022696,0.1589823245573503
18.983964,5.029345631308801,0.1582596548623376
18.988544,5.07219607210209,0.1573957806975044
18.99314,5.101823027794104,0.1565164200324918
18.997716,5.1255883001288,0.1555186244382327
19.002304,5.138105522052024,0.1546735547457217
19.0069,5.151644363137043,0.1537889118056424
19.011484,5.161419140268699,0.1529376779636532
19.016096,5.163465561513958,0.1522110339450609
19.020688,5.1652234718823005,0.1514459050250816
19.025292,5.170368652429832,0.1505093548975227
19.029888,5.173015757614081,0.149554868396731
19.034476,5.167445768055353,0.1487740950379993
19.039068,5.164774309819233,0.1478580824395875
19.043664,5.164390459334991,0.1468594434061479
19.048256,5.166005705725708,0.1457443056903882
19.052832,5.161691465125325,0.1447139978356985
19.057432,5.153901671448496,0.1437418499365216
19.062012,5.142758509409368,0.1428185551989933
19.066608,5.126629436275418,0.1420204529675287
19.0712,5.105758821474936,0.1413246945407269
19.075796,5.079002861131984,0.1407705498334037
19.080392,5.051635977218304,0.1402633754584441
19.084984,5.022103670266891,0.1398180674480451
19.089572,4.985664398611215,0.1395378688665174
19.094172,4.951679060870192,0.1392278242459179
19.09876,4.921413645633907,0.1388349422366182
19.103356,4.887594634055657,0.1385680463522935
19.107944,4.864080096992598,0.138136692884119
19.112532,4.8431416785583385,0.1376616648042022
19.11712,4.818038740211387,0.1373644924371733
19.121712,4.794778812208358,0.1370889375719249
19.126304,4.776793306177072,0.1367232926423894
19.130892,4.759507006613768,0.1364199025589821
19.135488,4.745329705984475,0.1360926463045688
19.140076,4.733528296004318,0.1358069049395253
19.144668,4.729088687768119,0.1354431369874012
19.149252,4.728290958771138,0.1350753792347171
19.15384,4.727948066813853,0.1347922146797661
19.158436,4.7332902924193725,0.1344525985800985
19.163024,4.747915373378291,0.1339968713954681
19.167612,4.76810338718587,0.1334924635614553
19.1722,4.783594000775546,0.1331449689517638
19.176792,4.805913535803969,0.1327083857908155
19.181396,4.838659730061729,0.1321270071014532
19.185992,4.871816619910554,0.1315705382564184
19.190596,4.905917085655655,0.1310679050260617
19.195176,4.947213026981938,0.1304387644792964
19.199764,4.98634354527049,0.1298862239405507
19.204344,5.026784193597753,0.1293578893217971
19.208944,5.069268080248603,0.1287774799971067
19.213536,5.110608163023515,0.1282389766918302
19.218128,5.150560072494196,0.1277638868347744
19.222716,5.194476273897906,0.1272148199158103
19.227312,5.236104867549738,0.1267437678546184
19.231908,5.276056777020419,0.1262984911657793
19.236508,5.314087632881659,0.1258960861335271
19.2411,5.352240673457043,0.1254897080990364
19.2457,5.392270626193243,0.1249941289412173
19.250288,5.428947210567142,0.1245337780241122
19.25488,5.463536415168825,0.1240810637141784
19.259468,5.500535412236533,0.1235665954117057
19.264068,5.541865255379706,0.1229403668147622
19.268656,5.576121807655843,0.1224093435079034
19.273256,5.604693242369172,0.1219341500373716
19.277848,5.637717707872112,0.1213554128407775
19.282436,5.668899163031128,0.1207550854076347
19.287028,5.695950000094344,0.1201888062276057
19.291608,5.719114588490047,0.119635127902745
19.2962,5.738148558789948,0.1191142118421479
19.300796,5.753174095708192,0.118612293429182
19.305376,5.765212818406574,0.1181097538605099
19.309964,5.774142542170946,0.1176152900174553
19.314556,5.77240123727769,0.1172477506464209
19.319148,5.765752064555129,0.116910589284981
19.32374,5.755871708184414,0.1165909609044191
19.32832,5.743248907022129,0.1162521456983444
19.332924,5.725840422744685,0.1159349615915762
19.337512,5.705733635124295,0.1156498717320422
19.342112,5.689302628560017,0.1152565768566555
19.346692,5.665676146414555,0.1149498860432852
19.351296,5.635220742830347,0.1147006632094664
19.355884,5.60051253643619,0.1144859431429894
19.360472,5.567192503346264,0.1142220828777051
19.365052,5.529130928589806,0.1140283249767056
19.369648,5.48465112798567,0.1139137964422753
19.374252,5.438128089057946,0.1138348138628981
19.378848,5.394669907615603,0.1136903599724814
19.383436,5.356852702287437,0.1134580599991031
19.388028,5.320179300835211,0.1131935685874698
19.39262,5.28902469078302,0.1128536971694173
19.397208,5.261590003235565,0.1124599893983227
19.401796,5.238774672640493,0.1120039414335824
19.406388,5.225975305683694,0.1114248608313124
19.41098,5.219471979860431,0.1107723983078858
19.415572,5.2123577304664375,0.110160169784881
19.420168,5.209374099168247,0.1095240011193834
19.424756,5.211298335699362,0.108862366470419
19.429348,5.215554321430982,0.1081977948929596
19.433928,5.219077198877729,0.1075945815659924
19.43852,5.227630128867927,0.106956438006815
19.443116,5.241745991706784,0.1063050346786931
19.447704,5.265633448755622,0.1055636750623559
19.452296,5.296227642529061,0.104792637001598
19.456888,5.330830269684156,0.1040059600839973
19.461464,5.371118014402059,0.1032020709359951
19.46606,5.415658561929909,0.1023744100996809
19.470648,5.46126487006818,0.1015956715318693
19.475248,5.503073212436197,0.1009324723974818
19.479836,5.546724565148138,0.10030828156636
19.484432,5.590664428736998,0.0997314886924573
19.489016,5.63567005293628,0.0991989899764869
19.493616,5.6812085574407725,0.0986952942702884
19.4982,5.72356001974574,0.0982600374882881
19.502788,5.76860978539365,0.0978142540505746
19.507388,5.821343765479326,0.0972769399657381
19.511984,5.875632245032005,0.0967532565728523
19.516572,5.932863397355921,0.0962048279330387
19.521168,5.993814472184573,0.0956310235490856
19.525756,6.050801255080196,0.0951112396282593
19.530344,6.109709091585261,0.094577623169695
19.53492,6.167961863070969,0.0940443373693559
19.53952,6.219918593423142,0.0935733636063112
19.544108,6.263780413746485,0.0931672226132973
19.548684,6.306087734602824,0.0927589232076849
19.55328,6.344508806791651,0.0923498707233253
19.557856,6.382274813961121,0.0919391318900023
19.56244,6.419630125539527,0.0915115894507042
19.567036,6.460783402888188,0.0910031455280997
19.571624,6.503813592397661,0.0904374777685325
19.57622,6.546310901601924,0.0898635083377334
19.5808,6.586720831033972,0.0892759921724113
19.585388,6.622755772941926,0.0887129401786837
19.589992,6.658502203972961,0.0881231268847205
19.594584,6.688974213032255,0.0875673854684955
19.599176,6.712250746510366,0.087059654317813
19.603764,6.731641031320964,0.0865481695749137
19.608368,6.742403525797522,0.086070106790639
19.612952,6.746337098835335,0.085614455376373
19.617552,6.753946452929256,0.0850881578736975
19.62214,6.758324623375023,0.084563471336857
19.626736,6.759471610172634,0.0840383705623849
19.631332,6.761762400846186,0.083496348479013
19.635924,6.76646298398576,0.0829082554001933
19.640508,6.774839348181445,0.0822537474232043
19.645104,6.781416843481833,0.0816063056435284
19.649692,6.78386372068642,0.0809614987456137
19.654288,6.782057795081059,0.0803255241485285
19.658868,6.772689839752077,0.0797438602870046
19.66346,6.7579252777372085,0.0791874440058604
19.66804,6.73620960956945,0.0786474390010517
19.672636,6.710774018896952,0.0781274727967762
19.677228,6.685949351795183,0.0775693520732391
19.68182,6.65842638135047,0.077019802445023
19.686416,6.626284053953374,0.076491699963366
19.691004,6.598106018489304,0.0759238542067706
19.695596,6.569561428882798,0.0753738663425317
19.700184,6.546291261248035,0.0748035802413022
19.704776,6.522776724184979,0.0742421901601539
19.70936,6.496197329636543,0.0737104247341268
19.71394,6.466675262316873,0.0731990716470964
19.71854,6.437808260016559,0.0726947358079586
19.723132,6.403300281602066,0.0722216422860388
19.72772,6.370468987368723,0.0717455836159433
19.732316,6.333184662345769,0.0713286629007288
19.736912,6.300641878989345,0.0708781527157651
19.741504,6.270308660119281,0.0704425615011157
19.746084,6.24500549379267,0.0700072621774417
19.750684,6.223300065256648,0.0695556295338821
19.755264,6.203682016492842,0.0691273284407787
19.759872,6.191015073881927,0.0686861895079518
19.764464,6.185010726546985,0.0682027015895184
19.769052,6.181093758984258,0.0677453395107809
19.773636,6.182329028679127,0.0672858598828964
19.778232,6.193702446726412,0.0667831276208086
19.78282,6.204831495345408,0.066297962468154
19.78742,6.216737793697905,0.0658175301584121
19.792012,6.229176972355613,0.0653589810843529
19.796604,6.247012757699209,0.0648874581596352
19.801192,6.271266768890484,0.0643977836482407
19.80578,6.305781113148323,0.0638689740625921
19.81036,6.340173272692017,0.0633475478603445
19.814952,6.381760907816892,0.0628100406702342
19.819544,6.421183119904035,0.0623007913519201
19.824132,6.462648570314767,0.0617753049412685
19.828724,6.501826412973618,0.0612866236362973
19.833304,6.54406911311785,0.0607781146149495
19.837896,6.581692456309698,0.0602887430713685
19.842492,6.624057341168076,0.0597836421368928
19.847084,6.666666595454745,0.0592673882487046
19.851676,6.708498600007914,0.0587522319490388
19.85626,6.747265747075701,0.0582680753427341
19.86084,6.785133459695841,0.0577879809674365
19.865432,6.820425053687182,0.0573109108389077
19.870028,6.852773974907288,0.056858667428028
19.874632,6.883979092251455,0.0564232792782645
19.879216,6.910809222071529,0.0559861012936784
19.883816,6.932120560491569,0.0555619319187666
19.888404,6.945992053902135,0.0551592869138831
19.893004,6.951279898427288,0.0547931638634193
19.897592,6.943242552400497,0.0544793060336837
19.902192,6.9374928141255845,0.0541382552207854
19.906788,6.928023153345936,0.0538077998323164
19.91138,6.918797861994577,0.0534637403808044
19.915972,6.908673136195572,0.053119775580549
19.920568,6.894706303177684,0.0527894426917606
19.925156,6.87497630933147,0.0524814165462555
19.929748,6.854346881037609,0.0521715244771943
19.934336,6.826033238305983,0.0518906268700267
19.938932,6.7941218577837645,0.0516090813624953
19.94352,6.757468935595018,0.0513400015414785
19.948112,6.715952287025592,0.0510897299119843
19.9527,6.673780573436812,0.0508246112570929
19.957284,6.628666187076796,0.0505701573569466
19.96188,6.573291467650218,0.0503351086818333
19.966468,6.514319010433048,0.0500979371391668
19.97106,6.459843725454117,0.0498548071490354
19.975648,6.406390059636979,0.0496010868440725
