Time,Force,Position
14.799836,3.786164277417855,0.1630873303179831
14.804428,4.032420709458884,0.1607799950125555
14.80902,4.261323038302834,0.159111858694899
14.813612,4.479866511551227,0.157665858335276
14.8182,4.682898891946464,0.1564431527783217
14.822804,4.862447454173863,0.1557578664967014
14.827392,5.022354305452306,0.1553619901907238
14.831992,5.160898620152015,0.1551347446744449
14.83658,5.279268343597554,0.1550711291821005
14.84118,5.389356351588012,0.1547558376460776
14.845771999999998,5.483356244971477,0.1543982180050544
14.850368,5.562700338500809,0.1540117011873403
14.85496,5.6278773710325884,0.1535413535870359
14.859552,5.6800311464427535,0.152949435842839
14.86414,5.71429793835063,0.1523597055715827
14.868736,5.725403324784477,0.1518830965186162
14.873323999999998,5.717355739125948,0.1514665264255749
14.87792,5.693963386777039,0.1511287003956879
14.882508,5.662143472073751,0.1508559777987724
14.887096,5.630934480941191,0.1505280475334143
14.891684,5.59722741444535,0.1501744394289251
14.896276,5.5566914265107625,0.1499188112404251
14.90086,5.514845308537463,0.1496535106403078
14.90546,5.467025562124439,0.1494166950845505
14.910052,5.418506609243428,0.1491216228284743
14.914628,5.371620199094941,0.1487485849449917
14.919224000000002,5.325466897231327,0.1483058531140411
14.923812,5.279069225939423,0.1478786632720229
14.928400000000002,5.229073816856925,0.1475181799076266
14.932992,5.172293627784311,0.1473070414293872
14.93758,5.1202549803782285,0.1469762317931429
14.942172,5.06911576741979,0.1466182421064278
14.946756,5.018753804194855,0.1462447890313137
14.951356,4.969046905989276,0.1458654640059524
14.955948,4.922449006717708,0.1454605419309995
14.960536,4.885622701656117,0.1448688617173349
14.96514,4.854970253013916,0.1441619088868462
14.969728000000002,4.825261380267991,0.1434895018446882
14.974324,4.796007344561758,0.1428978841058187
14.9789,4.769495753647098,0.1423071587082361
14.9835,4.743927738628714,0.1417529204692448
14.988092,4.7236782870307,0.1411608457152048
14.992684,4.708092333833699,0.1405279862238307
14.997272,4.697336205200485,0.1399035959014822
15.001864,4.694719128044729,0.1391885264568323
15.00646,4.697298429595197,0.1384541115793251
15.011052,4.700865448490569,0.1378216964902397
15.01564,4.709751030806312,0.1371597362470559
15.020228,4.722034122932982,0.1365023311061008
15.024816,4.739269224337586,0.1358459106894851
15.029396,4.756592608639445,0.1353184602870177
15.033996,4.777724198343299,0.1348398938477533
15.038588,4.802663993449147,0.1344073841720854
15.04318,4.833210862852284,0.1339924053658803
15.047768,4.875983260380053,0.1334063376985659
15.052368,4.918188875785722,0.1329478738390722
15.056956,4.964935804878259,0.1324913107965119
15.06154,5.018145101267105,0.1319849010513012
15.066135999999998,5.079449307684782,0.1313546564271905
15.070724,5.139409482246857,0.130839315456773
15.07532,5.202889351334006,0.1303343888831736
15.079908,5.2674349810315775,0.129865542936287
15.084496,5.332802001911278,0.1294570156787934
15.0891,5.401522391153279,0.1290238145721689
15.093696,5.465667564891524,0.1287354226127996
15.0983,5.529323999773184,0.1284900210721541
15.102892,5.596578172445437,0.128194199817702
15.107484,5.665509029298841,0.1278920592514131
15.112063999999998,5.742901350323512,0.1274576966598332
15.116668,5.822703463814207,0.1269649845800627
15.121256,5.904671000342637,0.1264306915046154
15.12586,5.982752288203553,0.1259169907447322
15.130452,6.060911619329989,0.1253564631864917
15.135044,6.138127374560149,0.1247767005842232
15.139636,6.2055715355803285,0.1243412805410576
15.144232,6.269373817361288,0.123906082291514
15.148824,6.327368796865296,0.1235275472571487
15.15342,6.382743516291878,0.1231390230504653
15.158024,6.43615304066039,0.1227512714654383
15.162616000000002,6.4883304782557065,0.1222969783142928
15.167204,6.536333156306594,0.1218266058271448
15.1718,6.585679866213083,0.121278394072643
15.176388,6.634038858774668,0.1206595897052999
15.180984,6.672704300391789,0.1200913634516932
15.185572,6.708216601626273,0.1194851926861647
15.190172,6.741841751068206,0.1188145387888694
15.19476,6.769737641498703,0.1181343377524293
15.199352,6.789083784860675,0.117477174845834
15.203948,6.798614192564037,0.1168803743084251
15.208528,6.799228299056439,0.1163267555137823
15.213124,6.791292658480317,0.1157918110530672
15.2177,6.784945419188087,0.115158162460877
15.22228,6.774834115942494,0.1145255671730295
15.226884,6.757727565095381,0.1139046802773861
15.231468,6.737756384742549,0.1132709293698771
15.236056,6.714798390169853,0.112630272613108
15.240652,6.689753015824942,0.1119751549878171
15.245248000000002,6.657101470307783,0.1113643937560831
15.24984,6.614023265561288,0.1108320035542193
15.25442,6.568857681042576,0.1102812851482805
15.25902,6.526101888989888,0.1096687342851315
15.263608,6.474596121889012,0.1091200640603949
15.268208,6.415650509778663,0.1086478354532007
15.272796,6.363611862372576,0.1080683030545036
15.277404,6.310018715499487,0.1074827936192388
15.281992,6.253360711141014,0.1069373889133158
15.286588,6.196336152640107,0.1064076869352055
15.291184,6.145485450558589,0.1058179664587279
15.295776000000002,6.093901640192197,0.1052694609959675
15.300364,6.046570632635752,0.1046862919404426
15.30496,6.004269677622756,0.1040681996870427
15.30956,5.96009181044895,0.1035151830098258
15.314156,5.913381966094972,0.1030209337467965
15.318744,5.868515132084919,0.102551396479374
15.32334,5.823936808951786,0.1021093092288336
15.327928000000002,5.783366919200309,0.1016533989910807
15.332516,5.7439849747734,0.1012175631465571
15.337104000000002,5.7110653976428,0.100760350437974
15.3417,5.686651426132095,0.1002489420267137
15.346292,5.666534398879968,0.0997605237840257
15.350876,5.6472387628099705,0.0993214572155154
15.355472,5.635959993503287,0.0988660080450834
15.36006,5.635762948445296,0.0983482017663411
15.364664,5.635121305979352,0.097916404034735
15.369248,5.642740899705011,0.097458263519612
15.373836,5.659643348784068,0.0969623932809147
15.378432000000002,5.680309861816491,0.0964784330055045
15.38302,5.700898331583397,0.0960570780453898
15.387624,5.732157830007932,0.095561980810464
15.392216,5.7680808268334784,0.095079826799698
15.396808000000002,5.805969018717096,0.0946311556435144
15.401404,5.842879732887548,0.0942437370947089
15.405984000000002,5.887640987658537,0.0938119320332609
15.410576,5.940252783030068,0.0933429422024062
15.415156,5.999038434820987,0.0928378669573792
15.419752,6.062976323869501,0.0923201302964462
15.42434,6.130145396566171,0.0918029980190654
15.42894,6.201567272072788,0.0912808631066888
15.433535999999998,6.273644212598762,0.0907788855048085
15.438128,6.344044468943586,0.0902857543846671
15.442711999999998,6.414322540574265,0.0898066615917896
15.447304,6.484844981633233,0.0893225831400904
15.451896,6.550093000720461,0.0888773364599775
15.456487999999998,6.612764901178892,0.0884428081573217
15.461076,6.673882302170317,0.0880175662806292
15.465664,6.725883173971118,0.0876607415179696
15.470252,6.777595534895002,0.0872784486347454
15.47484,6.82799776578017,0.0868818266263488
15.479424,6.872837063816678,0.0864931896421391
15.484016,6.911624690147942,0.0861304367978539
15.488612000000002,6.945260079221612,0.0857854904577413
15.4932,6.984858857103268,0.085336522954384
15.497784,7.020815755745705,0.0848722032213824
15.502372,7.047245429606452,0.0844453471738407
15.50696,7.067745616476101,0.0840338511523646
15.511568,7.079495828297562,0.0836579589502072
15.516148,7.086704726432155,0.0832637616284225
15.520736,7.085530203661001,0.082883278365891
15.525332,7.078426193898748,0.0825139370224014
15.529924,7.0711558579737215,0.0821087147767442
15.534516000000002,7.061265261971268,0.0816678542090571
15.539096,7.0435241253682745,0.081250738460983
15.5437,7.021408001241189,0.0808457736472462
15.548288,7.000147170113121,0.0803923123011441
15.552884,6.969114744775074,0.0799754793985767
15.557464,6.937793808560108,0.0795253996574271
15.562064,6.901320635087545,0.0790830100360037
15.566656,6.864436766023919,0.0786144313158914
15.571252,6.823710789741407,0.0781711945415805
15.575832,6.781674683420184,0.0777039798395335
15.580428,6.742947804012633,0.077186714774153
15.585016,6.695515091005522,0.076734149438461
15.589608,6.643995901351237,0.0763185935703969
15.594195999999998,6.5924767116969525,0.0758972180378891
15.598784,6.546720682870991,0.0754282767840544
15.603364,6.504029511530412,0.0749224219242051
15.60796,6.462115589923334,0.0744137103749397
15.612552,6.4228999716592,0.0738886224523431
15.617144,6.385727591718653,0.0733364116975047
15.621732,6.349210276797462,0.0727906072918315
15.626320000000002,6.312204223019688,0.0722667922804828
15.630912,6.282515829537243,0.0717054143547386
15.6355,6.258590596883122,0.0710996603575398
15.640076,6.235198244534213,0.0705093438410495
15.644688,6.221821855823575,0.0698738613980314
15.649276,6.212820454637031,0.0692277382602263
15.653864,6.20987072515573,0.0685728128608144
15.658456,6.204389018494259,0.0679626871300407
15.663048000000002,6.197396953814415,0.0673850564325573
15.66764,6.195557126392164,0.0668035794519133
15.672216,6.192206940951537,0.0662599958679592
15.676808,6.194131177482651,0.0657046565963769
15.681388,6.200552586252004,0.0651344037849267
15.685988,6.212126232278954,0.064562037477923
15.690576000000002,6.218469597782789,0.064047461816317
15.695176000000002,6.229843015830075,0.0635440611915215
15.699772,6.246490855849102,0.0630373216997658
15.704364,6.264571010620989,0.0625488743396002
15.708944,6.287559033222179,0.0620789461860678
15.71354,6.312101555290375,0.0616227889928843
15.718128000000002,6.3408968801685175,0.0611731092086282
15.722724,6.368548401170722,0.0607441831515615
15.727312,6.399553290535226,0.0603292549052818
15.731896,6.430191625757293,0.0599363854496931
15.736484,6.460707776265215,0.0595572765192528
15.741079999999998,6.493022795668432,0.0591804608748178
15.745664,6.527913933700447,0.0588125505015346
15.750255999999998,6.56844604784664,0.0584248603431273
15.754852,6.616784561144743,0.0579960766540483
15.75944,6.663734901138618,0.0575985746023839
15.764031999999998,6.71518241337073,0.0571985235310557
15.768624,6.768795348640575,0.0567833173062644
15.773212,6.822530468624567,0.0563670733671743
15.777808,6.876632142750997,0.0559384960167179
15.782388,6.93367648964866,0.0554957735454894
15.786976,6.982748111231637,0.0550607171116388
15.791564,7.024257703090996,0.0546545431646999
15.796152,7.065889479664501,0.0542455620594776
15.800756000000002,7.102124649552119,0.0538446275806909
15.805336,7.133740462487352,0.0534552702934446
15.809932000000002,7.156239746231959,0.0530787256888752
15.814512,7.172975869148243,0.0527239905275516
15.819108000000002,7.177286235960232,0.0524148864404626
15.823696,7.174401127191036,0.0521083041755404
15.828296,7.163054554250572,0.0518254505857788
15.83288,7.143246517138843,0.0515656600154833
15.837472,7.114444135550634,0.0513106011921043
15.842072,7.079223528114744,0.0510639633408289
15.846668,7.035174902365151,0.0508579405797741
15.851268,6.986873473805608,0.0506400506191075
15.855864,6.924958343817203,0.0504319308115278
15.860460000000002,6.853437945781591,0.050256112410673
15.865056,6.775132767755861,0.0501051217123053
15.869644,6.685179083359338,0.0500008244262651
15.874236000000002,6.5866417500774,0.0499238988682359
15.878824,6.48287413627235,0.049886937525806
15.883416,6.382171379952679,0.0498228356771894
15.888008,6.270308856118798,0.049779432728321
15.892596,6.153049725599031,0.0497323761383321
15.897184,6.0308046839844405,0.0497155998936459
15.901772,5.911380130426939,0.0496864655273325
15.906368,5.793099380745377,0.0496391535353684
