Time,Force,Position
15.126848,4.818204946841079,0.1517837469684075
15.131436,4.893241856480092,0.1511837427325411
15.136032,4.9521567496952255,0.1506837730464043
15.140612,5.002345330047323,0.1500192239936091
15.145216,5.046095205288258,0.1491140296102808
15.149808,5.080097148504364,0.1481126328870474
15.154404,5.105372778857433,0.1469916609311185
15.158984,5.119634488595588,0.1458427285237007
15.16358,5.122604006473644,0.1448064443460378
15.168176,5.114291572123345,0.1440300961511367
15.172768,5.1051679862226536,0.1433763749257664
15.177356,5.097232345646527,0.1427341574079912
15.181947999999998,5.081290077938828,0.1423535586852032
15.186524,5.06976693920385,0.1419525832772344
15.191108,5.055589638574558,0.141658413985753
15.195696000000002,5.042600283269832,0.1413825648135752
15.200276,5.028389080823651,0.1412107760070504
15.204864,5.019207930920918,0.1409691082196093
15.209447999999998,5.018043647781501,0.1406439557641435
15.214023999999998,5.019621809433656,0.1403224526017392
15.264524000000002,5.071718020841767,0.1402703505112769
15.26912,5.092425492401147,0.1402662543187876
15.273708,5.1251921659223845,0.1400316909362164
15.278304,5.155671231691743,0.1398671061266929
15.282892,5.1902809155569045,0.1396558665722689
15.287484,5.222847361098477,0.139493000467647
15.292072,5.259011544430643,0.1392679098282653
15.296668,5.293665369744431,0.1391128916491517
15.301256,5.32525433757284,0.1390369404875414
15.305848,5.363628085391367,0.138822861382783
15.31044,5.414549774028338,0.1383554372089973
15.315032,5.4712346234936335,0.1377832984966925
15.319608,5.528530396529656,0.1371816071412769
15.324203999999998,5.585782028117052,0.1365367546122434
15.328796,5.639680291342147,0.1359345516168602
15.333372,5.690347370919086,0.1353615291850982
15.337955999999998,5.742524808514403,0.1347382589158432
15.342536,5.79273705105165,0.1341009954413565
15.347112,5.843271706282706,0.1333855235242562
15.351708,5.887099624789161,0.1327467575372755
15.356296,5.927696359647462,0.1321377387932211
15.360884,5.962363607514664,0.1316042681764183
15.365480000000002,5.988935945353037,0.13119634634434
15.370072,6.018162445085727,0.1307007633976735
15.374668,6.043092000559837,0.1302054534252819
15.379256000000002,6.070675717928266,0.1296229747012218
15.383852,6.0952726210768295,0.1290506119101469
15.38844,6.117249264147968,0.1284583503155805
15.39304,6.134562408818092,0.1278841463075404
15.397624,6.144025012887678,0.1274115351684034
15.402212,6.141917153851986,0.1270956111939081
15.406792,6.132080938929898,0.1268636331293683
15.411383999999998,6.11529361785492,0.1267094560928273
15.41598,6.098095601188875,0.1265308803169246
15.420559999999998,6.081752877521851,0.1262916118741106
15.42514,6.064222208530259,0.1260318422265645
15.429732,6.037697195062186,0.1258889921550532
15.43432,6.010517116574758,0.1257394574357533
15.438908,5.98219323421139,0.1256170979796847
15.4435,5.956689839905113,0.1254498956717691
15.448084,5.929876315560121,0.1252704873374895
15.452672,5.901386107033981,0.1251053802048841
15.457260000000002,5.872363018202628,0.124925484093523
15.461852,5.841418875761835,0.1247753760774545
15.466436000000002,5.813050851949839,0.1245951785628035
15.471024,5.785704447299637,0.1243904386661446
15.475616,5.76130071542067,0.1241312139324564
15.480208,5.739595286884645,0.1238358300849733
15.484792,5.723653019176946,0.1234444477555593
15.489387999999998,5.71208573899334,0.1230044248141209
15.493984,5.703094577438532,0.1225365167589786
15.498576,5.693736861741288,0.1220914391623427
15.503163999999998,5.68671089524455,0.1216356324081682
15.50776,5.6744546482247,0.1212886652251746
15.512348,5.660032978167116,0.120989478875351
15.516948,5.651907349243068,0.1206103601266544
15.521536,5.653264803652082,0.1200813784813452
15.526132,5.656176757528101,0.1195467369339171
15.530715999999998,5.661909199461208,0.1189716167907241
15.535308,5.668541075841963,0.1183877764192028
15.5399,5.679303570318522,0.117776175397006
15.544496,5.695462671480966,0.1171012355083629
15.549091999999998,5.715752390739214,0.1163990157176481
15.553692000000002,5.737840978892757,0.115678038438615
15.558284,5.762505685675098,0.114945214455204
15.562884,5.785904403867354,0.1142567082597321
15.567472,5.806893329593587,0.1136364083238662
15.572056,5.828781689767466,0.1130135380421787
15.576643999999998,5.852757429713559,0.1124129685369758
15.581236,5.872768877726627,0.111877234260183
15.585819999999998,5.893435390759049,0.1113490241444627
15.590408,5.919742879905651,0.1107485642224269
15.594995999999998,5.948993041823488,0.110106360253041
15.599584,5.980941507084268,0.1094280269135026
15.604176,6.016243340707347,0.1087304271113363
15.608768,6.0434944057502245,0.1081695233439295
15.613347999999998,6.067314059165285,0.1076930609824703
15.617956,6.092932581475641,0.1072020717562586
15.622536,6.1147089965671135,0.106765869859227
15.627123999999998,6.135219423068501,0.1063654470979673
15.63172,6.154830415122241,0.1059780635534948
15.636312,6.171620919118893,0.1056292861884635
15.640904,6.186734738934393,0.1052921539405612
15.645496,6.199805320426306,0.1049893210723321
15.650092,6.2053138721946,0.1047795296933958
15.65468,6.209145739781745,0.1045792393877925
15.659272,6.211423107901883,0.1043793720761455
15.663864,6.210635618536642,0.104229297054803
15.66846,6.205595326361454,0.1041053647475379
15.673044,6.201698838062205,0.1039567746417129
15.677636,6.199845588086543,0.1037761724225347
15.682236,6.196193469215584,0.1036126565138254
15.686827999999998,6.186000939782799,0.1035206099225488
15.691427999999998,6.179894886997189,0.1033649536207877
15.69602,6.17235651945872,0.1032016326322281
15.700596,6.169926247729219,0.1029591730234123
15.705192,6.1697835837515935,0.1026706306977001
15.70978,6.166820431716881,0.1024136576558054
15.714376,6.164878898843963,0.1021401464780769
15.718956,6.164325539275274,0.1018283088265356
15.723532,6.166181972172609,0.1014652175711819
15.728128000000002,6.16983727396524,0.1010887716851969
15.732716,6.170916457129073,0.1007256955701643
15.737308,6.172240009721199,0.1003464825055652
15.741892,6.178549473408145,0.099897947599666
15.746479999999998,6.184858937095092,0.0994489644066415
15.751088,6.192190019943833,0.0989834860009795
15.755676,6.197722233897279,0.0985302103784689
15.760280000000002,6.2042760670125165,0.0980621477706929
15.764868,6.214794192060782,0.0975445412050646
15.769455999999998,6.218649721833076,0.0970992938796663
15.77406,6.219684763548282,0.0966834818004079
15.778648,6.232001757491846,0.0961531359476716
15.783256000000002,6.240721013644817,0.0956546091204169
15.787852,6.246375412312406,0.0951986887149078
15.792452,6.250230942084701,0.0947575141418032
15.79704,6.248323311028672,0.0943799001376606
15.80164,6.24678223411508,0.0939783751877323
15.806232,6.247406580239218,0.0935407287929582
15.810828,6.249052545525153,0.0930916412919065
15.815416,6.246489849449766,0.0927084072338188
15.820011999999998,6.242494838621521,0.0923165733377701
15.824604,6.244018619193309,0.0918800850217414
15.829196,6.24656401892689,0.091430018840187
15.833787999999998,6.248209984212824,0.0909876115988258
15.83838,6.251654818394054,0.0905338663020579
15.842976,6.258042325346517,0.0900493683534515
15.847568,6.269415743393805,0.0895063298346706
15.852156,6.278623738403359,0.0889966028591456
15.856748,6.282968007032236,0.0885398029800013
15.861339999999998,6.295118674813025,0.0879998774241034
15.865924,6.309312580917399,0.0874335463920058
15.870516,6.31132510034577,0.0869715987051027
15.875112,6.314114869507643,0.0865116375844733
15.879704,6.317681888403018,0.0860502455417552
15.884284,6.323169960907834,0.0855714331317149
15.888884,6.334421194240975,0.0850369864325532
15.893472,6.34722692704112,0.0845079368690154
15.898056,6.363386028203565,0.0839797276656245
15.902652,6.372638164661747,0.0835233241036639
15.907232,6.3807464972439885,0.0830850311576848
15.911836,6.38554560291256,0.0826979495312185
15.916424,6.3871576663816025,0.0823577103113173
15.921012,6.386482122098769,0.0820562667596976
15.925616000000002,6.384418404511705,0.0817889439358445
15.930212,6.383009751943996,0.0815324280118568
15.934808,6.3802129260720575,0.0813109276436383
15.939384,6.3751284924482405,0.0811283360002938
15.943984,6.373763981329161,0.0809196250007241
15.948564,6.375997208000673,0.0806923055297935
15.953164,6.376964446082098,0.0804929563678075
15.957752,6.377320760592797,0.0803292049815592
15.962352,6.385649800418181,0.0801311058500775
15.966944000000002,6.394389535834629,0.0799575206941145
15.97154,6.408892432079402,0.0797369860649639
15.976132,6.424583273648742,0.0795450594796088
15.980724,6.43864157248556,0.0794009156885758
15.985328,6.453599305770026,0.0792541060025245
15.98992,6.462793878226168,0.0791546689378755
15.99452,6.482903848768229,0.0789993337910023
15.999112,6.5086547954244685,0.0788068486153357
16.0037,6.5380034798713,0.0785970169535868
16.008292,6.569517587355865,0.0783603996581578
16.01288,6.604629432631021,0.0781074318405228
16.017468,6.6426839506774105,0.0778299354767861
16.022064,6.67906178454265,0.0775561715930319
16.026652,6.7146623686743885,0.0772814183416207
16.031236,6.75128457196792,0.0769977511814836
16.035824,6.783942483328424,0.076750541371405
16.040416,6.8158231449554245,0.0765038363875673
16.044999999999998,6.847948176010718,0.0762479329237567
16.049588,6.882360814817888,0.0759597139876941
16.05418,6.913542269976905,0.07566848822438
16.058768,6.944557398973148,0.0753431219011631
16.063352,6.973118594054737,0.075020858082217
16.067952,6.997915725182963,0.0746784624341757
16.07254,7.0206254765389735,0.0743134157724179
16.077144,7.040759109266185,0.0739539637905665
16.08174,7.059338242526391,0.0735864407823803
16.086344,7.068390151004912,0.073238719493789
16.090932,7.073311441387628,0.072890180362061
16.095528,7.081786328112308,0.072490637996687
16.10012,7.086663477046395,0.0721042022145716
16.104712,7.092395918979506,0.0716762745708134
16.1093,7.093875558102663,0.0712504638205354
16.1139,7.091757459435232,0.0708344237566092
16.118492,7.091682599091388,0.0704014271491257
16.123084,7.0889094354046,0.0699766101588847
16.127676,7.090589302507422,0.0694967910218848
16.132268,7.09161410459089,0.0690085017737466
16.13686,7.0851990616648814,0.0685522185210262
16.141452,7.07440903121478,0.0681022625615064
16.14604,7.065662239088266,0.0676345298152178
16.150631999999998,7.0529511550287225,0.0671934483501348
16.15522,7.0372973981979445,0.0667714356422231
16.1598,7.023442510262463,0.0663430559102153
16.164384,7.0146957181359495,0.0658720392682949
16.16898,7.009013783494815,0.0653763830495871
16.173572,7.005497271891415,0.0648554656236227
16.178152,7.003779629183309,0.0643268089916767
16.182744,6.998874944275678,0.0638267578589207
16.187328,6.985264425768489,0.0633761502401605
16.19192,6.972553341708946,0.0629216590137292
16.196528,6.959475703506966,0.0624877272648584
16.201116,6.951916856705021,0.0620363977972577
16.205704,6.950121170731397,0.0615547798356682
16.210292,6.9435839430912445,0.0610939803207724
16.21488,6.93819051932703,0.0606174311000687
16.219476,6.930753857239229,0.060157996276299
16.224052,6.920130152951902,0.0597263842602008
16.228644,6.919644597016992,0.0592651920659659
16.233232,6.9227567788726745,0.0587976039154276
16.237836,6.923825722404769,0.0583460478711554
16.242424,6.930413457336895,0.0578794155239646
16.247024,6.939821680326114,0.0574030242492707
16.251616,6.947719545296954,0.0569590423817654
16.256212,6.950264945030534,0.0565660340972508
16.2608,6.94872386811694,0.0562027875678185
16.265392,6.949636725118,0.055849475037694
16.269996,6.953003516033713,0.0555053151717942
16.274588,6.963932336673044,0.0551354948309641
16.279176,6.978458895102967,0.0547594934532891
16.283772,6.994007072694684,0.0543772921628215
16.28836,7.006734762229311,0.0540057070461584
16.292948,7.0152537904026175,0.0536696291546672
16.297524,7.018786907481105,0.0533619847110793
16.30212,7.026162131778474,0.053039051008073
16.306704,7.03611347470464,0.0527214703712462
16.311288,7.044921013754867,0.0524170403306455
16.315884,7.057448475309831,0.0521037699899063
16.320472,7.063313341588823,0.0518144545119212
16.325064,7.068156588706022,0.0515327055514706
16.32966,7.071078782213778,0.0512568780943165
16.334236,7.06631676128377,0.0510074511858124
16.338832,7.058489882868382,0.0507770390824699
16.343428,7.047187451376548,0.0505402817049043
16.348016,7.033963966275272,0.0503085512951959
16.352619999999998,7.018575058136264,0.0500942787363493
