Time,Force,Position
14.989296,4.243757563027461,0.1555115291529553
14.993892,4.414379584412159,0.1549371799852913
14.998483999999998,4.564626786563028,0.1546317381080955
15.003072,4.699685308554551,0.1542972899927193
15.007659999999998,4.818289161796645,0.15399229303186
15.012248,4.927878191298782,0.1534796247278473
15.016832,5.022689236232639,0.152950501441884
15.021416,5.105542784655304,0.1522895391750752
15.026,5.179014955195576,0.1515082129107735
15.030576,5.235665902843981,0.1507840773063533
15.035156,5.278316115657607,0.150048333643182
15.03976,5.30210186725578,0.1493959453055623
15.044348,5.312419764324385,0.1487293795168372
15.048932,5.311235001921493,0.1480531312046367
15.053524,5.30247797016324,0.14738237097759
15.058111999999998,5.285259474233719,0.1468962504132278
15.062715999999998,5.266119924694757,0.146451926905206
15.067308,5.2404399645939685,0.1461438163833301
15.0719,5.218768437874835,0.145788849751422
15.076484,5.196197476708055,0.1454479798519232
15.081084,5.172316385502561,0.1450981779193736
15.085672,5.150234163192362,0.144712881605502
15.090276,5.132526928406257,0.1442517464212074
15.094863999999998,5.113231292336258,0.1439263456593405
15.099464,5.092303113533737,0.1436812006601807
15.104048,5.067332599532669,0.1436048556730381
15.108639999999998,5.046126149484968,0.1435016611000287
15.11324,5.031626436161866,0.143300238384983
15.117832,5.015782690983161,0.1432119283391165
15.122436,5.005257509224826,0.1430889561139454
15.127032,4.997230402829774,0.1429920607817139
15.131624,5.001551009273498,0.1426885426988169
15.136216,5.006693006899351,0.1424350602554567
15.140804,5.014821818745068,0.1421698680086248
15.145388,5.023283282916333,0.1419962362531679
15.149976,5.041927036888644,0.1416818173638473
15.154564,5.065644984853034,0.1413611602776879
15.159156,5.090961573733057,0.1410823677883727
15.163736,5.118121172957005,0.1408312702976207
15.168319999999998,5.150721520315468,0.1405485230787625
15.172908,5.19146091915139,0.1401922074775071
15.177492,5.235842197226532,0.1398337202558255
15.182104,5.289217819778154,0.1393419921341588
15.186692,5.3495004070340375,0.1387018072819868
15.191288,5.415712481281022,0.137985593050691
15.195884,5.488464966089832,0.1371489580356102
15.20048,5.557008789537321,0.1364200250713476
15.205075999999998,5.6195450827281945,0.1358353495929792
15.209664,5.679505257290272,0.1352816604211063
15.21426,5.737011497937699,0.1347622155563931
15.218836,5.791042185508678,0.1342963582359426
15.223436,5.83967626639377,0.1339318497694714
15.228023999999998,5.889698520583091,0.1335203189758042
15.23262,5.940209513628997,0.1330832449709711
15.237208,5.988877496330979,0.1326204193893629
15.241808,6.033781415079595,0.132182477212583
15.246392,6.0733667704078425,0.1317682170921576
15.250984,6.114051788163399,0.1312763016197879
15.255575999999998,6.151749991699094,0.1307944788138789
15.260168,6.184784696833775,0.1303455164693978
15.264755999999998,6.206493308291471,0.1300363968128324
15.269351999999998,6.222638986900505,0.1297631237575685
15.27394,6.231056309623146,0.1295809547591645
15.278531999999998,6.2352208295358365,0.1294441424996602
15.28312,6.236887274085246,0.1292802620911369
15.287712,6.233112970500145,0.1291400538044357
15.2923,6.2337475562560245,0.1288497340623054
15.296879999999998,6.238424477210449,0.1284351699979757
15.301464,6.245877744773335,0.1279326133257697
15.306052,6.2521430670116525,0.1274124260070766
15.310648,6.25848643251549,0.1268379322342919
15.315231999999998,6.261598614371172,0.1262826169736809
15.31982,6.260702362845196,0.1257501060208631
15.324416,6.251711201290391,0.1253161278768086
15.329003999999998,6.2423093441445205,0.1248586057711888
15.333603999999998,6.233396225855232,0.1243688705496291
15.3382,6.223828042546587,0.1238706794676808
15.342796,6.210784306161496,0.1234066015193752
15.347388,6.199128743080636,0.1228975849366728
15.35198,6.182076573313889,0.1224507343027874
15.356572,6.169599619050899,0.1218895172262714
15.361152,6.158144283949699,0.1213054237114819
15.365752,6.139371288553172,0.1208148494100923
15.37034,6.118921608975494,0.1203363399409518
15.37494,6.096550875788376,0.1198859010936437
15.37952,6.073813588458819,0.1194580489040597
15.384116,6.04584602060615,0.1191335068837051
15.388707999999998,6.013914160820451,0.1188743332216509
15.393304,5.979939062711166,0.1186495829947986
15.397892,5.944820160725943,0.1184498662327536
15.402487999999998,5.907047096846403,0.1183295259060162
15.407076,5.868907478824427,0.1182354755876572
15.411672,5.832977425288813,0.1181417371727367
15.416259999999998,5.804487216762673,0.1179422939438161
15.420852,5.780127626332335,0.1177120212792419
15.425439999999998,5.751192820398237,0.1175921100385202
15.430035999999998,5.726266447845799,0.1174511933459745
15.434628,5.705226323960871,0.1172987260227633
15.439215999999998,5.684474710952863,0.1171765667218349
15.443808,5.670674204097744,0.1169867608288648
15.448396,5.657572903710612,0.1168522494858563
15.452991999999998,5.650767644457018,0.1166448104921915
15.45758,5.6574539019181405,0.1162832703018854
15.462167999999998,5.668270777475065,0.1158979655344393
15.466776,5.683096086413647,0.1154984655066409
15.471363999999998,5.703073632609825,0.1150590518340621
15.47596,5.727059612187658,0.1146033364166219
15.480548,5.756975078756589,0.1141094732722844
15.485136,5.786279621754792,0.1136567387890856
15.489739999999998,5.819059717829441,0.113175833275552
15.494328,5.858380224465916,0.1126123104961744
15.498932,5.907061629721307,0.1119368634536596
15.503524,5.957009023566783,0.1112327648550618
15.508128,6.005690428822173,0.1105724590432453
15.512708,6.048853042677532,0.1099787569556793
15.517308,6.096879382913566,0.1093127731884246
15.5219,6.14437284284439,0.1086405175684484
15.526504,6.1885129344129135,0.1079901365950849
15.531092,6.232897395409729,0.107329611549194
15.535692,6.274705737777745,0.1066916976918651
15.54028,6.31712500371649,0.1060185781962255
15.544871999999998,6.354269847683495,0.1054005919914078
15.549452,6.382664716602311,0.1048604430421687
15.554047999999998,6.406029532977677,0.1043490818155174
15.558636,6.423997742667157,0.1038882951520137
15.563232,6.435014846203745,0.1034788886428487
15.56782,6.444844004415765,0.1030488581115483
15.572408,6.447966425903186,0.1026544908902743
15.576995999999998,6.4487570981901,0.1022580229601582
15.581592,6.446849467134071,0.1018865125958832
15.586184,6.439911783534592,0.1015403548923122
15.590775999999998,6.423979755458633,0.1012724218786439
15.595368,6.4071482929350285,0.1010111046919232
15.599956,6.388107265925061,0.1007406880730677
15.604551999999998,6.375195953885855,0.1003788527098464
15.609132,6.359053458198495,0.1000229268725298
15.61372,6.340989908901693,0.0996881476081277
15.618316,6.324969597928479,0.099322402555162
15.622899999999998,6.306250983612321,0.0989770184043483
15.627492,6.288021108152746,0.0985995621352161
15.632084,6.269013982959668,0.0982205714848196
15.636672,6.247963619443003,0.0978683787103349
15.641264,6.229611559269281,0.097493138513646
15.645844,6.213058367990855,0.0971015646419803
15.65044,6.1995700341978095,0.0966646741611059
15.655027999999998,6.189801622909502,0.0961900682697406
15.659624,6.175291669954664,0.0957623981733747
15.664212,6.162091847038539,0.0953493323733276
15.668808,6.155554619398386,0.0948640441001389
15.673392,6.148240142024731,0.0943760534399705
15.677984,6.141458544956286,0.0939026055927379
15.682568,6.134310393745404,0.0934488936823336
15.68716,6.125774069230292,0.0930326954315245
15.69174,6.119569493915686,0.0926188173534858
15.696324,6.108134638077967,0.0922854545652641
15.700907999999998,6.098909346726609,0.0919624450291007
15.705503999999998,6.091238554842256,0.0916415857138998
15.710088,6.085244447139053,0.091316092283643
15.714672,6.079905404455205,0.0909983092850393
15.719255999999998,6.077797545419513,0.0906791224415956
15.723836,6.074057143651298,0.0904119432713206
15.728428,6.072892860511882,0.090132549989863
15.733016,6.074060326572971,0.0898589701449295
15.737604,6.0787033457105055,0.089570062994059
15.742204,6.085555929334403,0.0892953416654472
15.746788,6.09486244687295,0.0890203055438944
15.751376,6.1152065472115655,0.0886632905567073
15.75598,6.1354284628360345,0.0883126770111662
15.760568,6.155406009032211,0.0879834001296252
15.765159999999998,6.178614738876542,0.0876549529962281
15.769748,6.206442825673259,0.0872955039831124
15.774348,6.241710757479449,0.0868812023229727
15.778935999999998,6.281842415666317,0.0864223575852051
15.783532,6.326715615519714,0.0859330677878949
15.78812,6.376208172325498,0.0854135137442906
15.79272,6.427743967454867,0.0848764749030695
15.797311999999998,6.479401947298383,0.0843365766392227
15.801904,6.531059927141898,0.0838051188673094
15.806496,6.588603252527884,0.0832250045781209
15.811087999999998,6.646024393199722,0.0826624894453716
15.815672,6.70879799910882,0.0820354451309006
15.820268,6.773859212769796,0.0813788141178506
15.824856,6.834545438906679,0.0807415941610876
15.829439999999998,6.8903679386628855,0.0801505691362217
15.834015999999998,6.94320362419923,0.079548689188431
15.838608,6.990398333621394,0.0789876066877124
15.8432,7.031174817195879,0.0784734096822656
15.84778,7.075016158255744,0.0779292723790298
15.852367999999998,7.116936445706168,0.077406229092027
15.856944,7.157424418403732,0.0768746901682781
15.861532,7.192515784415411,0.0763711388782862
15.866136,7.224009412636498,0.0758900963446053
15.870712,7.253049106942932,0.075413961172382
15.8753,7.27272790263045,0.0749957096631156
15.879884,7.29073001413682,0.0745817836798283
15.884472,7.303335518957302,0.0741896788255604
15.889076,7.315163774044281,0.0737960770452601
15.893652,7.3242937257883165,0.0734139107444187
15.898256,7.32484002864694,0.073087091316671
15.902836,7.320111909533821,0.0727733837580562
15.907432,7.311175129059383,0.0725044545671054
15.912015999999998,7.301993979156652,0.0722487200218336
15.916615999999998,7.294856067577509,0.071974052063546
15.9212,7.289883579036099,0.0716744021223779
15.925791999999998,7.2855661555140445,0.0713838544166266
15.930384,7.285457393353312,0.0710505223252197
15.934976,7.28354976229728,0.070722355923304
15.939556,7.279721077631811,0.0704068460683033
15.944143999999998,7.275359512661128,0.0700762742663437
15.948732,7.271242317118738,0.0697336924496809
15.953316,7.267902371309851,0.0693934715559412
15.957895999999998,7.26186412215802,0.0690607691328626
15.962484,7.252761015520807,0.068753561690888
15.967076,7.248766004692563,0.0684021921467401
15.971652,7.243216494397313,0.0680437412493087
15.976236,7.238322049121422,0.067692998588411
15.980828,7.232772538826174,0.0673321541766368
15.985416,7.227100843816777,0.0669766247308193
15.990016,7.22629287518806,0.0665898974953304
15.994604,7.224341102683402,0.0662146934440733
15.999184,7.221856449873532,0.0658230644491482
16.00378,7.214874624825424,0.0654424909881079
16.00838,7.208792234224964,0.0650602325272554
16.012971999999998,7.205774701109884,0.0646549064608167
16.01756,7.204800406318391,0.0642347449761486
16.022156,7.203826111526898,0.0638162441110119
16.026744,7.204528500916557,0.0633992336672195
16.03134,7.20482019471515,0.0629600771366731
16.035923999999998,7.201025411866568,0.0625506388951308
16.04052,7.198130063465635,0.0621403376609572
16.045104,7.198421757264228,0.0617019227735858
16.049688,7.201656123834054,0.0612467497798124
16.054284,7.206034294279821,0.0607769063289158
16.058872,7.206325988078413,0.0603369001217331
16.063448,7.209193800505803,0.0598997153215625
16.068032,7.217047524028016,0.059432790089262
16.07262,7.225434127855439,0.0589827241641653
16.077212,7.237007773882388,0.0585067711145345
16.081799999999998,7.246782551014041,0.0580347084571496
16.086392,7.263342108135812,0.0575308904042105
16.090975999999998,7.277980611648142,0.0570342811407933
16.095564,7.296339037665209,0.0565273603422089
16.100144,7.311876975625188,0.0560305950906821
16.10474,7.320752318309193,0.0555598577598724
16.109324,7.324886119326668,0.0551062309729187
16.113936,7.325955062858763,0.0546731123549269
16.11852,7.323670638028558,0.0542299143945818
16.123112,7.31922079016062,0.0538043199690939
16.1277,7.31873523422571,0.0533559827265153
16.132276,7.311220528872392,0.0529459943346363
16.136872,7.295899424367161,0.0525692960919478
16.141448,7.278290712110053,0.0522173226164028
16.146048,7.256595523205771,0.0518888183909809
16.150627999999998,7.234778149587343,0.0515635579254858
16.155228,7.203355507921708,0.0512715918794151
16.159807999999998,7.163471402084806,0.0509998791682711
16.1644,7.12088899290496,0.0507274045844899
16.168984,7.06833476153547,0.0505055022470688
16.173576,7.010916803785305,0.0503003667257929
16.178164,6.944915197149725,0.0501199145601287
16.18276,6.880712459409441,0.049934525200963
16.187348,6.809602756964894,0.0497800729815312
16.191931999999998,6.736327631482614,0.0496423183704773
16.19652,6.66064271353431,0.0495352381459914
16.201112,6.58651229505301,0.049437248163577
16.205704,6.509439203800476,0.0493509541233405
16.210292,6.431755188977212,0.0492947644074073
16.214883999999998,6.357546727230396,0.0492403420926815
16.219464,6.280273407998198,0.049202387286367
