Time,Force,Position
15.270656,4.140584147822689,0.171394816330443
15.275256000000002,4.43198568511895,0.1688951406070687
15.279856,4.70922016141766,0.1670387228025548
15.284436000000005,4.97159860988257,0.1655510390572549
15.289016,5.221120127388643,0.1640910870800552
15.2936,5.460072321687755,0.1626129685367904
15.298191999999997,5.685634704722817,0.1611513029072998
15.302780000000002,5.89645300500649,0.1596327183795437
15.307371999999996,6.0866860184449285,0.1583465353577197
15.311960000000004,6.262219090580604,0.1570938111690056
15.31656,6.41855504917528,0.1559126802618475
15.321152,6.556226774534164,0.1548130765511592
15.32574,6.681974905198746,0.1535664854542867
15.330336,6.783251500350584,0.1524958564734618
15.334931999999998,6.8631214174750585,0.1514668508627803
15.339524,6.917620364639142,0.1505647568856458
15.344103999999998,6.955131762748585,0.1497048929111408
15.348704,6.974477906110557,0.1489752222174915
15.353284,6.981143684308202,0.1483575260264317
15.357879999999998,6.984822648285983,0.1477553788345469
15.362475999999996,6.9854706565952736,0.1471260613158535
15.367068,6.978223982855398,0.1465547995875455
15.371660000000002,6.961938823190415,0.1460702371901341
15.376256,6.946953553932404,0.1454555857151286
15.380844,6.93241288208235,0.1447670340192579
15.385444000000003,6.908467170164751,0.144184413938479
15.390035999999998,6.882023382883873,0.1435785546550575
15.394628,6.853370031116633,0.1429742324088184
15.399216,6.824794722614911,0.1423148563942924
15.403808,6.790534296550382,0.1416978294537916
15.408396,6.757006978770728,0.1410275967255605
15.412992,6.723435519542445,0.1403087042522189
15.417584000000002,6.685366888075922,0.1396441351636688
15.422172,6.643944888247102,0.1390052874071863
15.426768,6.601745638684776,0.1383638869147513
15.431355999999996,6.566453353826716,0.1375873135724586
15.435948,6.51922405172094,0.1369814141717797
15.440535999999998,6.472116934329312,0.1363604328732376
15.445123999999996,6.427830304994769,0.1356868914238259
15.449716,6.380723187603139,0.1350517731058788
15.454296000000005,6.333249516069073,0.1344332718635581
15.458896,6.289784277916663,0.1337782921404099
15.463492,6.247262615660529,0.133150637245544
15.468079999999995,6.201475867939351,0.1326425761277685
15.472675999999996,6.153157143038004,0.1322021613776341
15.477272000000005,6.11281114345134,0.1316527526791553
15.481863999999998,6.074185969494454,0.131128139237222
15.486451999999996,6.037159436453201,0.1306377155055038
15.491052,6.000587740451641,0.1302120091684485
15.495639999999998,5.96626975038507,0.1298273832604133
15.500240000000002,5.936903769596431,0.1294473318778443
15.504831999999997,5.908892060295135,0.1291212587942903
15.509432,5.885055110538268,0.1288054962734752
15.514028,5.867069604506981,0.128485720038294
15.518624,5.861309626600328,0.1280242838722811
15.523216,5.854860681857429,0.1276616354862993
15.527812,5.856184234449552,0.1272626324670069
15.5324,5.8627041657479,0.126859520880642
15.536995999999998,5.873521041304823,0.1264658638298305
15.541588,5.894275837234501,0.1259974075739298
15.546180000000003,5.921370815746341,0.1255046236718023
15.550768,5.953662172964405,0.1250139179567032
15.555356,5.994214766374075,0.1244618834975009
15.55994,6.036732554841813,0.123923411450566
15.564524000000002,6.0858348953200085,0.1233476133503263
15.569120000000002,6.133837573370892,0.1228547934857587
15.573696000000002,6.185848684803434,0.1223501693858807
15.578292,6.243134218207715,0.1218024122531962
15.58288,6.306060727726177,0.1211847425082044
15.587472000000002,6.373240040054587,0.1205350487038734
15.592068,6.434900560982961,0.1199582661551032
15.596656,6.501058254149578,0.1193395155343641
15.601268,6.5672159473161935,0.1187282955529572
15.605856,6.635661248234689,0.1180732855605361
15.610443999999998,6.696177965287125,0.1175607491774944
15.615028,6.758982290091441,0.1170048456689092
15.619615999999995,6.82341915762828,0.1163987644119497
15.624211999999996,6.884380472088671,0.11582873760588
15.628792,6.939945179863177,0.1153163744964247
15.633391999999995,6.990357650380085,0.114856484776984
15.637980000000002,7.031775776420518,0.1144890818625233
15.64258,7.070451457669376,0.1141124767171398
15.647167999999995,7.108427932450251,0.1136974652564128
15.651768,7.149425123267879,0.113198842842085
15.656352000000002,7.184492827094406,0.1127446188551384
15.660948,7.217717520577011,0.1122672712647384
15.665539999999996,7.244235477335015,0.1118305111749398
15.670128000000002,7.262780708778334,0.1114634704300516
15.674724,7.273353214906969,0.1111636721753001
15.679312,7.2775855384534385,0.1108795853985731
15.683899999999998,7.282428785570639,0.110559197591746
15.688492,7.281709099839177,0.110254544147916
15.693084000000002,7.278902034335499,0.1099394109893396
15.697672,7.272086535450165,0.1096359800169138
15.70226,7.262162037630823,0.1093347520818372
15.706855999999998,7.247207487268031,0.10905880072428
15.711448,7.228000134095289,0.1088063683198422
15.716036,7.206827585864479,0.1085341827836398
15.720636000000002,7.186876884775127,0.1081908363899682
15.725216,7.160874511980529,0.107885381910517
15.729808000000002,7.139447354689689,0.1074911465201237
15.734391999999996,7.11568844819834,0.1070968414540325
15.738980000000002,7.084489696697518,0.1067744620285381
15.743588,7.044829481025427,0.1065379524997192
15.748183999999998,7.003492581172186,0.1063074053248529
15.752771999999997,6.962400050747237,0.106059341766773
15.757360000000002,6.92155188975058,0.1057948724240634
15.761951999999996,6.881314652324651,0.1054920957828424
15.766544,6.842998468508163,0.1051648277156261
15.771123999999997,6.809057272215768,0.104804198911292
15.775727999999996,6.779857617589904,0.1043898004659837
15.780316000000004,6.749514159088101,0.1039935589649686
15.784916,6.719825765605655,0.1036021425861995
15.789503999999996,6.691447502161921,0.1032224825009052
15.794104,6.66691134593707,0.1027969927066718
15.798696000000003,6.643685319750932,0.1023834519440736
15.803292000000004,6.625733715536537,0.1019327142160806
15.807888000000002,6.613833783027384,0.1014464517640573
15.812479999999995,6.6074967833668925,0.1009557628443732
15.817072,6.6091325090210855,0.1004090676939545
15.821668,6.609912941676261,0.0999127350273298
15.826255999999995,6.612658569389504,0.0994387072061931
15.830851999999997,6.619412630484406,0.0989565319770079
15.835440000000002,6.634261601608138,0.09841256881834
15.840024000000003,6.652341756380024,0.0978625442100563
15.844615999999998,6.6734087253717735,0.0973252142620724
15.849211999999998,6.698606312459325,0.0967774819967492
15.853804,6.726546344338448,0.0962536848730442
15.858396000000004,6.759516428761022,0.0957160210313924
15.862987999999998,6.793141578202952,0.0951916673554286
15.867576000000003,6.82513418491236,0.0947227395891133
15.872172000000004,6.8639557130605136,0.0942292018286379
15.87676,6.905475544551611,0.0937232842417426
15.881352000000003,6.949815864099798,0.0931981473334723
15.885948000000004,6.997265182581994,0.0926840437064198
15.890536,7.04945604273072,0.0921328230786908
15.895124,7.101280348737009,0.0916113104819906
15.89972,7.148118743648475,0.0911496702333023
15.904315999999998,7.190870661912768,0.0907427147797296
15.908919999999998,7.233256026034625,0.0903615810128776
15.913507999999997,7.277440259051774,0.089972338748307
15.918104000000003,7.322523926516575,0.0895811765860153
15.922684,7.372471320362051,0.0891504176148112
15.927283999999997,7.421397095045732,0.0887379088765748
15.931872000000002,7.473143357786505,0.0883097885599654
15.936471999999998,7.522191317184332,0.0878999654436239
15.941064,7.5704620268486575,0.0874935190256348
15.945663999999995,7.621675409284219,0.0870652734732382
15.950247999999998,7.671456476966921,0.0866352342323791
15.954843999999998,7.7185392413066785,0.0862216826138965
15.959436,7.762390821998284,0.0858093904117504
15.964032,7.804565718508735,0.085407092193602
15.968632000000005,7.843020692514453,0.0850317493633509
15.973228000000002,7.876978494281929,0.0846808193325137
15.977828,7.905784058791813,0.0843459912954525
15.982423999999998,7.932135689387042,0.0840166462257938
15.987011999999996,7.953335082724677,0.0837011815918583
15.991604,7.97514539963304,0.0833562815914106
15.996196,7.992292218140388,0.0829992421605563
16.000784,8.001832865475489,0.0826544976568015
16.005371999999998,8.007242894714787,0.0823124083060682
16.009964,8.006845621677135,0.0819740616564004
16.01456,8.000518861648382,0.0816471375886636
16.019147999999998,7.992104721847416,0.0813027347315881
16.02374,7.978005464483642,0.0809557286421955
16.028319999999997,7.960797208185862,0.0805986173715474
16.032912,7.942034452421074,0.080236591270645
16.037508,7.917464394379337,0.079876263184581
16.042095999999997,7.885698860756415,0.0795425153395249
16.046699999999998,7.854422065990077,0.0791833543366425
16.051292,7.823511825366174,0.078803864505572
16.05588,7.783851609694087,0.0784454068294421
16.060472,7.741859644821492,0.0780767417584966
16.06506,7.699090430215395,0.077702538781224
16.069652,7.654888900856437,0.0773133754597115
16.074232,7.604391330363946,0.0769439932167041
16.078832000000002,7.555159748461541,0.0765490218500258
16.083408000000002,7.504251482377985,0.076150057395332
16.088008,7.457962573246814,0.075723550983975
16.0926,7.41731464022982,0.0752604454956206
16.097196,7.374990023031677,0.0747923283764442
16.10178,7.336385328338271,0.0742999140779866
16.106371999999997,7.297658448930719,0.073809249880841
16.110972,7.255744527323642,0.0733479427303256
16.115564000000003,7.210521378802891,0.072921004873912
16.120160000000002,7.167874348910941,0.0724865395891624
16.124751999999997,7.122529015676045,0.0720563444725116
16.129340000000003,7.078083116888798,0.0716175293125879
16.133923999999997,7.040177628663376,0.0711406785932733
16.138504,7.004071009333249,0.0706551680631421
16.143095999999996,6.964777347803598,0.0701980915431399
16.147688,6.934844584892861,0.0696899896007066
16.152275999999997,6.907487940610924,0.0691758310873593
16.156859999999998,6.883851218833724,0.0686422558298365
16.161440000000002,6.863445680704676,0.0681138918741834
16.166031999999998,6.847292945385578,0.0675804241583342
16.170627999999997,6.832572524819337,0.0670593432815079
16.175216000000002,6.821738352920608,0.0665569339007712
16.179820000000003,6.809516007717648,0.0660817291044878
16.184408,6.799869781143487,0.0656073805553849
16.188999999999997,6.798196279884008,0.0651186526524948
16.193596000000003,6.801797200596273,0.0646266818238786
16.198179999999997,6.808751489670837,0.064139866113612
16.202783999999998,6.823800688774232,0.0636363633024325
16.207379999999997,6.849110220944191,0.0630931641398722
16.211975999999996,6.880837978961829,0.0625370452487403
16.216564,6.922337331189449,0.0619724669143255
16.221163999999998,6.970665604855815,0.0614192972925065
16.225748,7.020304008560893,0.0608941542498222
16.230352,7.071374727018831,0.0603913451142263
16.234944000000002,7.134382462724482,0.0598614393629636
16.239544,7.196002025125902,0.0593665866370902
16.244139999999998,7.264939247822651,0.0588641412162171
16.248735999999997,7.335430969986404,0.058378590002006
16.253328,7.410542049102541,0.0578887688894621
16.257924,7.491049734904568,0.0573983243522593
16.26252,7.577975646554272,0.0569036943578583
16.267115999999998,7.669232404279445,0.0563821509419707
16.271703999999996,7.76625232283294,0.0558455073679413
16.276300000000003,7.862128437510496,0.0553309530640572
16.28088,7.953140825807376,0.0548436687031259
16.285464,8.040188922171227,0.0543852182393032
16.290055999999996,8.127359203249226,0.0539284394256422
16.294648,8.208233443193688,0.0534828197656056
16.299243999999998,8.285265575919265,0.0530589491488384
16.303836,8.352936810025932,0.0526624766603736
16.308432,8.412268764675474,0.0522871994542793
16.313019999999998,8.461462570972598,0.051930594267135
16.317612,8.504360336136187,0.0515786343135877
16.3222,8.541739309899741,0.0512363841012246
16.326784,8.566404016682084,0.0509080790875914
16.331388,8.584528312902597,0.0505926127404393
16.335976,8.589449603285315,0.0503088272155343
16.340563999999997,8.588074852534495,0.0500273744632905
16.345159999999996,8.57733920316476,0.0497643775623987
16.349748,8.555565970994959,0.0495140537604157
16.354344,8.517114179910918,0.049287014453776
16.358935999999996,8.463416144665487,0.0490968302838688
16.363539999999997,8.396270734153967,0.0489438100958432
16.368115999999997,8.318087740842383,0.0488000913360152
16.372716,8.235651944720853,0.0486432002211563
16.377295999999998,8.145898488303992,0.0484898146960536
16.381896,8.04474089494463,0.0483614152415526
16.386492,7.940518444099883,0.0482466250952278
16.391088,7.829877767407458,0.0481333082340692
