Time,Force,Position
14.568224,4.832086209494675,0.1544744144390713
14.572815999999998,4.9331254919282905,0.1541193736386072
14.577411999999995,5.032555893814531,0.1535247596515782
14.582004,5.124736439039222,0.1528919581177384
14.5866,5.206079629443511,0.1524595802043578
14.591187999999995,5.288566623723739,0.1519917153603593
14.59578,5.372275465145424,0.1514188598710184
14.600367999999998,5.4486225048231525,0.1509410415899688
14.604956,5.522593653851746,0.1504235907814112
14.609563999999995,5.590835543868905,0.1499482847187953
14.614156,5.649628252369891,0.149564088005507
14.618747999999998,5.705756559344825,0.1491179938318471
14.623336,5.765716733906902,0.1484145105400078
14.627928,5.816349911666952,0.147810027623254
14.632519999999998,5.859943700376855,0.1472249860640924
14.637112,5.89649810003661,0.1466488615923744
14.641708,5.925358045626861,0.1460807535483562
14.646295999999998,5.945501917985814,0.1455415251812998
14.650895999999998,5.963225758247002,0.1449234276537366
14.655484,5.9719891558486005,0.1443505652090091
14.66008,5.969993241895315,0.1438536820952589
14.664664,5.955605473654622,0.1435024547044666
14.669264,5.933323023364762,0.1432182188788591
14.673847999999998,5.8985265340733495,0.1430847053880116
14.67844,5.859266774360588,0.1429152282554742
14.683027999999998,5.820329427341633,0.1426594857284633
14.687623999999998,5.777994570511751,0.1423876182942024
14.692212,5.738025364699266,0.1419847348547714
14.696803999999998,5.698789267171654,0.1415198625046777
14.701392,5.652479878777005,0.1411616562992729
14.705988,5.610867890600259,0.1406537727881448
14.710575999999998,5.56512528432771,0.1401867778595374
14.715171999999995,5.511454094189103,0.1398912314921128
14.71976,5.4559840351552,0.1396234111179075
14.724355999999998,5.398348553083564,0.1394121159828074
14.728947999999995,5.345088058536021,0.1391254999325345
14.733527999999998,5.291094455703604,0.1388958965374891
14.738123999999996,5.240332036519341,0.1386310646493935
14.742712,5.188059259316703,0.1384231197033285
14.747288,5.140572165229223,0.138169695496705
14.751884,5.100324688171553,0.1378423748890008
14.756464,5.064862894229043,0.1374721865122842
14.761055999999998,5.030466860896954,0.1371300786516947
14.765647999999995,5.003310444594676,0.136715528686515
14.770236,4.981228222284477,0.1362893725326081
14.774827999999998,4.95600309922338,0.1360072417003661
14.779407999999998,4.9347083662784215,0.1357520685984008
14.784007999999998,4.914401350678367,0.1355926008306482
14.788592,4.896225856299156,0.1354931698079677
14.793192,4.887211032559198,0.1352849807698437
14.797779999999998,4.882370968363669,0.1350882463754889
14.802379999999998,4.888123889560252,0.1347909322828304
14.806964,4.903281850824381,0.134370937553887
14.811559999999998,4.926090124709385,0.1339146223127266
14.816148,4.955116396462406,0.1334205832272811
14.82074,4.985619124416915,0.1329930592180283
14.825344,5.026059772744178,0.1324675995980485
14.829935999999998,5.070020115596517,0.1319559542435399
14.834516,5.121220075478666,0.1313971813723933
14.839107999999998,5.176184099314179,0.130838739210939
14.843696,5.2319695143318246,0.1303421478622468
14.848283999999998,5.297282154131158,0.1297428068142316
14.852876,5.371466953692825,0.129036629361128
14.857468,5.449127306330937,0.1283032918957425
14.862059999999998,5.525521670378964,0.1276158093792386
14.866648,5.6066575760935216,0.1268503089480565
14.871231999999996,5.689836720131668,0.1260621844805031
14.875831999999996,5.774404037474043,0.1252307743550674
14.880411999999998,5.860481712834795,0.1243553738562275
14.88502,5.943083835119104,0.1235318994415181
14.8896,6.019634285698169,0.1227905387877614
14.894207999999995,6.086779696209687,0.1221576374675752
14.8988,6.14967230391126,0.1215766294728425
14.903387999999998,6.2112106401254925,0.1209505426818268
14.907983999999995,6.270250900976444,0.120301673072164
14.912572,6.324094783121172,0.1196569413886089
14.917163999999998,6.367101310445496,0.1191002545208936
14.921752,6.404789274349451,0.1185539578504489
14.926352,6.4356041753660325,0.118029905842725
14.930939999999998,6.462122132124038,0.1175010606402838
14.935539999999998,6.483810264318255,0.1169484189291611
14.940128,6.493395053101987,0.1165108294822377
14.944728,6.493574801818175,0.1161549796144472
14.949319999999998,6.486392748790406,0.115840341756943
14.953911999999995,6.478633674008795,0.1154652684598058
14.958491999999998,6.465311666378525,0.1151102995618889
14.963087999999996,6.444750041718444,0.1147852452710392
14.967684,6.420179983676705,0.1144745659772975
14.972284,6.391479307539164,0.1141853603480383
14.976876,6.361590686077053,0.1138738557096704
14.981467999999998,6.329492500128581,0.1135568501543467
14.986056,6.296739249160757,0.1132314109639332
14.990639999999996,6.263575302601864,0.1128812221378878
14.995219999999998,6.227590867985881,0.1125629389696139
14.999815999999996,6.190951368350541,0.112233221044476
15.004408,6.160852279277029,0.1118201739180698
15.008987999999997,6.134839666850692,0.1113354929940183
15.013571999999998,6.111647542481443,0.1108129722103577
15.018152,6.0888661137032605,0.110310183426968
15.022736,6.063919261887344,0.1098456891720695
15.027347999999998,6.041059789843644,0.1093916676239952
15.031936,6.022941859466473,0.1088740266071488
15.036543999999996,6.0066227979846,0.1083356295308851
15.041136,5.99185823596973,0.1077914547359642
15.045723999999998,5.97546113122234,0.107302435149849
15.050319999999996,5.961395775675456,0.106808837071663
15.054916,5.948396180738993,0.1063427784132902
15.059512,5.938627769450686,0.1058644440194991
15.064104,5.9324570959529686,0.1053510022836925
15.068708,5.9287403563699055,0.1048275394086847
15.073295999999996,5.93119747320623,0.1042523715172947
15.077895999999996,5.939950631176091,0.1036183560355961
15.082492,5.94845941971766,0.1030004502413303
15.087092,5.957378903850294,0.1024071308402938
15.091679999999998,5.967364148593348,0.1018479131184278
15.096279999999998,5.972119112813291,0.1013819924873841
15.100875999999998,5.9789614568054485,0.1009345358669843
15.105475999999998,5.986581050531109,0.1004896528695167
15.110068,5.991257971485534,0.1000811498471227
15.114664,6.004396356611227,0.0995835034226938
15.119251999999998,6.016635307289271,0.0990936492130737
15.123844,6.032105441615471,0.0986029635058509
15.128447999999995,6.047086837085086,0.0981431688598663
15.133044,6.067587023954735,0.0976354626211171
15.137631999999998,6.093073121919206,0.0970635766599051
15.142223999999995,6.121257523226621,0.0964763924265086
15.146816,6.153284031752918,0.0958473265873844
15.151399999999995,6.1855549097075055,0.0952085242166532
15.155988,6.213494941586629,0.0946455939403016
15.160583999999998,6.241557158179899,0.0940804316771623
15.165175999999995,6.265410713411849,0.0935835838815455
15.169755999999998,6.286199411158417,0.0931338017429534
15.174348,6.309686412247929,0.0926675640989712
15.178935999999998,6.331374544442147,0.0922131671408873
15.183527999999995,6.351385992455213,0.091765111877235
15.188116,6.370498006020632,0.0913216102280307
15.192703999999996,6.3896100195860495,0.0908826666496646
15.197292,6.40475774121844,0.0904913232107838
15.201879999999996,6.426201503984364,0.0900557877575601
15.206468,6.43701837954129,0.0897360856534727
15.211059999999998,6.449756308707657,0.0893976360360717
15.215655999999996,6.457219815902281,0.0890901603357396
15.220252,6.467992550010577,0.0887290983103975
15.22484,6.474800992185845,0.088416720092075
15.229444,6.47866676158988,0.0881385080313005
15.23402,6.475869935717941,0.0879215478276673
15.238624,6.470252621788913,0.0877288880415571
15.243216,6.4625920695362975,0.0875615574980182
15.247811999999998,6.457096940321416,0.0873610086183122
15.252396,6.450458007230594,0.0871804560435818
15.256992,6.446473236034088,0.08693840268821
15.261583999999996,6.445553322322964,0.0866598846365601
15.266172,6.4418129205547485,0.0864047612637245
15.270759999999996,6.441015191557768,0.0861194760019066
15.275356,6.444059569779672,0.0858006082438138
15.279944,6.451845489668106,0.0854431386542027
15.284535999999996,6.458854159823039,0.0850859808428538
15.289128,6.473302674987444,0.084677248966578
15.293724,6.483498387341902,0.0842803368565266
15.298315999999998,6.504731682496424,0.0838133618307765
15.302908,6.525964977650948,0.0833498020266014
15.307504,6.547853337824827,0.0828943255385529
15.312087999999996,6.565410851923242,0.0825005445565091
15.31668,6.585255973773534,0.0820727566027263
15.321259999999995,6.602036238138447,0.0816782864678927
15.325848,6.62380241359818,0.0812320212118283
15.330439999999998,6.648633446543295,0.0807542955934832
15.335028,6.672442860326616,0.0802866526548836
15.339615999999998,6.696496643538228,0.0798071435963634
15.344211999999995,6.717852123406898,0.0793399566972696
15.3488,6.737941614685482,0.0789014770062253
15.353395999999998,6.75316737958339,0.0785072991575247
15.357984,6.7712136325383865,0.078095368320274
15.362587999999995,6.786561582150439,0.0776968531534131
15.367167999999998,6.797045805381816,0.0773411695277378
15.371763999999995,6.8040544755367485,0.0769969722929623
15.376343999999998,6.806443788739295,0.0766786374903481
15.380943999999998,6.802659245522452,0.0763825133791194
15.385528,6.802472440096199,0.0760712481998411
15.390123999999998,6.790715171564671,0.0758026354744899
15.394715999999995,6.777159034137847,0.0755409747198647
15.399308,6.766012689177049,0.0752379439265338
15.403908,6.758542125272357,0.0748699317656505
15.408499999999998,6.748128888596433,0.0745260969108384
15.413088,6.743723182177122,0.0741281542495308
15.41768,6.7393174757578125,0.0737314502659455
15.42226,6.731846911853123,0.0733650403885956
15.42686,6.726297401557873,0.0729845893167459
15.431447999999998,6.721769510424418,0.0725950019706809
15.436043999999995,6.720961541795699,0.0721854083936124
15.440636,6.717455269824036,0.0717839259045043
15.445216,6.71521498644246,0.0713581562513014
15.449812,6.708599715536788,0.0709407528794926
15.454399999999998,6.706725986297647,0.0704960782845215
15.458992,6.704075007325006,0.0700450080848226
15.46358,6.702201278085867,0.0695974431280743
15.468168,6.705069090513257,0.0691208622843816
15.472775999999998,6.707692533512357,0.0686556547264838
15.477364,6.708883661758597,0.0681783964203298
15.481951999999998,6.715593581404869,0.0676748881163997
15.486547999999996,6.722303501051143,0.067170921288482
15.491136,6.726847997659682,0.0666934952775186
15.495732,6.731925374573434,0.0662367245193892
15.500316,6.73520388259189,0.0657831310763452
15.504912,6.73386303365796,0.0653495513780512
15.509499999999996,6.731500565562237,0.0649258291168429
15.514099999999996,6.729138097466514,0.0645012031292856
15.518688,6.730984290732111,0.0640382218080013
15.523296,6.732586114569417,0.0635901948030605
15.527879999999998,6.732511254225571,0.0631404262872788
15.532464,6.736933566119967,0.0626807090000356
15.537051999999996,6.7403342588525685,0.06222836321318
15.541648,6.749253742985202,0.0617595319849774
15.546236,6.757273792670187,0.0612973123017418
15.550831999999998,6.7710570031835,0.0608070503002323
15.55542,6.785984017572748,0.060304921578181
15.560003999999998,6.801810466409645,0.0598051167708626
15.564592,6.819680153570129,0.0592897690512147
15.569192,6.8391043401976175,0.0587880188929752
15.573779999999998,6.86122683016805,0.0582864013868709
15.578355999999998,6.884370939300275,0.0577786030226913
15.582951999999995,6.910335536489592,0.0572636832188867
15.587531999999998,6.932458026460023,0.0567677364734751
15.592124,6.958955503954551,0.0562729548483351
15.596707999999998,6.98815128479202,0.0557767843819815
15.601296,7.015548196734194,0.0552834081657058
15.605907999999998,7.044088912552308,0.0547780207652223
15.610496,7.065722663666157,0.0543134159896384
15.615083999999998,7.083636492275269,0.0538585243756241
15.619676,7.103227005065531,0.053409765836072
15.624268,7.116277107293966,0.0529779243319982
15.628859999999998,7.13022664397005,0.0525447733673618
15.633455999999995,7.138290835103665,0.0521413711305178
15.638048,7.137527007923574,0.0517785602306892
15.642635999999998,7.130100585467512,0.0514381509210294
15.647235999999998,7.117688251916628,0.0511236276823146
15.651815999999998,7.099757126965711,0.0508168842348657
15.656407999999995,7.080682198138855,0.050521825936333
15.660991999999998,7.054700304607735,0.0502588766182714
15.665587999999998,7.021156381352996,0.0500156690924626
15.670172,6.985447035060523,0.0497897263235008
15.674759999999996,6.943974527939727,0.0495820028483904
15.679363999999998,6.901969140513719,0.0493521318269287
15.683956,6.853667711954177,0.0491212354745008
15.688543999999998,6.79935875313802,0.0489202133675915
15.693139999999998,6.741862752122337,0.0487421921820435
15.697728,6.680280274459481,0.0485870944047751
15.702324,6.616654558473034,0.0484423072976819
15.858456,3.4687356971562227,0.0483737622211473
