Time,Force,Position
20.438544,2.120110954474629,0.1881580025343974
20.44314,2.211266697615852,0.1862979219362937
20.447732,2.302123690248416,0.1841404405041515
20.452324,2.377802242353374,0.1828806074170899
20.456912,2.445942426919862,0.1814414988128509
20.461508,2.502990647605919,0.1803154493281876
20.466096,2.5588406833356694,0.1786885394269523
20.47068,2.607773514729417,0.1772239771903927
20.475268,2.6439037962446936,0.1763724828613492
20.479864,2.672051112813546,0.1756087613065791
20.484452,2.693359268311913,0.1747944484954166
20.489036,2.71052656608274,0.1738310132892876
20.493628,2.7226535716783777,0.1727577269026246
20.498216,2.7265532428993,0.1717696514442349
20.502808,2.734783760195688,0.1705021974370856
20.507404,2.742569680084122,0.1694041631947082
20.511992,2.7516657300112684,0.1683148825547463
20.516588,2.7626047902823387,0.1672562486662931
20.617668,2.7414322420515287,0.1669162553100024
20.626852,2.7579649540664763,0.1667361782728707
20.631436,2.7717891231067417,0.1663216035558341
20.636024,2.777929077709242,0.1663010068787953
20.64062,2.785990085921183,0.1661896200808347
20.645204,2.792252225237829,0.1661539789960757
20.649792,2.8017014067540007,0.1659246474519241
20.654388,2.8121722074319657,0.1656426024436725
20.658976,2.824153366128308,0.1652276349017225
20.663568,2.838133621699608,0.1645995324686648
20.66816,2.8482717700520253,0.1641615147132746
20.672744,2.863518014213411,0.1634457285730096
20.677356,2.8796636928224446,0.1626861812550289
20.681944,2.8893911455837973,0.162201329998555
20.686532,2.8964202950022058,0.1618202028732342
20.691128,2.9013620646484,0.1614617037113603
20.695716,2.9009072276087062,0.1613179041925224
20.700308,2.9038838021968303,0.1609484600428607
20.704888,2.9050615078896587,0.1606534599324029
20.709492,2.9072608327442806,0.1603082683839402
20.71408,2.910603961474842,0.1598965007030388
20.71868,2.9166012520997198,0.1592800257334788
20.723268,2.919778054667507,0.1587885190156881
20.727872,2.9252424649871727,0.1581419106332825
20.732464,2.9241664647450123,0.1577763858286998
20.73706,2.921946660626912,0.1574825057667515
20.741648,2.92062629095646,0.1571557857073723
20.746232,2.919305921286008,0.1568309788439764
20.75082,2.9168417477396176,0.1565784554689034
20.755416,2.9141332047649358,0.1563639110513326
20.760004,2.91485607341807,0.1559413796254193
20.764596,2.910060150671173,0.1557304861423596
20.769184,2.9065302165143603,0.1554324312860716
20.773772,2.906353650719848,0.1550389680667613
20.77836,2.9155379835442505,0.1542771437929204
20.782956,2.9232119583502767,0.1536443431669076
20.787548,2.9374263437181303,0.152752118319517
20.79214,2.9476764371529547,0.1520444944746328
20.796732,2.96099138807316,0.1512027862191574
20.801312,2.9725074700980696,0.1504334073461294
20.805904,2.981735944371101,0.149802746862473
20.810496,2.991375114235197,0.1492192980510535
20.815084,3.004489837175739,0.1485444917700651
20.819676,3.020547232887516,0.1477569565325138
20.824264,3.04338940858941,0.1466979270273254
20.828856,3.0712174953861267,0.1454345947580975
20.83344,3.0968801591451105,0.1442942483251113
20.83804,3.1211546495998643,0.1432564693549366
20.842632,3.149149062559354,0.1421180953597117
20.847212,3.176899106090553,0.1410284334791185
20.851812,3.202361541869873,0.1400760953261945
20.8564,3.2324433346015784,0.138975925992366
20.861,3.259338085133757,0.1380166387357146
20.865588,3.292606920064989,0.1368090817040452
20.870188,3.3165148563773053,0.1359260930444504
20.874772,3.3406671621179127,0.1350109638963076
20.879364,3.359300676458488,0.1342617025957111
20.883956,3.379855244408504,0.133441941276266
20.888552,3.395301716549553,0.1328279552838173
20.893148,3.411403253709957,0.1322266921121068
20.897748,3.429914583336387,0.1315080801944569
20.90234,3.4485480976769622,0.1307813552843694
20.90694,3.4647276781028844,0.130103570763427
20.911528,3.4778424010434263,0.1295448915451678
20.916116,3.48699283205094,0.1291266176175258
20.920704,3.4932005902872185,0.1288096305684991
20.925304,3.502595390723023,0.1283747039418859
20.929892,3.5143999836248527,0.1278283092367167
20.934488,3.5205636004125034,0.1274390600308894
20.93908,3.5260721521807974,0.1270428664712297
20.943664,3.531702888663237,0.1266324409163244
20.948248,3.5352903868220897,0.1262940448726885
20.952836,3.544108165504056,0.1257725096627477
20.957424,3.5442201105864624,0.1255023894802577
20.962028,3.5491957820495457,0.1250942723413256
20.966616,3.553272019064981,0.1247045443049207
20.971224,3.564665916375745,0.1241541345789156
20.975816,3.577081432848302,0.1235749148554613
20.980412,3.591007307339236,0.1229001479747384
20.985008,3.6031343129348734,0.1222630296301098
20.9896,3.610275407435689,0.1217768083693715
20.994192,3.613696579431768,0.1213772734383663
20.998772,3.616995566713701,0.1209927997740018
21.003376,3.623359411481015,0.1205124059849016
21.007964,3.632788113733709,0.1199376705690785
21.01256,3.6422168159864032,0.1193640633574335
21.017148,3.64792559573436,0.1188821357943433
21.021752,3.648892833815786,0.1185165302701062
21.026344,3.651003875773152,0.1181024083036032
21.030936,3.650294429673429,0.1177536155526667
21.03552,3.644843441907175,0.1175214281846026
21.040116,3.6387373891215646,0.1172783071860817
21.044724,3.6308324674406585,0.1170705641166119
21.04932,3.629467956321579,0.1167115719691182
21.053908,3.6232397188218224,0.1164813464026168
21.058504,3.618155285198006,0.1162046743522971
21.063092,3.607796429602448,0.1160162736875259
21.067676,3.5982148237403915,0.1158241397148442
21.072264,3.590432086773631,0.1155978186858778
21.076856,3.5848147728446023,0.1152977712229641
21.081444,3.583161750848603,0.1148908245456565
21.086036,3.5863724552332794,0.1143614936670202
21.090632,3.590604778779749,0.1138049224961455
21.09522,3.5918944295549853,0.1133254933587617
21.099812,3.590241407558986,0.1129214331105109
21.1044,3.5887105702771325,0.1125041419983924
21.108992,3.5860359291193395,0.1121267063824906
21.113576,3.587980644913931,0.1116577339428542
21.118164,3.5898031759943776,0.1112005801467524
21.122756,3.597266683189002,0.110624946533426
21.127352,3.611759339802036,0.1098552285676711
21.131948,3.6271514308627175,0.1090706995833586
21.136544,3.639234295009727,0.1084009685031179
21.141136,3.6437551294331167,0.1078961965814005
21.145732,3.651218636627741,0.1073141481767862
21.15032,3.6593372088417215,0.1067480001458987
21.15492,3.667211411627412,0.1062077801638429
21.159508,3.66981119244136,0.1057427615176866
21.164108,3.671389354093516,0.1053088228618571
21.168696,3.6709242774220834,0.1049323411307623
21.173296,3.670337016036506,0.1045717493453099
21.17788,3.6679508857556327,0.104241414658935
21.182476,3.6637658865794633,0.1039387882123718
21.187068,3.662645744888675,0.1035560453089393
21.191664,3.6618921573403234,0.1031320660930791
21.196264,3.661138569791972,0.1027085438498991
21.200852,3.663449839729001,0.1022045727155174
21.205428,3.66408442548488,0.1017173679213168
21.210024,3.6656184456884064,0.1012163121012687
21.2146,3.662533108939548,0.100794465628106
21.2192,3.659081218048253,0.1004151411478052
21.223788,3.655751511871104,0.1000230008264784
21.22838,3.656630467055274,0.0995189150989468
21.232964,3.6624953333342662,0.0989000866822272
21.237544,3.672202306832142,0.0982182899942195
21.24214,3.683053084205956,0.0975078453595692
21.246728,3.6940260462939154,0.0967825073140612
21.251316,3.7123166686772033,0.0959573115540531
21.255908,3.7316289102222857,0.0951152879051146
21.260496,3.7540060092527474,0.0942100213545683
21.265084,3.774462054673768,0.0933420017323345
21.26968,3.797494218723588,0.0924671341233585
21.274268,3.823713424972933,0.0915230896331588
21.27886,3.847767208184545,0.0906469250352869
21.283456,3.8760737942061056,0.0897600592876782
21.288048,3.907078683570609,0.0888572349160228
21.292636,3.938860822668615,0.0879712157327449
21.297236,3.9714202115001234,0.0870965779509437
21.301824,4.004101785045777,0.086213871447281
21.306424,4.042302149991464,0.0852779383120286
21.311016,4.077682026880061,0.0843868593510252
21.315612,4.114616403235664,0.0835122878210639
21.320192,4.150284791001181,0.082694630848901
21.324788,4.1846871901766125,0.0819276139151875
21.329396,4.213326428523721,0.0812513810687085
21.333988,4.240044613261388,0.08061009408729
21.338576,4.268439482180204,0.0799677026612638
21.343168,4.295157666917872,0.079346127002389
21.347756,4.321753666941392,0.0787431411635864
21.352344,4.345284809479533,0.0781983709091857
21.356932,4.369837571179467,0.0776369466662068
21.361524,4.38797210703172,0.0771330530542313
21.366116,4.401409242666071,0.076753041250208
21.370704,4.414069128566919,0.0763690488535357
21.375296,4.421454592496027,0.0760157028211452
21.379884,4.425242318634542,0.0756892705297141
21.384468,4.427231175877761,0.0753767773158911
21.389056,4.427543348939832,0.0750660340197546
21.393644,4.426056653106607,0.0747657698334888
21.398252,4.4190511658733485,0.0745104970520279
21.40284,4.415232720839617,0.0741977267245116
21.407428,4.408838157177087,0.0738910902607898
21.412024,4.398068605990463,0.0735985774605772
21.416612,4.384478566746749,0.0733307574779706
21.421208,4.371910146664831,0.0730452569997128
21.4258,4.357542857687614,0.072768458296704
21.430392,4.3414988845292495,0.0724907322916293
21.434972,4.32136843472371,0.0722738328370745
21.439572,4.301360169632318,0.0720448881909087
21.44416,4.282495708416863,0.0717884543555772
21.44876,4.262609628039614,0.0715457241148453
21.453352,4.24938614293834,0.0712366555157922
21.457944,4.237795200569585,0.0708587893694576
21.462532,4.226204258200832,0.0704788897927454
21.467124,4.215268380851434,0.0701125598130289
21.471732,4.207275176273272,0.0697114871123788
21.476328,4.198626906675752,0.0692927426384474
21.480916,4.191777505973529,0.0688649263296259
21.4855,4.192490134994926,0.068376955552782
21.490092,4.1969226865210585,0.0678636753008879
21.494676,4.197268761400019,0.0674079559189874
21.499264,4.19953588988842,0.0669353344132287
21.503864,4.206666744757497,0.06641234397999
21.508452,4.2177618915596025,0.0658428925903425
21.513044,4.232576960866445,0.0652539575203305
21.517636,4.249190899068584,0.0646574791119204
21.522228,4.268625325327811,0.0640449784074746
21.52682,4.290225174624771,0.0633943343382256
21.5314,4.309004535864641,0.0627655043053209
21.535988,4.329582765999808,0.0621371050401989
21.540584,4.354247472782149,0.0614636497835553
21.545172,4.375969506793254,0.0608274756138457
21.549764,4.3988353446803,0.0601727868183893
21.554356,4.425421105072082,0.0595046008086193
21.558948,4.4557267879686,0.0588221071727602
21.563544,4.482190363646238,0.0581735756316383
21.568136,4.510208438790879,0.0575446239498563
21.572728,4.5323411683930495,0.0569637424707966
21.577312,4.545890249109807,0.0564469412482553
21.581912,4.555597222607682,0.0559585559760879
21.5865,4.566325815267351,0.0554566372097203
21.591108,4.578076027088813,0.0549492082332882
21.595696,4.589337500053692,0.0544842482498441
