Time,Force,Position
23.832236,1.9739763860878357,0.1884751192037223
23.836836,2.054250632960028,0.1869268247319693
23.841436,2.128340783781092,0.1857095669158354
23.846024,2.197757196569404,0.1843891011782022
23.85062,2.254815656887199,0.1835373148322395
23.855208,2.306877966478434,0.1827419586331522
23.859796,2.364448827837962,0.1811317515795846
23.864384,2.4149803001473424,0.1797374644733824
23.868976,2.459494002568368,0.1783432319452492
23.873572,2.501543531443004,0.1767004699746616
23.878156,2.5407181911801824,0.1748338871597678
23.882752,2.5725649509902944,0.1730458746622158
23.88734,2.595451268140817,0.1715590776970062
23.891932,2.607744599899229,0.1705300896800341
23.89652,2.6179946933340537,0.1696746198042632
23.901108,2.620238159637304,0.1693991606412631
23.905704,2.6237917559792674,0.1691295730439583
23.910288,2.63045435125524,0.1687829171829601
23.914892,2.6433688462161182,0.1680359333723647
23.919488,2.6597147528048146,0.167034586092121
23.924084,2.6761828441076565,0.1660183337734847
23.92868,2.696493042629381,0.1648223974881693
23.933272,2.711572960627993,0.1639488274562207
23.937868,2.720523163655843,0.1634402569578407
23.942456,2.733726169493641,0.1627654140972553
23.947056,2.745130306436144,0.1621795575660981
23.951644,2.748072979207379,0.1620226087074684
23.956244,2.754080509463994,0.161694314998547
23.960824,2.766095569977225,0.161045528156371
23.965424,2.777866261062165,0.1604557453656779
23.970012,2.7850617366433474,0.1601749642657435
23.974608,2.793523200814615,0.1598001514085285
23.979196,2.80349502300426,0.1592955963037722
23.983792,2.8137112146221943,0.1587500012559049
23.988388,2.8173869956783038,0.1584873576532754
23.992988,2.828991360600469,0.1578151545590903
23.99758,2.8404735408084885,0.1571710254385828
24.002172,2.8529773401783025,0.1564864438508649
24.006764,2.86511458540568,0.1558790771042104
24.011352,2.872510288966525,0.1554739400395105
24.01594,2.8811719811174563,0.1549864229847451
24.020524,2.8845592512966456,0.1546799068513095
24.025116,2.8941984211607417,0.1540509987952888
24.029692,2.9115218054626038,0.1530923460794596
24.034292,2.926146886421521,0.1522286314143799
24.038868,2.940239087075229,0.151340482432788
24.043456,2.956374526052524,0.150340611523668
24.048052,2.968012792791579,0.1495119440255102
24.052628,2.9777300059211926,0.1487901424784857
24.05722,2.984871100422009,0.1481461368068342
24.061816,2.992623118493553,0.1474063982204171
24.0664,3.000252951850951,0.1466886894861442
24.070996,3.003019058827673,0.146170604408021
24.075592,3.0060295352326865,0.1456167890679142
24.080196,3.0145588030377333,0.1448566059240087
24.08478,3.0210448325191925,0.1442064960472291
24.08938,3.025854177819502,0.1435982345163723
24.093968,3.028864654224516,0.1430546904403617
24.098572,3.0243131009059097,0.1427951751648062
24.103156,3.0236036548061858,0.1423781264189091
24.107756,3.0237936431541104,0.1419385854272075
24.11234,3.0263153807025414,0.141464661542789
24.121536,3.0130918956012653,0.1413397505359511
24.126128,3.007074125712911,0.1412930563274609
24.130716,3.003510289739209,0.1411960889405506
24.135312,3.0000686384796533,0.1410810216585793
24.139896,2.999080921134749,0.1409175526369783
24.14448,2.9977266496474075,0.1408077519613126
24.149068,2.9975603234846337,0.1407306156732528
24.153668,2.9987041273605737,0.1406689093706673
24.158256,3.000380811541723,0.1406326102343335
24.162852,3.009375156018202,0.1403651301538637
24.167448,3.0198018152475394,0.1400999526314096
24.172036,3.031494463066961,0.1397689116986287
24.176628,3.042409861152881,0.1394490881943091
24.181216,3.053080889810509,0.1391593786520172
24.185812,3.061464310716259,0.1389858849685942
24.190396,3.077409761345629,0.1385424467248487
24.194988,3.094254646422648,0.1380829263041064
24.199596,3.1091784778902243,0.1377048643660546
24.204184,3.1243466787860914,0.1372980011761485
24.208772,3.1465440291003683,0.1366113306057301
24.213356,3.1678419449669977,0.1359464288635063
24.217956,3.1904058494237115,0.1352215540038349
24.222548,3.212192504146923,0.1345202379439841
24.227128,3.2337347894418427,0.1338544771983697
24.231728,3.2562986938985565,0.1331603953679054
24.236308,3.2755092299929705,0.1325288743411593
24.240896,3.295575059086404,0.1317922314404661
24.245492,3.3151080078746267,0.1310355018352159
24.250088,3.333086457195845,0.1302932094102825
24.254684,3.3454239304028843,0.1297265725546333
24.25928,3.3564512735712118,0.129148292574314
24.263868,3.364658128682449,0.1286614678185444
24.26846,3.3729871685078328,0.1281608441470728
24.27306,3.3845032505327417,0.1275372214859339
24.277652,3.4002279939189703,0.1267513020175904
24.28224,3.4142760531240497,0.1260015599134985
24.286828,3.427546862595627,0.1252685604891428
24.29142,3.436198315114819,0.1246477326714679
24.296008,3.442273649005213,0.1240736752903968
24.300596,3.44630574457202,0.1235792454052478
24.305188,3.4523810784624147,0.1230155203069447
24.309784,3.45731260847687,0.1225082155803946
24.314364,3.461100334615386,0.1220520595489561
24.318956,3.469751787134578,0.1214666410419199
24.323544,3.475582751596681,0.1209539752492918
24.328136,3.4833347696682253,0.1203875177741219
24.332732,3.488799179987891,0.1199178350612184
24.33732,3.4960624592028524,0.1194164100298749
24.341916,3.505246792027255,0.1188660757798726
24.346492,3.517618167051184,0.1182035506205269
24.35108,3.530766791808615,0.1175434098876335
24.355676,3.5417499935283137,0.1169580768468599
24.360256,3.556453117752749,0.1163004863906362
24.364856,3.5665368850248,0.1157447659209136
24.369436,3.5758434025633488,0.1152014438590987
24.374036,3.585027735387752,0.1146735995475333
24.378616,3.596255306535742,0.1140964986097434
24.383216,3.611202800188469,0.1134332956553469
24.387808,3.627949162736492,0.112735935780295
24.392404,3.643263210531656,0.1120338260539867
24.397,3.657022758859816,0.1113409207134147
24.401592,3.666285134949737,0.1107225328967792
24.406192,3.675014630734445,0.1100782961326514
24.41078,3.675404847062033,0.1096065653663114
24.415372,3.677960486427353,0.1090632134440376
24.419972,3.680516125792673,0.1085209852200344
24.42456,3.68625880735752,0.1078814931888613
24.429144,3.689303185579423,0.1072902554975025
24.433732,3.692591933229617,0.106677217339659
24.438332,3.693182377536868,0.1061075570159276
24.442924,3.693895006558265,0.1055285108180526
24.447516,3.6980390472074784,0.1048274217526894
24.4521,3.692822189237777,0.1043032328731314
24.456692,3.690181449896874,0.1037470350118785
24.461284,3.683454233908797,0.1032984295368409
24.465872,3.677093572063156,0.1028091631595247
24.470464,3.665869183836838,0.1024282129592841
24.475068,3.656032968914752,0.1019799607458498
24.479648,3.648117807602107,0.1014931837284218
24.484256,3.639713907432879,0.1010566638384201
24.488848,3.6308212684070695,0.1006706897462634
24.493436,3.6283468552289393,0.1001801476200843
24.498032,3.6256280726225176,0.0997141122418541
24.502624,3.62560759335904,0.0992034795651626
24.50722,3.623543875771976,0.0987462161625156
24.5118,3.621602342899057,0.0982760305553115
24.5164,3.6145527142171705,0.0979352714397939
24.520984,3.6063592816593446,0.0976320920117474
24.52558,3.595756056635494,0.0974207530708615
24.530164,3.5865851463645027,0.0972229781076165
24.534764,3.5753709977699244,0.0970761248070048
24.539356,3.56264649115697,0.0970064465501777
24.543948,3.5554407759440485,0.0968482038133623
24.54854,3.5520771679500096,0.0966138219778224
24.553132,3.5535772863366475,0.0962775191338459
24.557736,3.557531338637937,0.0959357214659964
24.562332,3.5622626406727296,0.0955925170774776
24.566924,3.569081322479737,0.0952865331898433
24.571524,3.570014658744274,0.0951011999253206
24.576112,3.574012852494192,0.0948432738255774
24.580704,3.582630403196495,0.0945188456830155
24.585292,3.589449085003501,0.0942219461051552
24.589892,3.5990882548675973,0.0938821045635781
24.59448,3.610648478341136,0.093509630878312
24.59908,3.627194612909495,0.0930420766148526
24.603672,3.644395812497211,0.0925937640888962
24.60826,3.664906238998599,0.0920493371517267
24.612852,3.68758208853772,0.0914452758005605
24.61744,3.7163876530476014,0.0907180635599915
24.622036,3.748380259757009,0.089923828935494
24.62662,3.781927365933422,0.0891346920111769
24.631208,3.813797787928684,0.0883488020217647
24.635804,3.846812013799886,0.0875361795578811
24.640392,3.8752068827187034,0.0867977980108063
24.64498,3.899759644418636,0.0861253044980142
24.649576,3.91957086445204,0.0855264821826855
24.654168,3.940648073075528,0.0848828480117312
24.658772,3.95771684831736,0.0842441489929136
24.663352,3.983369272444605,0.0834829189736059
24.667948,4.007100642962407,0.0827602701055528
24.672536,4.023636537899028,0.0821063433326963
24.677136,4.03543089116912,0.0815137484629857
24.681724,4.045304190829768,0.0809540917209017
24.686324,4.057220728814004,0.0803641784503468
24.690916,4.062352486808122,0.0798784303117654
24.695508,4.065685375906944,0.0794082752970404
24.700084,4.0685295261491845,0.0789851794669198
24.70468,4.071129306963132,0.0785859213020034
24.709272,4.064001635015728,0.078327524215183
24.713864,4.053686920868797,0.0781361495122911
24.718444,4.041284826949652,0.0779075628184676
24.723036,4.033746459411184,0.0776105477793739
24.727624,4.02800696076801,0.0773021353153242
24.732216,4.0220230926965455,0.0770147863478301
24.736808,4.01771590880623,0.0767246043666052
24.741396,4.0153297785253566,0.0764089753372046
24.745988,4.012699278816193,0.0761159746108243
24.750568,4.007658986641004,0.0758900971875479
24.75516,3.999798206408725,0.0756961771416429
24.759752,3.989772003138714,0.0755472009407853
24.76434,3.98346572237344,0.0753609983938664
24.768932,3.982800417722345,0.0751144716453063
24.77352,3.980214059461809,0.0748905982996777
24.778108,3.971620170944657,0.0747598431672867
24.782704,3.9667462049322415,0.0745925547831694
24.7873,3.964814911691061,0.0743848469180215
24.791904,3.962761433735735,0.0741884392618866
24.796492,3.9646722477134384,0.0739373063048836
24.801088,3.974389460843052,0.0735836740165061
24.805664,3.984351043400957,0.0732084014454051
24.810264,3.9985654287688095,0.0728311867011859
24.814852,4.009470587222992,0.0725297939426712
24.819456,4.016411453744144,0.0722848560161449
24.824048,4.028338231360118,0.0719741898761121
24.82864,4.039609943956736,0.0716467886914313
24.833228,4.051903275715148,0.0713056614975887
24.83782,4.065096041921207,0.0709614049664608
24.842408,4.081231480898501,0.0705778535997056
24.847004,4.093769182085205,0.0702158088632205
24.851592,4.113213847976171,0.0697710751684317
24.856188,4.132536329152991,0.0693389973988891
24.860776,4.150837191168018,0.0689273893426687
24.86536,4.171181291506633,0.0684843647695653
24.869948,4.199209606283012,0.0679666171398698
24.874544,4.226094117183453,0.0674776837115451
24.879136,4.250691020332015,0.0670439010610073
24.883724,4.278719335108395,0.0665412287888537
24.888316,4.301639554075807,0.0661171347417605
24.892896,4.319329492520105,0.0657771205075622
24.897488,4.337918865412052,0.0654362358605668
24.90208,4.352910500513407,0.0651140001995958
24.906672,4.3703119280807865,0.0647368231313188
24.911264,4.391022582561837,0.064302185580757
24.915856,4.405070641766917,0.0639252375725548
24.920444,4.422838623476734,0.0635293206788475
24.92504,4.437008867395958,0.0631462218855031
24.929628,4.450524046295826,0.0627488999410878
24.934224,4.46416140990984,0.0623429051033196
24.938812,4.478820392685648,0.0619233663273733
24.943408,4.484118476842541,0.0615638361343307
24.947988,4.492603603198958,0.0611607352469797
24.952584,4.501577468411959,0.0607221516588143
24.957172,4.51361619111034,0.0602525798902812
24.961772,4.515516765456304,0.0598275912187797
24.96636,4.5168844594970565,0.0593754461883667
24.970956,4.51796364266089,0.0588767148567898
24.975548,4.511236426672814,0.0584412593266347
24.98014,4.501522396464872,0.0579596916247819
24.984728,4.493318724275308,0.0574241048192749
24.989324,4.4843378023522416,0.0568815059771155
24.993912,4.474457445981527,0.0563372864136149
24.998496,4.458813928782488,0.0558302862744935
25.003088,4.436019077450895,0.0554003892200124
25.007676,4.415023095014597,0.0549631885512247
25.012268,4.392106058968858,0.054540368258588
25.016852,4.374829999037297,0.0540872660521451
25.021448,4.355632885496296,0.0536434844179429
25.026036,4.334636903059998,0.0531991478180606
25.030632,4.313274366481264,0.0527816392756809
25.03522,4.297430621302562,0.0523430536122196
25.0398,4.274557726705451,0.051969561663062
25.044412,4.2482534204805225,0.0516562099412698
