Time,Force,Position
20.156384,3.497302551237799,0.160159296641479
20.160964,3.5705271694281047,0.1600600522386404
20.165560000000003,3.638056430423865,0.1598249727837342
20.170144,3.705286940910968,0.1592499546892748
20.174736,3.7704198319941153,0.1584228261955937
20.17932,3.824627085359604,0.1576856006446861
20.183916,3.871628623512173,0.1569344971499247
20.188512,3.913878380366471,0.1561033881531447
20.193108,3.9479449442946826,0.1553727188005958
20.197684,3.982500247079477,0.1545854997937673
20.202268,4.011370432301463,0.1539154569325297
20.206856,4.030302697150697,0.1534706022653772
20.21144,4.04588159363763,0.1531052707781641
20.216024,4.062237739858065,0.1527371390025763
20.220612,4.07638432159214,0.1523858097598296
20.225204,4.085789361659683,0.1521821710589501
20.22978,4.101734812289053,0.1517847014763736
20.23436,4.117636121469796,0.1513175310285597
20.23896,4.129651181983027,0.1509064083581044
20.243544,4.138312874133957,0.1505616900689987
20.248144,4.148118370160828,0.150173289429363
20.252736,4.159067670063636,0.149740417958065
20.257316,4.167074297195211,0.1494049083626452
20.26192,4.169684317640899,0.1492020506069339
20.266512,4.169351665315351,0.1490909179684499
20.271116000000003,4.176581042713424,0.1487726901687572
20.275696,4.184832039273288,0.1484234136342647
20.280292,4.191161982223713,0.1481270749791446
20.284872,4.198924239926996,0.1478250911350406
20.289472,4.2069308670585706,0.1475003559355047
20.294056,4.2186574166948825,0.1470803414585334
20.298648,4.228340728007607,0.1467217864199085
20.30324,4.238556919625542,0.1463821257128613
20.307824,4.2467298729198895,0.1461124226715121
20.312412,4.259522183166622,0.1457307017295542
20.317004,4.271415058965708,0.1453628577620492
20.321592,4.282408500317144,0.1450233081298693
20.32618,4.291358703344995,0.1447501403778402
20.330768000000003,4.301985590553996,0.1444511046376934
20.33536,4.3156773352483775,0.1440552528126295
20.339944,4.331534502980492,0.1435965843902687
20.344532,4.345226247674872,0.1432160241864755
20.349128,4.361616295712197,0.1427820420542496
20.353716,4.381848450968403,0.142248386667713
20.358308,4.406944332605287,0.1415969342760008
20.362896000000003,4.428320291737433,0.1410465282853337
20.367484,4.447286458403555,0.14059177103327
20.37208,4.468295863393265,0.1400748997784431
20.376668,4.494291179477797,0.1394327979358813
20.38126,4.518121072524596,0.1388621373873649
20.385856,4.536842869762427,0.1384364056414412
20.390444,4.557485720609699,0.1379541960987308
20.39504,4.57927237533291,0.1374358814587275
20.399616,4.602447203360352,0.1368562503216745
20.404216,4.620758305007118,0.1364066217404367
20.408804,4.643688763606268,0.1358557714490524
20.4134,4.664043103576621,0.1353502744336677
20.417984,4.685785616851206,0.1347804612809757
20.422584,4.704174761763489,0.134259100541316
20.427176,4.722686091389918,0.1337361292791806
20.431768,4.73465701045452,0.1333605904708775
20.436348,4.752102579470527,0.132821442052108
20.440944,4.766194780124235,0.132329261845646
20.445532,4.777466492720854,0.1318989764419437
20.450128000000003,4.777456253089115,0.1317039844872294
20.454716,4.775891513990373,0.1315190175733575
20.4593,4.773793894586418,0.1313159562835819
20.463888,4.773495144077759,0.1310816913293269
20.468488,4.762036626054889,0.1310715830821064
20.473076,4.75311008521219,0.1309623554639346
20.477668,4.747614955997308,0.130738521048961
20.48226,4.74927116091498,0.1303294111109049
20.48684,4.747573997470353,0.1299610936813725
20.491432,4.743056345968636,0.1296497143002581
20.496016,4.740049052485295,0.1292676377491698
20.500604,4.740350985915627,0.1287918027407615
20.505208,4.738731865736518,0.1283535960463812
20.509796,4.736091126395614,0.1279407628158376
20.514388,4.737292494273593,0.1274473773161694
20.518984,4.73657280854213,0.1269965634085429
20.523568,4.73777417642011,0.1265044025595151
20.528164,4.734111817917412,0.1261207721965946
20.532744,4.729672209681213,0.1257389602481552
20.537336,4.7273980244827465,0.1252972614031387
20.541916,4.734729107331487,0.1246571227784891
20.546516,4.741938005466081,0.1240264695445029
20.551104,4.755931683590793,0.1232617622615871
20.555704,4.768248677534355,0.1225202011513821
20.560296,4.78890495093504,0.1216233952968608
20.564884000000003,4.807395801297991,0.1207909949852554
20.569476,4.82792988998453,0.1199194313362059
20.574072,4.839103080052153,0.1192219331867096
20.578668,4.850154085405631,0.1185305790897626
20.583268,4.866846066873288,0.1177455855855111
20.587856,4.882394244465004,0.11699582917535
20.592452,4.889358773171307,0.1164079744143357
20.59704,4.901187028258286,0.1157260695786062
20.601632,4.917879009725941,0.1149590348948716
20.606224,4.9315061337082176,0.1142638223341759
20.61082,4.940513900738107,0.1136340723852434
20.615416,4.946823364425054,0.1130387700594773
20.620016,4.950190155340766,0.1124988321167872
20.624608,4.959852987390014,0.1118780898661368
20.629196,4.968494200277466,0.111283430537981
20.633788,4.974437109821976,0.1107303195537708
20.638368,4.98025783465234,0.1101857949316336
20.64296,4.980437583368525,0.1097358580237889
20.647544,4.980739516798856,0.1092767690477262
20.652132,4.980752939352268,0.1087828916451796
20.656740000000003,4.98076636190568,0.1082877178073698
20.661336,4.978492176707213,0.1078556024984244
20.665928,4.979693544585192,0.1073877837826106
20.67052,4.9828159660726135,0.1068876004633665
20.675112,4.979275792284062,0.1064927939294311
20.679712,4.975979987923801,0.1060771938179112
20.684308,4.977059171087635,0.1056166583724527
20.688912,4.979037788699117,0.1051512039218618
20.6935,4.976929929663424,0.1047685486409921
20.6981,4.976865308951318,0.1043470916050523
20.70268,4.98244166435339,0.1038438984801723
20.707284,4.988795269488965,0.1033359766874059
20.711868,4.9983359168240655,0.1027569090309217
20.71646,5.001580523025632,0.1022525125321715
20.721044000000003,5.0029040756177565,0.1017764507974236
20.725636,5.004760508515092,0.101321353646547
20.730228,5.007760745288367,0.1008369911682736
20.734820000000003,5.011538231795145,0.1003526906835416
20.739412,5.016092968035424,0.0998708917490568
20.744012,5.020814030438477,0.0994415922652795
20.748604,5.027456146450972,0.0989856319622999
20.753188,5.035364251053552,0.0984944206141922
20.757772,5.044293974817924,0.0979872936777396
20.762364,5.055266936905884,0.0974485912386598
20.76696,5.07278030955567,0.0968339318310406
20.771548,5.089804943348873,0.0962558069178325
20.776136,5.106296696836866,0.0956616905355563
20.780724000000003,5.117147474210681,0.0951384802861483
20.785316,5.128486990441077,0.0945801891675377
20.789904,5.138927072223826,0.0940330843858145
20.794492,5.152187642063664,0.093461272501444
20.799084,5.17055630771247,0.0928097263797328
20.803672,5.1874146153429,0.0922119678857944
20.808264,5.206849041602127,0.0916015362169208
20.812856,5.229881205651946,0.0909630863345102
20.817452,5.253035554415908,0.090320117844407
20.822056,5.2770893376275225,0.0896745603987799
20.826648,5.302042555286784,0.0890254740389495
20.83124,5.327773022679546,0.088385332409965
20.835816,5.352848425052951,0.0877410364581846
20.840416,5.377557273283919,0.0871274125235895
20.844996,5.402921186534245,0.0865316929170165
20.849592,5.428162915070425,0.0859498624753129
20.854188,5.447152743921698,0.0854663285503242
20.858784,5.459846531639436,0.0850305701480846
20.863376,5.473684123233113,0.0845710713943234
20.867968,5.484212487913119,0.0841717909146863
20.87256,5.501159078440804,0.0837224357600026
20.877156000000003,5.516717495664261,0.0833148244527135
20.881744,5.531132109011776,0.0829309721795891
20.88634,5.538884127083322,0.0826170692081044
20.890928,5.544226352688842,0.0823607083501705
20.895524,5.550590197456155,0.0820897554148416
20.900112,5.554255738880526,0.0818361932584997
20.904708000000003,5.557144030571394,0.0815817870725094
20.9093,5.558233453366967,0.0813389015314968
20.913892,5.561243929771979,0.0810790694648492
20.918484000000003,5.562455537281697,0.0808302981856166
20.923076,5.560846656734325,0.0806061918598343
20.92766,5.554496234520424,0.0804239461842169
20.93224,5.551455039220194,0.0801863933123525
20.936828,5.5446939214152255,0.0799772387630805
20.94142,5.536911184448466,0.0797813412780086
20.946012,5.538078650509556,0.0794841833265475
20.9506,5.541700050485298,0.0791873962162153
20.955192,5.547364688784628,0.0788664664604598
20.95978,5.558137422892924,0.0784808429205255
20.964376,5.560448692829953,0.0781625435317437
20.968956,5.561738343605188,0.0778556959284686
20.973556,5.566215036579949,0.0775033089057339
20.978144,5.573390032897655,0.0771352208347643
20.98274,5.578643975605918,0.0767848854534136
20.987324,5.584142287742473,0.0764188943870439
20.991924,5.594259956831413,0.0760233730557071
20.99652,5.604255441206209,0.0756384995864083
21.001112000000003,5.616049794476298,0.0752456824710462
21.005692,5.623879855813361,0.074896866515579
21.010288,5.634408220493366,0.0745366435498189
21.014888000000003,5.646080389049311,0.0741565053649699
21.01948,5.6614724801099925,0.0737493502908651
21.024068,5.667014933695176,0.0734399941184524
21.028656,5.676521679213389,0.0730907685458318
21.033244,5.686150609445746,0.0727341704123796
21.037844,5.690671443869135,0.0724412243200648
21.042432,5.693515594111374,0.072147612274458
21.047016000000003,5.696115374925323,0.0718722657250314
21.051608,5.698592971025124,0.0716071535710149
21.056188,5.70683372795325,0.0712949920854082
21.06078,5.718017157652612,0.0709559344438882
21.065372,5.726912979600097,0.0706577519019067
21.06996,5.736830420709374,0.0703493493276136
21.074556,5.748913284856384,0.0700112850944877
21.07914,5.760751779575102,0.0696896531543859
21.083732,5.7659276790178495,0.0694152152666408
21.088324,5.768283090403507,0.0691585562633585
21.092912,5.767695829017929,0.0689272081243662
21.097508,5.768907436527647,0.0686892969379969
21.102104,5.768442359856215,0.0684512484619668
21.106708,5.768510163489994,0.06823355607483
21.111292,5.770132466590775,0.0680256420937185
21.115892,5.77956116884347,0.0677525271748617
21.120484,5.790544370563168,0.0674924406635338
21.12508,5.802304822016368,0.0672379814074352
21.129664,5.815086892631364,0.0669736198060811
21.134264,5.834042819665747,0.0666983289633508
21.138856,5.849156639481247,0.0664503182762206
21.143448000000003,5.861083417097222,0.0662418558541358
21.148036,5.875586313341995,0.0660353530180232
21.152628,5.888045971263181,0.0658496147634296
21.157232,5.900505629184366,0.0656642636721224
21.161828,5.911166418210256,0.0654850164156611
21.16642,5.924525510579091,0.0653006761131037
21.171012,5.94160452545266,0.0651009937133672
21.1756,5.963425081992761,0.0648735718611676
21.180184,5.988965561037599,0.0646298720379728
21.184768,6.01949195117726,0.0643467668416675
21.18936,6.051162145192859,0.0640501151056603
21.193944,6.080666916170726,0.063780124902248
21.198528,6.10604106905279,0.0634996738082782
21.20312,6.131903960791438,0.0631938436472785
21.207696,6.157644667815938,0.0628991733485558
21.212284,6.175290464811607,0.0626246544549778
21.216884,6.193425000663861,0.0623241819948844
21.221472,6.210127221763255,0.0620077731366678
21.226064,6.217957283100317,0.061704647988739
21.23066,6.229996005798698,0.0613593245517062
21.235244,6.244566705677251,0.0609687386132741
21.239848,6.255661852479356,0.0605819813810731
21.24444,6.272231649232866,0.0601344931896798
21.249032,6.287902011538729,0.0596885500421403
21.253612,6.307414481063475,0.0592252040589455
21.258208,6.320508724740537,0.0587819483116474
21.262788,6.3284507311600064,0.0583365779330888
21.26738,6.334716053398325,0.0578880800512345
21.271972,6.343268983388522,0.0574150069675011
21.276564,6.349123610035775,0.0569491246822746
21.281144,6.351502683606583,0.0564822418830423
21.285736,6.3533488768721815,0.0559933348901762
21.29034,6.357893373480722,0.0554983130279307
21.294936,6.35884013229867,0.0550085360466056
21.299524,6.356555707468464,0.0545031084897571
21.304104,6.355048532371761,0.0539972721239067
21.308692,6.3484332614660905,0.0535282387381016
21.313292,6.341695805846274,0.0530648294384564
21.317876,6.341620945502429,0.0525736893455838
21.322468,6.336682358777908,0.0521064853928196
21.327064,6.327657295406214,0.0516680177735611
21.331652,6.3138906903679874,0.0512430603296102
21.336244,6.291706762607123,0.0508904358974999
21.340824,6.267968335379253,0.0505223059816795
21.345412,6.235768443980116,0.0501762320779579
21.35002,6.2025469334191845,0.0498332005377349
21.354608,6.166260565372875,0.049507313356879
21.359204,6.128830393450623,0.0491930130468201
