Time,Force,Position
20.327183999999995,3.8807462242170905,0.1543820227455087
20.331776,3.922629426928952,0.153634983395149
20.33636,3.965612292068124,0.1527634128678675
20.340952,4.006385592720936,0.1519329220302558
20.34556,4.035466245554326,0.1514263303053538
20.350148,4.065812886977799,0.1508643206030359
20.354735999999995,4.092273279733763,0.1503724998018085
20.359328,4.121876573240624,0.1496971353807553
20.363928,4.149514671689417,0.1490207945400095
20.36852,4.169546598965961,0.1485040592191924
20.373112,4.1847928431273465,0.1480629642847411
20.377708,4.1948868500311365,0.14772780859098
20.382288,4.202649107734419,0.1474208568211093
20.38688,4.212454603761289,0.14704554490876
20.391468,4.227856934453709,0.1464481003265683
20.396068,4.234919985689008,0.1460728864672948
20.400652,4.245947328857334,0.1455815075503577
20.405248,4.253376934235069,0.1451792788109299
20.409836,4.267835689031214,0.1445629339315103
20.414428,4.282294443827358,0.1439517019856029
20.419024,4.291645102814536,0.1435047388769003
20.423624,4.303938434572947,0.1429732056772177
20.428216,4.314022201844998,0.1424567637166897
20.432808,4.321529850488251,0.1419872359237217
20.437396,4.340441636074006,0.1412241117167932
20.441984,4.356777303030964,0.1405142602333404
20.44656,4.3681270588931,0.1399436794612939
20.451156,4.376534141984001,0.1394645526153607
20.455748,4.386862278684342,0.1389431799893382
20.460324,4.40127689203186,0.1383028554265688
20.46492,4.417246004846379,0.1376522042387893
20.469508,4.438611724346788,0.1368953970598202
20.4741,4.464474616085434,0.1360614343087955
20.478696,4.4876392044811375,0.1352816358274181
20.483284,4.505940066496164,0.1346321369952608
20.48788,4.528327405158365,0.1338630356964691
20.492468,4.546217571582327,0.1331901340879665
20.497056,4.562186684396848,0.1325611328628796
20.501652,4.572270451668898,0.132085736814427
20.506252,4.580555350045653,0.1316447329967397
20.510856,4.590106237012495,0.1311486945683729
20.515436,4.597980439798185,0.1306766760967063
20.520028,4.608797315355109,0.1301387449377282
20.524608,4.62088017950212,0.1295498105879887
20.529208,4.626544817801448,0.1290940935147582
20.533792,4.631554391081421,0.1286316646667061
20.538392,4.640772625722713,0.1280436504707821
20.542984,4.648969241202211,0.1274856282021262
20.54758,4.6516470652816775,0.1270354105578176
20.552168,4.651260031875763,0.1266679392819024
20.556764,4.649196314288699,0.1263206975798881
20.561352,4.644434293358691,0.1260213806199231
20.565948,4.63300967715271,0.1258618934846742
20.570536,4.623383929842025,0.1256712209277379
20.57512,4.615312681998345,0.1254718878855944
20.579708,4.604420946097576,0.1253284514845127
20.5843,4.591608156587365,0.1252266211459332
20.588888,4.581493670420097,0.1250783495833128
20.59348,4.575221291471713,0.1248459342836331
20.598076,4.569071097237474,0.1246014622155891
20.602656,4.5627987182890895,0.1243674925291062
20.607248,4.559879707703005,0.1240954779059288
20.611828,4.552629851041456,0.1239510984488914
20.61642,4.545135624951614,0.1238284507198859
20.621012,4.542260755814159,0.1236213263048024
20.625604,4.5381198980866175,0.1234611308353353
20.630204,4.537576778149669,0.1232442806172836
20.6348,4.535234789317423,0.1230553547441164
20.639392,4.535591103828121,0.122822205803395
20.643988,4.538645721681763,0.1225466443713669
20.648579999999995,4.542355404554761,0.1222784672257686
20.653172,4.545043468265966,0.1220355042830564
20.657764,4.551451454481908,0.1217227764544759
20.66236,4.560313374612504,0.1213923180150147
20.666952,4.569175294743096,0.1210618595755534
20.671552,4.580368964074198,0.1207211044556836
20.676136,4.5952825559100345,0.1203110966941581
20.68074,4.608519463564722,0.1199199204592941
20.685336,4.620079687038259,0.1195501870751615
20.689924,4.634216029140596,0.1191519611422389
20.69452,4.654115532071255,0.1186468229892154
20.699112,4.668618428316027,0.1182239645419196
20.7037,4.686430551474472,0.1177097258334672
20.708296,4.705142109080564,0.11718475236953
20.712888,4.717968321144186,0.1167854023586253
20.71748,4.734636640426691,0.1163132276623338
20.722068,4.744642364433224,0.1159663513108575
20.726652,4.759267445392143,0.1155466676902552
20.731232,4.774914145512856,0.1151062137957475
20.735828,4.787862542290623,0.1147057887597188
20.74042,4.8048974157155655,0.114220299297079
20.745008,4.824874961911742,0.1136806817296135
20.7496,4.845096877536212,0.1131257401895426
20.754188,4.864008663121966,0.1125620211536821
20.758784,4.885330241173746,0.1119301149820438
20.763368,4.906363308348605,0.111262795574153
20.767956,4.930216863580556,0.1105631780968994
20.772552,4.954070418812504,0.1098625488690376
20.777136,4.977024539596806,0.1091751819186569
20.781732,4.999445780075896,0.1084774635751279
20.786328,5.013405556383719,0.107910789361412
20.790924,5.032106874358073,0.1072713254440816
20.795516,5.046721715685252,0.1067156196667281
20.800108,5.058760438383634,0.1061817826822907
20.8047,5.069366846329156,0.1056327455252065
20.80928,5.07907381982703,0.1050993049313429
20.81388,5.091845650810287,0.104501786174453
20.818468,5.098976505679364,0.1039882920674137
20.823068,5.104308491653145,0.1034968252570527
20.827652,5.111805900664661,0.1029562681621492
20.83224,5.109820226343113,0.1025574926902883
20.83684,5.105791313697979,0.1022002287741526
20.841432,5.098941912995755,0.1018825627523686
20.846032,5.088905470094005,0.1016335431781615
20.850632,5.076703604154522,0.101432905682821
20.855228,5.065934052967899,0.1012411241062625
20.859824,5.049401340952951,0.1011353206142839
20.864404,5.035811301709238,0.1009803240485773
20.868988,5.021732523608943,0.1008631375812723
20.873576,5.006632126346853,0.1007630466614224
20.878172,4.996151086037149,0.1006062939732284
20.882764,4.982849557670357,0.1004859289002213
20.887352,4.971713452341296,0.1003179137565179
20.891948,4.965441073392912,0.100075183247386
20.896528,4.968529593063444,0.0997159921842752
20.901108,4.969819243838678,0.0993749246086711
20.905704,4.973685013242712,0.0990197908791869
20.910292,4.9844577473510085,0.0985602564694846
20.914884,4.994986112031015,0.0981180056879059
20.919472,5.003349053673287,0.0977219786669262
20.924072,5.019029655610888,0.0972451816017944
20.928668,5.03495462697678,0.0967512752121614
20.933256,5.057420008904498,0.0961864765394242
20.937848,5.084094052193536,0.0955449945651022
20.942436,5.111545345216077,0.0949080072945853
20.947036,5.138585942647554,0.0942507572796217
20.951624,5.167136898097405,0.0935379773734951
20.956224,5.194544049671317,0.0928602817681665
20.960812,5.22501605873061,0.0921341374103117
20.965412,5.252178840876232,0.0914728497563302
20.969996,5.277420569412411,0.0908381286654689
20.974588,5.303561732396239,0.0901965871681193
20.979175999999995,5.329580710665921,0.0895672057262127
20.983768,5.351391027574284,0.0890188821418172
20.98836,5.365639314759026,0.0885635335910753
20.992951999999995,5.378988167496121,0.088113848899258
20.99754,5.389638716890272,0.0876894689496504
21.002128,5.3953033551896015,0.0873388953387961
21.006716,5.4063204587261895,0.0868969369277965
21.011304,5.417459746976922,0.0864452933477561
21.015896,5.429209958798385,0.0859558415857926
21.020484,5.439816366743907,0.0854904228695654
21.02508,5.441961310518161,0.0851101260554869
21.029656,5.440019777645243,0.0847898295134771
21.034248,5.438444798914761,0.084445098799382
21.038836,5.437524885203636,0.0841134868783948
21.043424,5.437137851797721,0.0838013321492628
21.048016,5.433930330334718,0.0835147107365892
21.052604,5.428268874957062,0.0832287917382567
21.057192,5.426038831207222,0.0828736509035583
21.061788,5.4259742104951165,0.0824821144390659
21.066384,5.426809024230659,0.0820860098534095
21.070988,5.427643837966201,0.0816903108777808
21.07558,5.427823586682386,0.0812814636504057
21.080176,5.430946008169807,0.0808392736325371
21.084764,5.436888917714317,0.0803724139855121
21.089364,5.443853446420619,0.0798936464084984
21.093952,5.451062344555215,0.0793971855468279
21.098552,5.452141527719048,0.0789851803262525
21.103136,5.458983871711206,0.0785220893426375
21.10774,5.462516988789693,0.0781169328056732
21.112332,5.469114963353559,0.0776743078559644
21.116928,5.480454479583956,0.0771898817746948
21.121512,5.4938372341379385,0.076678802110444
21.126108,5.504399500634833,0.0761911762572581
21.130696,5.510342410179344,0.0757351558424071
21.135292,5.517184754171501,0.0752761776853032
21.13988,5.527091955649039,0.0747794523525154
21.144464,5.535855353250638,0.0743024529572605
21.149056,5.548338673356975,0.0738058550263355
21.153644,5.563642481520399,0.0732961060730942
21.158232,5.576370171055029,0.072791056287083
21.162824,5.590119479751449,0.0722764512457703
21.167416,5.610775753152133,0.0717012619444744
21.171996,5.626446115457994,0.0711751981779906
21.176592,5.644159716087443,0.0706325843046483
21.18118,5.6591750133739485,0.0701017671963942
21.185768,5.675211929822248,0.0695609718050735
21.190376,5.691248846270547,0.0690170143445919
21.194956,5.7005009827287285,0.0685327098926369
21.199568,5.7101196733293484,0.0680243890689357
21.204148,5.715896256711084,0.0675459725558534
21.208736,5.7206512209310265,0.0670801654283113
21.213332,5.725284000436822,0.0666229575804974
21.217924,5.728650791352535,0.0661890158433921
21.22252,5.736636939220631,0.0657322073608853
21.227108,5.742824218193432,0.0652821533102697
21.231708,5.74798987800444,0.0648447498328291
21.236288,5.755976025872537,0.06439127793637
21.240888,5.757299578464662,0.0639820887887729
21.245476,5.750816731904875,0.0636329349521195
21.250076,5.747032188688031,0.0632755521684486
21.254672,5.74157096129004,0.0629155725631882
21.259268,5.725238477254756,0.0626426575300751
21.26386,5.7128702851525,0.0623351636775516
21.268456,5.695638366669567,0.0620617963143408
21.273048,5.681226936243723,0.0617726075473769
21.277644,5.6638728330466455,0.0615031867918339
21.282232,5.651504640944389,0.0611921777931204
21.286832,5.64117968716572,0.0608604958357098
21.29142,5.633553036729994,0.0605230267041083
21.296004,5.625926386294268,0.060183389656314
21.300596,5.616623051677393,0.0598385605799245
21.305192,5.608341336222311,0.0594845798585864
21.309784,5.6060671510238445,0.0590820169300884
21.314376,5.600073043320641,0.0586939411185353
21.318972,5.595999989226879,0.0582951156851602
21.323552,5.592704184866619,0.0579031164592064
21.328144,5.58965274993465,0.0574976186484255
21.332732,5.590199052793272,0.0570855292186977
21.337324,5.593810213137275,0.0566435820974215
21.341932,5.596521939033631,0.0562044997576734
21.346512,5.595924438016314,0.0558041152576801
21.3511,5.604932205046205,0.0553520613978665
21.355688,5.614839406523744,0.0549008777792275
21.36028,5.624624423287136,0.0544550439690847
21.364884,5.632366201726943,0.0540279883639851
21.369476,5.643583533243194,0.0536035137708929
21.374072,5.650958757540562,0.0532013471112625
21.37866,5.655513493780841,0.0528084114087786
21.38326,5.65418288447865,0.0524502186422661
21.387848,5.653873894338253,0.0520821991047889
21.392448,5.6562632075408,0.0517119178303014
21.397036,5.655954217400402,0.05134362840232
21.401644,5.651680935326976,0.0510018890911282
21.406236,5.6454865996441095,0.0506655324612038
21.410832,5.634428537580566,0.0503528045174447
21.415424,5.618873303278783,0.0500402987416728
21.42002,5.596166734844446,0.0497815795533673
21.424608,5.5716612975148125,0.0495224453071733
21.429204,5.547033675471035,0.0492687669436695
21.433792,5.519341195941878,0.0490369257409141
