Time,Force,Position
19.929564,2.2768134985983,0.1729849102299691
19.934152,2.3997584375475944,0.1711921644610928
19.93874,2.5215934744378394,0.1693483391545745
19.943336,2.637122230562811,0.1676188549356744
19.947924,2.750553367283828,0.1655255045993825
19.952528,2.849539171762113,0.1639807369042795
19.957116,2.945239411511875,0.162068758735499
19.961704,3.030424709135045,0.1605462345634873
19.966296,3.1090593565646496,0.159058272929765
19.970896,3.180121734638896,0.157682713506202
19.975492,3.243611843357784,0.1564458156728454
19.98008,3.300673486597252,0.1552343191906707
19.98468,3.3435783084709065,0.1542063006962827
19.989268,3.3764127856259223,0.1532010762048142
19.993868,3.398443809777425,0.1523231746539489
19.998456,3.415234313774076,0.1514627126144054
20.003056,3.4285934061429093,0.1508025163474525
20.007652,3.4463274860358366,0.150034969676523
20.012244,3.455966655899932,0.1495091443542533
20.016828,3.4729234860593574,0.1487475638848226
20.021424,3.4880814473234865,0.1480292794342059
20.026012,3.4971435954337435,0.1473869845349557
20.030608,3.5014200604288424,0.1468328703066595
20.035184,3.5056965254239407,0.1462830893608971
20.039772,3.507929752095452,0.1458236632160933
20.04436,3.512372543253324,0.1453472258990374
20.04896,3.5127288577640225,0.1450359818865354
20.053548,3.5129188461119467,0.1446563969972405
20.05814,3.509633281383426,0.1443614059158328
20.062736,3.5076137052449887,0.1439964297781035
20.071924,3.484730571016139,0.143883122682326
20.076504,3.4791132570871115,0.1436151805083279
20.159168,3.2493895370610333,0.1436051574184516
20.17296,3.223153034469884,0.1435396935539529
20.177548,3.2175018187239663,0.143445943171591
20.182136,3.2152039713403493,0.1432806137626051
20.186724,3.2100856358996426,0.1432098484547827
20.191312,3.2040678660112887,0.1431650451365658
20.1959,3.197272846389432,0.1431276266799485
20.200496,3.194197749272312,0.1429707767115115
20.205088,3.1912448368693385,0.1427977901386789
20.209684,3.1884141091805107,0.1426091018305842
20.214276,3.1890589345681284,0.142338676004774
20.218868,3.193545867174629,0.141935243668592
20.22346,3.2034294064670163,0.1413780425073555
20.228052,3.2170328682641407,0.1407046321819408
20.232648,3.232435198956561,0.1399952667234299
20.237244,3.254744494353245,0.1390496835105378
20.241832,3.2728451283886093,0.1382835183132797
20.246428,3.2953207499480666,0.137413194102081
20.251016,3.3195952404028195,0.1365059762384604
20.255604,3.3459129691811604,0.1355404793162579
20.2602,3.3737410559778764,0.1344928700041528
20.264792,3.3997702738792976,0.1335054309070322
20.269396,3.4226124495811923,0.1326444033463521
20.273976,3.4455768099972324,0.1317694924883174
20.278572,3.4721389082038643,0.1308087169657865
20.28316,3.500377690591645,0.1298203270835844
20.28776,3.5283721035511357,0.1288739795928576
20.292348,3.557021581529982,0.1279516108141239
20.296948,3.583627821185242,0.1271047044389985
20.301532,3.608435191945206,0.1263029060379199
20.306128,3.6285010210386393,0.12563885584922
20.310708,3.648689034846219,0.1249690642289641
20.315304,3.6701430372438826,0.1242533694119138
20.319892,3.692863028231632,0.1234959985633445
20.324488,3.713006900590582,0.1227935384641629
20.329076,3.726365992959416,0.122286421459723
20.33366,3.742912127527775,0.1216686521665815
20.338248,3.757659393200839,0.1210931669545039
20.342848,3.7735504627498417,0.1204864631095774
20.347436,3.785721609794108,0.1199683218482583
20.352032,3.7927846610294074,0.1196024006155511
20.356624,3.801280027017564,0.1192454531306557
20.361212,3.814639119386397,0.1187666210272145
20.365812,3.828120396469376,0.1182763933749137
20.370388,3.840946608532999,0.1177838793151625
20.374984,3.853117755577264,0.1172842635792716
20.379568,3.8625905992785863,0.116831543936292
20.384148,3.868710074617609,0.1164180093354809
20.388736,3.878916026603806,0.1158931853770341
20.393324,3.8901435977517953,0.1153394696138936
20.397912,3.9017377230422223,0.1147399218732495
20.402508,3.913209663618504,0.11415889173448
20.407088,3.9190406280806074,0.1136999945806431
20.411684,3.9219289197714735,0.1133181785417074
20.416276,3.923018342567047,0.1129655859673419
20.420876,3.927050438133854,0.1125411534786883
20.42546,3.933658652329459,0.1120922624076793
20.430052,3.942432289562797,0.1115811749741793
20.434644,3.94544276596781,0.111194737465586
20.43924,3.949352676820472,0.1107934669354426
20.443828,3.956083075730223,0.1103325482224968
20.448424,3.957539052668232,0.1099439807344511
20.453028,3.958095595158593,0.1095749648793265
20.45762,3.958407768220663,0.1092312278704161
20.462208,3.953734030187912,0.1090069323718587
20.466796,3.949837541888662,0.1087811966423161
20.471388,3.947739922484708,0.1085262832819921
20.475976,3.949240040871346,0.1082150755219063
20.480564,3.944732629001368,0.1080509372183272
20.48516,3.938181978807802,0.1079394631362763
20.489752,3.9343296319571808,0.1077853382028316
20.494332,3.930599469820705,0.1076189122042935
20.498932,3.930589230188966,0.107384121602547
20.531052,3.872740097584257,0.1073476894027585
20.535644,3.8662335888393207,0.1073054849601397
20.54024,3.8662674906562096,0.1071446364878296
20.54484,3.862459285254216,0.1070619571521064
20.54942,3.8596726990140167,0.1069536180580019
20.55402,3.865591946373376,0.1066660365790568
20.5586,3.865870217618556,0.106479711250485
20.5632,3.8645939893967327,0.1062941399540658
20.567792,3.862418326727261,0.1061227909384022
20.572392,3.8669052593337616,0.1058240912609716
20.576988,3.8780547872162345,0.1054028932084987
20.581584,3.891125368708148,0.1049524101897512
20.586164,3.903052146324123,0.1045408052032722
20.59076,3.916655608121247,0.1041238288816488
20.595348,3.932057938813668,0.103677209276804
20.599944,3.950891681133906,0.1031248214067352
20.604532,3.9756107689966136,0.1024640223788419
20.60912,4.003272529630556,0.1017434423206257
20.6137,4.036042386073467,0.1009017492264917
20.618284,4.065747385030996,0.1001327352636113
20.622876,4.092876265359728,0.0993880061379673
20.627464,4.115141419307784,0.0987485535071612
20.632064,4.134708269912895,0.0981519004412838
20.636652,4.158361597165181,0.0974671975647223
20.641236,4.1804604249504616,0.0967845507255583
20.645828,4.194875038297979,0.096241108600703
20.65042,4.221060342730435,0.0954867373929746
20.655024,4.251865004115276,0.0946759342451259
20.659612,4.282669665500117,0.0938743981747155
20.66422,4.309221524075009,0.0931134546277196
20.668808,4.330376775964014,0.092423834707293
20.673392,4.348711539795931,0.0917821901598102
20.677992,4.36753504248443,0.091099380752255
20.682584,4.381983557648836,0.0904543759953646
20.687188,4.399619115012768,0.0897433090313595
20.691784,4.414311999605465,0.0890853892618698
20.69638,4.421442854474542,0.0885328151736188
20.700968,4.426774840448323,0.0879981154295496
20.70556,4.430185772812664,0.0874939127017345
20.71014,4.4396042354336185,0.086892983017225
20.714744,4.454541489454607,0.0862396300586521
20.719328,4.470622547351535,0.0855581859724743
20.723916,4.486947974676754,0.0848592905125567
20.728508,4.50225178284018,0.0841870073013017
20.733104,4.522052763241844,0.0834868482324927
20.737692,4.544918601128888,0.0827310542538724
20.742284,4.556013747930995,0.0821484068324904
20.746864,4.562489537780715,0.0816130771102267
20.751452,4.571008565954021,0.0810509646504698
20.75604,4.5773621710895975,0.0805288241071733
20.760636,4.58347140679688,0.0800256949286537
20.765228,4.589580642504163,0.0795236431800342
20.76982,4.595445508783156,0.0790432255129371
20.774416,4.604008678405092,0.0785441680117567
20.778992,4.607708121646352,0.0781062666689463
20.783588,4.613328618497053,0.0776473538438501
20.788168,4.620870168957195,0.077163091539675
20.792756,4.629433338579131,0.0766632337696446
20.797348,4.638118692915212,0.0761549742922757
20.801936,4.642961940032411,0.0756959206111709
20.80654,4.644329634073164,0.0752538858922238
20.811132,4.645575143399771,0.0748223180850703
20.81572,4.645676848850439,0.0744153411271578
20.820316,4.643857500691665,0.0740286882719189
20.824908,4.636641545847004,0.0736730793397118
20.829512,4.628403971840551,0.07333098769231
20.8341,4.629116600861948,0.0728781818709209
20.838700000000003,4.635592390711668,0.0723720332004378
20.843276000000003,4.637326638894858,0.0719096454358615
20.84788,4.643802428744578,0.0714061258090736
20.852468,4.6523214569178855,0.0708760638133093
20.857068,4.659041616195898,0.0703535862432621
20.861652,4.662941287416821,0.0698510069660048
20.866244,4.666185893618386,0.0693358057355622
20.870844,4.675970910381779,0.0687753111550016
20.875436,4.685755927145172,0.0682191576175769
20.880032,4.695540943908564,0.0676620776315391
20.884624,4.70634757983375,0.0670954327496331
20.889212,4.714988792721204,0.0665630471663896
20.893808,4.721586767285071,0.0660557676549207
20.898396,4.72896199158244,0.0655572185698908
20.902992,4.7355599661463055,0.0650530896597365
20.907580000000003,4.743956809605467,0.0645433727221329
20.912168,4.752231468350484,0.0640418309651902
20.916764,4.763981680171945,0.0635382726470198
20.92134,4.779573999212289,0.0630080795172249
20.92594,4.787237734386578,0.0625596247010795
20.93052,4.789671189037752,0.0621839268839135
20.9351,4.792881893422429,0.0618128733626488
20.939708000000003,4.796214782521252,0.0614366814415272
20.944296,4.800569290781867,0.0610522630220865
20.948904,4.809665340709015,0.0606398305706686
20.953492,4.826445605073927,0.0601767401195506
20.95808,4.8420820655629,0.0597352551357907
20.962664,4.851422484918338,0.0593115690683502
20.967256,4.857820231502541,0.0589118567556859
20.971852,4.86626121641033,0.0584920038178098
20.97644,4.873558397442181,0.0580938281576081
20.98104,4.884942055121207,0.0576545999685767
20.985616,4.900290004733261,0.0571840281268963
20.990216,4.911795847126431,0.0567371708942364
20.994804,4.923057320091311,0.0563074054178438
20.999404,4.934563162484481,0.0558637006506664
21.004,4.946191189591797,0.0554105166987924
21.008592,4.954099294194377,0.0549724107782376
21.01318,4.960985779635163,0.0545499062283759
21.017772,4.9724916220283335,0.0541105717413746
21.022372,4.984730572706378,0.053618826115041
21.026972,4.995170654489126,0.0531263280271866
21.031564000000003,4.999725390729406,0.052674602336909
21.036156,5.000071465608365,0.0522710729148072
21.04074,4.995553814106649,0.0518993988577699
21.045328,4.983351948167166,0.0515699566184404
21.049908,4.970905712799392,0.0512563642215279
21.054484,4.964633333851007,0.0509464426615196
21.059072,4.96040419322621,0.0506167669052702
21.06366,4.955930683173122,0.0503054522761367
21.068252,4.950557738672385,0.0499940466078474
21.07284,4.943918805581564,0.0497101066086428
21.077424,4.933848460862925,0.0494784645932723
21.082036,4.924677550591933,0.049244182294989
21.086624,4.917305509216238,0.0490090976066288
21.091232,4.9058469911933695,0.0488080176647598
