Time,Force,Position
21.481412,3.461568009110167,0.1288276491297554
21.485996,3.4485549916202936,0.1288132477026832
21.490584,3.439916961654513,0.1287103793960828
21.495172,3.4343879306227416,0.1285853810919093
21.499768,3.4350327560103597,0.1283357552523075
21.504356,3.442462361388095,0.1278919584847775
21.508952,3.454022584861632,0.1273917082020244
21.513540000000003,3.468158926963968,0.1268509810429821
21.51812,3.4819287149238662,0.1263501281842366
21.522712,3.4990518712460643,0.1257992456327812
21.5273,3.516952277301765,0.1252463818598994
21.531896,3.528434457509785,0.1248528573081508
21.536484,3.54453599467019,0.1243542819359254
21.541072,3.560148792974012,0.1239139350098582
21.545668,3.5746177874018947,0.1235203286715687
21.550268,3.5949721273722477,0.1229725991738513
21.55486,3.6161037170761023,0.1224142731706732
21.559448,3.6442644561983673,0.1216498120843235
21.564044,3.671647945587129,0.1208903783316532
21.568632,3.6983763699565344,0.1201269729163917
21.573232,3.723305925430645,0.1194023156728977
21.577816,3.7466809814377497,0.1186858104696609
21.582416,3.7674799188160577,0.1180223988821214
21.587008,3.785947106993859,0.117368586640755
21.5916,3.7982404387522704,0.1168272033493798
21.596196000000003,3.805014979110649,0.1164073565479431
21.600788,3.811623193306255,0.1159288510524922
21.605384,3.814878039139559,0.1154901843618868
21.609968,3.819521058277094,0.1149809721940487
21.614556,3.821177263194768,0.1144704376169804
21.619148,3.8187028500166376,0.1139974755197425
21.62374,3.815084632962568,0.1135632185902595
21.628332,3.806069809222613,0.1132272814910406
21.63292,3.796644289891591,0.1128523772863746
21.637516,3.790405812760096,0.1123744937526729
21.642108,3.7772603709243375,0.112075883237118
21.646696,3.766280352126312,0.1117048462048217
21.651288,3.749292803071671,0.1114912633498506
21.65588,3.73398193819818,0.1112589659563759
21.660472,3.719692692486482,0.1109962409406878
21.66506,3.7073245003842255,0.1106895497377916
21.669648,3.695322862424408,0.1103412639468079
21.674256,3.6822996053027945,0.1100188691141689
21.678844,3.67324064011421,0.1095972291409077
21.683436,3.666757793554424,0.1091427318043258
21.688028,3.662073815889933,0.1086572358595157
21.692616,3.6540806113117705,0.108279798352778
21.697208,3.650584578971847,0.1078315207629854
21.7018,3.647987981079572,0.1073705039615788
21.706396,3.647723132387803,0.1069066240900357
21.710984,3.654409389848925,0.106360363940435
21.715584,3.664693385100639,0.1057558254981488
21.720172,3.678330748714653,0.1051194080091536
21.724776,3.6955658501192574,0.104436777434695
21.72936,3.7094917246101926,0.1038638558862473
21.73396,3.727259706320009,0.1032130152863396
21.738544,3.745560568335036,0.1025964641285109
21.74314,3.76590466867365,0.1019253002951301
21.747748,3.7862487690122646,0.1012605120725597
21.75234,3.8071257496560897,0.1006304264602035
21.756944,3.826081676690473,0.1000407881080716
21.76154,3.850067656268307,0.099427330653547
21.766128,3.876507569760794,0.098806518991563
21.77072,3.900293321358963,0.0983035231973571
21.775308,3.925755757138284,0.0977939848087135
21.7799,3.949052769879872,0.0973421101959344
21.784488,3.976069705126197,0.0968317186200915
21.78908,3.999777413458849,0.0964240414235373
21.793668,4.023118567649065,0.0960585200179723
21.798256,4.048258590734577,0.0956783764982556
21.802848,4.07478678712432,0.0952595109495229
21.807436,4.10053773378056,0.0948418774008739
21.812028,4.125389245989152,0.0944361674948048
21.816624,4.148075335160011,0.0940934452465042
21.821212,4.174725716263898,0.093679868705166
21.825816,4.200110108777702,0.0933155186432091
21.830404,4.221896763500913,0.0929903639298576
21.835008,4.246259536852922,0.0926532657126895
21.839596,4.269722875757283,0.092328410131854
21.844196,4.290976650175284,0.0919911020707012
21.848788000000003,4.314151478202726,0.0916260984330651
21.853388,4.332951318706075,0.0913034486872774
21.857992,4.350074475028275,0.0909903295872007
21.86258,4.37062904297829,0.0905901882801941
21.867176,4.389751296175447,0.0901793034242502
21.871752,4.412960026019779,0.0896923927669222
21.876352,4.433470452521167,0.0892337873857083
21.880932,4.4538145528597815,0.0887192857739185
21.885532,4.473747957607331,0.0881744492074897
21.89012,4.488529125097284,0.087660225140339
21.89472,4.493827209254176,0.0872716277210882
21.899312,4.500513466715299,0.086835410590606
21.903904,4.5098538860707365,0.0863148457447028
21.908504,4.516207491206312,0.0857716889541373
21.9131,4.517531043798436,0.0852437201237465
21.917696,4.517011586046637,0.0846646092241634
21.922284,4.520045724636802,0.0839912181292847
21.926872,4.517150376235867,0.0833360256183682
21.931468,4.512944897796221,0.0826513306446227
21.936056,4.507839984908927,0.0819702295924052
21.940644,4.500403322821125,0.0812772649233074
21.945232,4.488836042637522,0.0805798076462275
21.949828,4.475181382681703,0.0798452038444406
21.95442,4.454209062430557,0.079169041015924
21.959008,4.431926612140697,0.0784579807355223
21.9636,4.405391359040889,0.0777523296490675
21.968188,4.380366463959456,0.0769842948551725
21.972784,4.35354269998273,0.0762196866102377
21.977368,4.324020632663058,0.0754648433649272
21.981956,4.29666398838112,0.0746577738854746
21.986568,4.270573332689266,0.0737982296928044
21.991156,4.24346105783562,0.0729525146596539
21.995744,4.209564002991854,0.0721771079181032
22.000332,4.176444197881591,0.0713953296119789
22.00492,4.143979457790686,0.0706187123908244
22.009516,4.110004359681404,0.0698907329724637
22.014096,4.073863838534389,0.069197150100408
22.018696,4.041076685749673,0.06849806776369
22.023284,4.009066782698461,0.067795922398214
22.02788,3.9759130757713095,0.0671101904403056
22.032464,3.945335487472956,0.0664155006019277
22.037064,3.919665767003907,0.0657316108830374
22.041652,3.896083426307072,0.0650837082394451
22.046248,3.87609882340083,0.0644096603265281
22.05084,3.858978850000304,0.0637843569818652
22.055436,3.844312810514431,0.063164265524956
22.060032,3.82453867521959,0.0626100379663859
22.064632,3.811960015505931,0.0620283779096541
22.06922,3.802612539440428,0.0614638307233503
22.073816,3.793553574251844,0.0609499326192849
22.078404000000003,3.789646846320855,0.0604376513073705
22.082988,3.787294617856871,0.0599444056122169
22.087576,3.792015680259924,0.0594386094443211
22.092172,3.801888979920573,0.058943361990022
22.096764,3.819979374324198,0.0584246234310224
22.101352,3.8447323640037943,0.0578618881943257
22.105944,3.872838722045692,0.0573196242723279
22.110536,3.9037655681446783,0.0567691358947654
22.115128,3.937024163444171,0.0562507692069376
22.119716,3.976578799877199,0.0557247860701651
22.124304,4.016544131901291,0.0552475189249705
22.128912,4.056387279211239,0.0547842061052188
22.1335,4.099173099292422,0.0543034250922051
22.138112,4.147355526059491,0.0538257004880865
22.1427,4.195782322254852,0.0533375412745731
22.147288,4.247440302098367,0.0528828420157066
22.151884,4.308092626418361,0.0524181840452664
22.156472,4.3601613018529415,0.0520113076423194
22.161068,4.407610620335136,0.051618341047364
22.16566,4.456081557979125,0.0512189463969514
22.170256,4.503653061175466,0.0508281756425053
22.174836,4.54750464186707,0.0504542392475793
22.179432,4.586614680892143,0.0501068553801342
22.18402,4.617263255745947,0.0497955861873105
22.188616,4.636385508943105,0.0495530723261545
22.193204,4.647701362988352,0.0493646519365816
22.197788,4.652476806471772,0.0491991457865877
