Time,Force,Position
19.981528,4.124839991543964,0.1264577962136965
19.986112,4.095172077324997,0.1264035243290716
19.990712,4.070900769791916,0.1262542893609713
19.995296,4.052270438373014,0.1259806925916724
19.999888,4.042590309981963,0.1254722792978901
20.004488,4.032421442734329,0.1250130015835923
20.009076,4.022008206058403,0.1245741600210372
20.013664,4.012127849687689,0.1241553810013885
20.018256,4.00265818890804,0.1237666093029825
20.022844,3.996908450633128,0.1232953513663032
20.027436,3.994267711292224,0.122806533663434
20.032024,3.9902387986470895,0.1223837687857616
20.036616,3.9945491654590777,0.1217909718033602
20.041208,4.001680020328155,0.121141559258099
20.045796,4.011875732682612,0.1203983272262902
20.05038,4.020272576141775,0.1196942230158217
20.054956,4.030468288496232,0.1189470487766594
20.059548,4.035555905041722,0.1183489435583174
20.064136,4.045262878539597,0.117664390753788
20.068724,4.058689774542208,0.1169036822270456
20.073324,4.070073432221234,0.1161974214666755
20.077916,4.074550125195995,0.115659479190054
20.082504,4.080048437332549,0.1150965046484692
20.087096,4.083381326431372,0.114605599531049
20.091676,4.085570411654255,0.1141594406684528
20.096268,4.086082812695988,0.1137310211608319
20.100856,4.091336755404253,0.1132056354081159
20.105456,4.096057817807306,0.1126615184474446
20.110044,4.103066487962237,0.1120388474964478
20.114648,4.111874027012464,0.1113905291069022
20.119232,4.118105447433893,0.1107716202566999
20.123824,4.125969410587845,0.1100667292776093
20.128408,4.129580570931848,0.1094175137377192
20.133,4.126773505428172,0.1088698433900342
20.137588,4.1239664399244935,0.1083204438631363
20.142172,4.1135973446971965,0.1079062925567341
20.14676,4.1046164227741295,0.1074269380511039
20.151352,4.095757685565209,0.106931515309242
20.155932,4.081502341670401,0.106514591118202
20.160528,4.067491367203885,0.10607188288411
20.165112,4.052947512432156,0.1056012192772925
20.169704,4.046454426240631,0.1049382124630519
20.174296,4.031622060591984,0.1044102480194584
20.178884,4.018177868247568,0.1038185930597112
20.183476,4.004855860617297,0.1032148217685171
20.188064,3.99141166827288,0.1026203219614138
20.192652,3.973470303690224,0.1020857453924687
20.19726,3.953363516069836,0.1016087244293398
20.201848,3.9328901743070106,0.1011661526803619
20.206444,3.9077974755918,0.1007933096801591
20.211036,3.883604211324237,0.1004052805479255
20.215616,3.8586778387718,0.1000876284596643
20.220216,3.829298435429753,0.0999026648454277
20.224804,3.806870138240596,0.0996429401599585
20.229404,3.783053667747209,0.0994448157035191
20.233988,3.7723180183774754,0.0990229929457886
20.238588,3.7664902368370448,0.0985813359349737
20.243164,3.76581469255421,0.0980963415747292
20.247764,3.76812596249124,0.0976248509531714
20.252356,3.770725743305188,0.0972076905548659
20.256952,3.775290719177206,0.0968274351444811
20.261536,3.7760577292789694,0.096593988894687
20.266128,3.793014559438395,0.0961636874801512
20.270728,3.809360466027091,0.0957996713074665
20.27532,3.825994883492708,0.095490244135291
20.279904,3.846104854034769,0.0951551296273352
20.2845,3.872144311567928,0.094786772337392
20.289088,3.900271148873303,0.0944441729981685
20.293672,3.930729735379184,0.0941095732201078
20.29826,3.968794493057313,0.0937309959801552
20.302852,4.0149541607642725,0.0932799071545193
20.307444,4.062912697366529,0.0928131215368427
20.312032,4.118066709549967,0.0922628022412612
20.316624,4.17195473314332,0.091767794126921
20.321212,4.233282601746149,0.0911807875910093
20.325796,4.289380189825863,0.0907303182083932
20.330388,4.339714617077252,0.0903752978346744
20.334976,4.386329121823906,0.09007546721007
20.33958,4.436907918503588,0.0897189658624741
20.344164,4.485321292145536,0.0894116025422105
20.348764,4.53782114243466,0.0890334865421197
20.35336,4.590931916294511,0.0886005807298599
20.357956,4.633493846210881,0.0882658175608092
20.362552,4.673479657498451,0.0879448121883914
20.36714,4.7121553387473085,0.0876031884928288
20.371736,4.746211663043781,0.0873141208391089
20.376324,4.776914618977953,0.0870420519092137
20.38092,4.808472867911146,0.0867017975130812
20.385508,4.8372886720527655,0.0863259836090272
20.390108,4.859642108898077,0.0859536071392098
20.394696,4.870302897923967,0.0856809492340565
20.399292,4.876833068854056,0.0854146930612599
20.403884,4.877678122221337,0.0851499050907639
20.408476,4.875003481063544,0.0848411147701395
20.413064,4.863945419,0.0845527062746849
20.41766,4.851288716020824,0.0841952392630939
20.422256,4.837688437145374,0.0837797919598768
20.426856,4.823677462678857,0.0833303191619292
20.431448,4.8018159476118,0.0829195867245661
20.436048,4.7775785418956085,0.0824329090839398
20.440628,4.746634399454818,0.0819545871259377
20.445212,4.713236323099375,0.0814706777253324
20.4498,4.67599613952505,0.0810261541362951
20.454396,4.64194299815025,0.0805181309723284
20.458988,4.602248880661272,0.0800628147504138
20.463576,4.5658639900859646,0.0795338687694788
20.468172,4.528946219205447,0.0789754721974893
20.472756,4.488430710534339,0.0784344030106015
20.477348,4.447793017149086,0.0778955182218531
20.48194,4.409731442392629,0.077342478181222
20.486516,4.375389790140909,0.0767487328088676
20.491108,4.344645875679782,0.0761269110903227
20.495688,4.3173775142951,0.07548743242926
20.500284,4.290397663787338,0.074885884168166
20.50488,4.268447865823026,0.0742767092735877
20.509468,4.247563828469136,0.0737139221914073
20.514068,4.232076397801132,0.073117270968686
20.518656,4.218387836028423,0.0725092196620895
20.523256,4.207930457903869,0.0719071034586915
20.52784,4.203158197342123,0.0713209334279772
20.53244,4.204071054343181,0.0707523886594739
20.537028,4.211402137191922,0.070145263520837
20.541624,4.228993553107226,0.069459417798798
20.546216,4.244297361270651,0.0688262032456914
20.550808,4.267041014443551,0.0681343372493065
20.5554,4.288518679026366,0.0674836898876196
20.559984,4.312328092809686,0.0668574485597796
20.564588,4.34333298217419,0.0662091807788359
20.56918,4.37781342461514,0.0655652940043779
20.57376,4.416013789560827,0.0649102706123015
20.578352,4.458833511458898,0.0642404219003798
20.58294,4.501775418071115,0.0635717776608914
20.587532,4.548681616616361,0.062881714675645
20.59212,4.604293648761166,0.0621347793158941
20.596712,4.66272616896306,0.0613916123256961
20.601304,4.728965088316865,0.0606050358614072
20.605884,4.792016965471144,0.0598760311305541
20.610476,4.852003985140042,0.0591862076606099
20.615072,4.916976915903763,0.0584650579764066
20.61966,4.979373728038685,0.0577527506474837
20.624264,5.037395552649515,0.0570469793969151
20.628852,5.092474704489108,0.0563808119335344
20.633444,5.143956118538111,0.0557379436837265
20.638032,5.198502390072495,0.0550713787310336
20.64262,5.2539480960545255,0.0544163083383717
20.647212,5.306817683407759,0.0537582879067192
20.6518,5.355190098522752,0.0531094402590781
20.656396,5.392280561409388,0.0525095556664472
20.660976,5.422053364000696,0.0519279819658816
20.665572,5.4433647024207374,0.0513820285175362
20.670152,5.456336761383656,0.0508619979925745
20.674748,5.460480802032871,0.0503934767410915
20.67934,5.452976336311291,0.0499911379455913
20.683936,5.432024495323621,0.0496553258850142
