Time,Force,Position
21.578004,3.775153668320588,0.1254894136038595
21.582584,3.7813716661886048,0.1254568302940592
21.58718,3.785380099570261,0.1254228570515292
21.591772,3.791387629826877,0.1252518362521046
21.596364,3.796695953615507,0.1249957963736409
21.600956,3.8070682317644775,0.1245153814519992
21.605548,3.816130379874735,0.124014008069166
21.610136,3.827313809574097,0.1233616080600494
21.614728,3.8359991639101785,0.122663885390883
21.619308,3.845661995959425,0.1218522679371634
21.623892,3.8502947754652217,0.121100960223897
21.628476,3.852595805770512,0.1203608176146663
21.633064,3.852931641017732,0.1195950172416114
21.637656,3.850036292616799,0.1188537602574741
21.64224,3.846075183605444,0.1180596533180523
21.646836,3.835285153155342,0.1173588437368583
21.651412,3.8203645046094383,0.1166944227226445
21.656,3.807853648529559,0.1159227452092786
21.660604,3.796364411611474,0.1151070538524167
21.665192,3.7838535555315937,0.1143226691417428
21.669788,3.76222617026109,0.1137194874048356
21.674368,3.736634493057558,0.1132207898723354
21.678952,3.7150071077870552,0.1126078925744193
21.68356,3.691336484192964,0.1120504421979067
21.68816,3.668076556189939,0.1115272458960097
21.692764,3.636399305464274,0.1112674057414521
21.697356,3.607542542795699,0.1109384224313476
21.70196,3.576153802946953,0.1107194736311433
21.706544,3.54415413952748,0.1105636363360483
21.711144,3.5115435525372773,0.1104759656494925
21.715732000000003,3.4840852028046707,0.1103173771039052
21.720328,3.460513101739576,0.1101453615117174
21.724916,3.434941903799521,0.1101147234616614
21.729516,3.4150558234222737,0.110039306895914
21.734108,3.3998332414460397,0.1099506521893542
21.7387,3.3872309195472297,0.1099114808278202
21.743292,3.381990399392378,0.1098136811011527
21.747888,3.3794923240290973,0.1097506451446996
21.752472,3.3866436581616512,0.1095477752990933
21.757060000000003,3.395105122332919,0.1093718885658554
21.76164,3.4100289538004955,0.1091518804190374
21.766232,3.4296162836690853,0.1089207597028237
21.770816,3.4461828975009223,0.1088614387780284
21.775408,3.4647147063908283,0.1088398560433685
21.78,3.4874993180906837,0.1087750873911249
21.784596,3.519522643695307,0.1085306616449843
21.789188000000003,3.5553100332532974,0.1083095743063002
21.793776,3.5963718447830284,0.1080172693355158
21.798368,3.640542655246768,0.1077217862895271
21.802952,3.68998788768225,0.107355841455059
21.807536,3.73918875068944,0.1070273394740532
21.812136,3.786590744801333,0.1067336804231984
21.816724,3.840777518903345,0.1062941042289915
21.821316000000003,3.893287608824208,0.1058848039386306
21.825908,3.943876645135629,0.1055206609329877
21.830496,3.998796527522514,0.1050381647840741
21.835092000000003,4.053305714318334,0.1045392275123195
21.839668,4.1071598360948,0.1040390592565527
21.844268,4.155617351185376,0.1036335820847731
21.848856,4.201376562933009,0.1032636783917183
21.853452,4.25003430600325,0.1027788430822468
21.858040000000003,4.300691145948449,0.102196792873591
21.862628,4.352203278892668,0.1015292315671269
21.86722,4.402649651226465,0.1008213739549439
21.871804,4.446389286835663,0.1001674541094639
21.8764,4.486897738796705,0.0995423704946235
21.880992,4.517878965976058,0.0990038748131196
21.885592000000003,4.5439523253261065,0.0984903540412732
21.890188,4.56740542459873,0.0979358048705166
21.894776,4.586972275203842,0.0973851974134817
21.899368000000003,4.604451746036738,0.0968142249145262
21.903952,4.6229086945828,0.0961640632669184
21.908544,4.637479394461351,0.0955212194514857
21.913132,4.644199553739362,0.0949363031728257
21.917724,4.6499761371211,0.0942969406696342
21.92232,4.650356113816948,0.0937176587555895
21.926904,4.646605472416995,0.0931543554362947
21.9315,4.637946963187736,0.092601085010889
21.93608,4.626301639738616,0.0920287735089617
21.940668,4.614367805412576,0.091409470397971
21.94526,4.596670810258211,0.0908749891499926
21.949848000000003,4.570512350932579,0.0904463509638206
21.954456,4.543943196015882,0.0899799715511577
21.959044,4.517618410527477,0.0894888577903744
21.963632,4.490516375305568,0.0889885678056503
21.968224,4.461859840616655,0.0884794462492523
21.972816,4.43998808591786,0.0878672402669841
21.977416,4.419015765666713,0.0872423966116427
21.982004,4.396655272111335,0.0866631948368149
21.986604,4.373028789965872,0.0861195846301858
21.991192,4.349280123106264,0.0855822814931979
21.995792,4.321977859904693,0.0851388253785563
22.000376000000003,4.290222565913511,0.0847967917906566
22.004976,4.26680655137945,0.0843586066662191
22.00956,4.243268352131245,0.0839260455984089
22.014156,4.220507402616541,0.0834929267758018
22.018748,4.197135529531109,0.0831099307841426
22.02334,4.180181882293357,0.0826596981972994
22.02794,4.167481037865554,0.0821919709056182
22.03254,4.156334692904753,0.0817289518541809
22.037132,4.144288913496307,0.0812685033095621
22.041724,4.135718687164305,0.0807846587034746
22.046312,4.129358025318664,0.0803237538914213
22.0509,4.12250862461644,0.0799064410290803
22.055488,4.122610330067109,0.0794563228567736
22.060076,4.125043784718283,0.0790208237542446
22.06466,4.124290197169931,0.0786497896898483
22.06924,4.126234912964524,0.0782613254896849
22.073828,4.134842224035088,0.0778018833144392
22.078408000000003,4.148191076772182,0.0772938561693565
22.082992,4.162972244262135,0.076807098745889
22.0876,4.180696084523323,0.0762812063384434
22.092188,4.204427455041127,0.0756656248036267
22.096780000000003,4.228936075292433,0.0750681134855699
22.101376,4.257819683067832,0.074463568499353
22.105972,4.292344266957409,0.0738182014549373
22.110568,4.331976946655955,0.0731021741017506
22.115168,4.369444203316768,0.0724417904620088
22.119772,4.4078108944252286,0.0717913269910714
22.124364,4.449120258304923,0.0711184539793552
22.128956,4.496970032746447,0.0704026339224972
22.133544,4.548906283835142,0.0696410108712222
22.138144,4.599165850742687,0.0688886329062512
22.142724,4.653267524869116,0.0681129828398114
22.147328,4.704793080366747,0.0673559582445991
22.15192,4.754519766969081,0.0666152530240181
22.156516,4.809354549380384,0.0658227815507859
22.161096,4.862512647610537,0.065040791042962
22.165692,4.903611543878831,0.0643319042132242
22.17028,4.940457637337176,0.0636299432202275
22.174876,4.975993600756809,0.0629009410302572
22.179472,5.008054011099995,0.0621759928135088
22.184068,5.034595630043151,0.0614800659471757
22.188656,5.05676226146221,0.0607948550594199
22.193244,5.071611232585942,0.0601424438211525
22.197828,5.076444240071401,0.0595276179730883
22.20242,5.075636271442683,0.0589462736557979
22.207012,5.070453315289871,0.0583640956433885
22.211604,5.058074883555875,0.0577964455315779
22.216196,5.041321464297788,0.0572293174290121
22.220776,5.020193057515605,0.0566631019359944
22.225352,4.991624805723948,0.0561229111862207
