Time,Force,Position
25.797308,6.8087132167156685,0.1615246133885436
25.8019,6.908354086213312,0.1609558736733358
25.806492,6.987487712131239,0.1604433103315187
25.811072,7.052532320317133,0.1598443249619584
25.815672,7.101200303019114,0.1592476108507795
25.820252,7.132059345484323,0.1586391302682364
25.824852,7.138046396477461,0.1582542035933616
25.829448,7.139692361763394,0.1578498155838359
25.834044,7.140438892601679,0.1574611918931175
25.838632,7.1472812365938365,0.1570339283949916
25.843228,7.149714691245012,0.156754077963296
25.847832,7.1587326979066415,0.1564022525755293
25.852424,7.168894508444209,0.1560227802983333
25.857016,7.176358015638835,0.1556856513046723
25.861608,7.181411730367435,0.1554137703191521
25.8662,7.189862954906964,0.1551446843563032
25.870784,7.2005237439328535,0.1548660847187885
25.87536,7.210573609388015,0.1546245454706442
25.87996,7.217314247929504,0.1544614295934262
25.884548,7.234070850109266,0.1541471983021736
25.889136,7.257367862850854,0.1537271154963385
25.893728,7.280053952021714,0.1533449962552779
25.898308,7.302906367355348,0.1529952649105148
25.9029,7.326413847708337,0.1526518142702417
25.907484,7.34787808973774,0.1523552619815638
25.912072,7.370896831234147,0.1520513422330436
25.916668,7.398124234091873,0.1516587783387374
25.92126,7.423919322196742,0.1512763191945843
25.925848,7.45139109448276,0.1508817735174746
25.930444,7.474487879244684,0.1505442106901922
25.935032,7.501138260348572,0.150118619836877
25.939636,7.526478511413746,0.1496902431483114
25.944232,7.554883619964301,0.1492115034945976
25.948824,7.585087597410154,0.1487111219016517
25.953403999999995,7.620033116522537,0.1481409401318197
25.958004,7.653057582025477,0.1476047530909954
25.962584,7.6898019700331535,0.1470226147769344
25.967179999999995,7.731654453849798,0.1463524933275186
25.971764,7.777715599027763,0.1456052360035559
25.976356,7.812616976691517,0.1450183206779392
25.980944,7.844820051012327,0.144472243941834
25.98554,7.87775623361801,0.1438857867093928
25.99014,7.914001643137367,0.1432367159530771
25.994732,7.949469802923221,0.1425975402170945
25.999324,7.979419171309042,0.1420293684548093
26.003916,8.010512343570802,0.1414443210485592
26.008504,8.04082826609906,0.1408667386036924
26.013092,8.065136658370703,0.1403854771879925
26.017684,8.086868932013548,0.1399330392090559
26.022276,8.109622824818185,0.1394639060955537
26.026864,8.13249890233697,0.1389916040334229
26.03144,8.154597730122251,0.1385234966581871
26.036036,8.170644886202288,0.1381176679164744
26.040624,8.188446769728996,0.137660633507822
26.045204,8.199175362388663,0.1372777805275988
26.0498,8.212924671085085,0.1368134397052444
26.054388,8.220866677504553,0.136394648981202
26.058988,8.227131999742872,0.1359927588302227
26.06358,8.229921768904745,0.1356241010593165
26.068172,8.240884491360966,0.1351286108659384
26.072776,8.254134821569066,0.1345931613112441
26.077364,8.270327824548401,0.1340216124474796
26.08196,8.282800905022997,0.1334956244734978
26.086548,8.292575682154652,0.1329970800476573
26.091148,8.305170947343393,0.1324621323524431
26.095736,8.313924105313255,0.1319782385310385
26.100328,8.325497751340203,0.131464512028869
26.104916,8.344100546785562,0.1308512716549583
26.109504,8.360904473335625,0.1302554647158784
26.114088,8.377830584599833,0.1296549393493614
26.118684,8.389115719749864,0.1291179574964849
26.123272,8.403465712385273,0.1285382676062588
26.127868,8.41985894334427,0.1279291053336872
26.132448,8.428690144579647,0.1274085262380127
26.137032,8.444550495233436,0.126791388866119
26.141624,8.456324369240047,0.1262368528005811
26.146212,8.467076624084864,0.1256949028092239
26.1508,8.47267664167209,0.1251915310472953
26.155396,8.47864321340175,0.1246697687541091
26.159988,8.481667112360176,0.1241882467958317
26.164576,8.480971088813865,0.1237473770512472
26.169176,8.47643295804867,0.1233521226159618
26.173756,8.472139196711767,0.1229442313556263
26.178348,8.474752400079128,0.1224528976323589
26.182944,8.478753776750718,0.1219299523952412
26.187532,8.48324389227889,0.1213826778050779
26.192128,8.485035704464122,0.1208613393677543
26.196716,8.485150832468202,0.1203523273237385
26.201312,8.4920507404624,0.1197703911264459
26.205908,8.498950648456598,0.119189490497016
26.2105,8.51635525894565,0.1185011972987399
26.215096,8.534537119168203,0.1178181775991983
26.219688,8.552352425248321,0.1171544174788074
26.224284,8.578384826071414,0.116422654076803
26.228872,8.598165327209601,0.1157754584173249
26.233471999999995,8.618967447509581,0.1151167663812001
26.238052,8.646432163085533,0.1143963996705654
26.242652,8.678149681471433,0.1136532930735178
26.247244,8.711299514610193,0.1129172319248455
26.25184,8.746248216644247,0.1121730322767785
26.256424,8.782873602859452,0.1114242473582837
26.261016,8.821420042684098,0.1106597528757806
26.265616,8.861643166689895,0.109891085023081
26.270212,8.893815522115489,0.1092183646032095
26.274804,8.928808365598172,0.1085278320056037
26.279396,8.964578458814358,0.1078391611839415
26.283976,8.999204748154602,0.1071693844249215
26.288568,9.03485265665664,0.1064947559911765
26.293148,9.063837969882709,0.10588431068771
26.297736,9.093067652537068,0.1052655342358747
26.30232,9.117800162953188,0.1046844687674019
26.3069,9.134193393912186,0.1041648354316308
26.311484,9.15287423262306,0.1036154534135468
26.316068,9.170777821600437,0.1030727706241444
26.320656,9.196609994443866,0.102457981704469
26.325248,9.223463786449091,0.1018358885397348
26.329836,9.245331667359494,0.1012654841756806
26.334424,9.265522864088746,0.1007019613154728
26.33902,9.285591876103853,0.1001462768650776
26.343608,9.305783072833105,0.0995900303856347
26.3482,9.324541954809495,0.0990302143941341
26.352788,9.342279217624094,0.0984826286008063
26.357388,9.361160284314634,0.0979235660379126
26.361976,9.383594947347136,0.0973140911769545
26.366576,9.403209122322547,0.0967284008646702
26.371156,9.42282329729796,0.0961445230300117
26.375756,9.44472508002525,0.0955331127166653
26.380348,9.464583624428956,0.0949444313989254
26.38494,9.48239893050907,0.0943720050778057
26.38952,9.502135290198629,0.0937891814111245
26.394116,9.518806792402804,0.09323580737336
26.398704,9.544061943492396,0.0926231336247421
26.403296,9.565230617934812,0.0920497506505516
26.407884,9.580880500977196,0.0915087153049722
26.412472,9.589989973457756,0.0910100163297837
26.41706,9.598977261224167,0.0905184836693483
26.421652,9.60935272229481,0.0900038450487098
26.426248,9.624591909746128,0.0894580424686029
26.43084,9.639298216892236,0.088903372206912
26.435432,9.64938516708596,0.0883736811034765
26.440012,9.658861193708956,0.0878683122835975
26.444608,9.667682155312594,0.0873575788862957
26.449196,9.673926998287431,0.0868549366269393
26.453783999999995,9.683525209624577,0.0863508866759893
26.458376,9.693656301266923,0.085859165455078
26.462964,9.70570844651872,0.0853579692308397
26.467552,9.71559516873278,0.0848791641312388
26.472148,9.72548189094684,0.0844014367979153
26.47674,9.74431881618875,0.0838625997284825
26.481332,9.75816983033584,0.0833599546065826
26.485911999999995,9.774719147825872,0.0828481468914593
26.490508,9.788447977258814,0.0823538857946528
26.495096,9.800622307224751,0.0818545536744898
26.499696,9.817171624714785,0.081344947352437
26.504284,9.833843126918964,0.0808301323801909
26.508892,9.846794706618404,0.0803324682370658
26.513484,9.860279166623055,0.0798477100006167
26.51808,9.86865553081874,0.0794036377523989
26.522663999999995,9.877031895014424,0.0789607000055267
26.527252,9.88786219312476,0.0785179822568246
26.531848,9.898936860663389,0.078065739445409
26.536444,9.910544408507224,0.0776251525459689
26.541028,9.920641598332685,0.0772102199602369
26.545624,9.924076192882174,0.0768294743659564
26.550212,9.927999526288248,0.0764316527313161
26.5548,9.93090124053252,0.0760428592733577
26.559384,9.934580204510302,0.0756561440044288
26.563968,9.936215930164495,0.0752834558296738
26.568564,9.929800887238487,0.0749637440151896
26.573152,9.927105766817212,0.0746291785373295
26.577752,9.92363339666244,0.0742930397287079
26.58234,9.92261496042232,0.0739600057633167
26.586932,9.929691434211028,0.0736068312488192
26.591516,9.931249116599703,0.0732717547224683
26.596108,9.935915797922387,0.0729460188558689
26.600704,9.946101270645102,0.0726030357719897
26.605292,9.957186177815467,0.0722595632633834
26.609896,9.96839326969998,0.0719116009580668
26.614488,9.979355992156204,0.0715734657808667
26.619076,9.990563084040714,0.0712271578962009
26.623672,10.00753333675355,0.0708578184766703
26.628264,10.02270472057109,0.070492469977061
26.63286,10.042862015483454,0.0701009013980095
26.637448,10.066739232900554,0.0696973043082404
26.642048,10.08845102727992,0.0693123837829296
26.646632,10.107342333602196,0.0689383377123954
26.651228,10.126600194066912,0.0685522896146954
26.655824,10.145080804798123,0.0681626823101461
26.660423999999995,10.169324576357663,0.0677500672696859
26.665016,10.193690532631344,0.0673352893887827
26.669612,10.21715705445738,0.066923362652029
26.674199999999995,10.23318373127394,0.0665337699677332
26.678796,10.24561267029991,0.0661540509374088
26.683392,10.263804770154202,0.065751944661224
26.687992,10.278887871074486,0.0653398250009537
26.692584,10.286653311699444,0.0649445208907642
26.697175999999995,10.2918426336956,0.06455046180173
26.701764,10.298830824587055,0.0641540399474757
26.706348,10.304919581030864,0.0637593018599539
26.710928,10.309986718312874,0.0633705428281459
26.715524,10.30851344503306,0.0630015227983843
26.720116,10.309327779505123,0.0626125994662833
26.724708,10.302702268967716,0.0622421308875077
26.729304,10.293622824515651,0.0618666929829366
26.733884,10.284543380063592,0.0614906742970041
26.73848,10.277262804506826,0.0611117279379357
26.743076,10.26883842507412,0.0607422284172814
26.747664,10.264011783432007,0.0603677304789738
26.752272,10.254565784837506,0.0600033741452719
26.75686,10.246141405404805,0.0596347628014676
26.761452,10.239515894867395,0.0592642696099442
26.76604,10.240696783481896,0.0588646368800326
26.770628,10.2400788032011,0.0584673742870288
26.77522,10.238317019044368,0.0580808001338015
26.779816,10.23810973435464,0.0577005724496558
26.784408,10.24509792524609,0.0573134516485475
26.788988,10.251963931423402,0.0569304724028855
26.793588,10.257275438133703,0.0565414334688887
26.798168,10.263730748719947,0.0561437134645413
26.802764,10.271207678467984,0.0557414683087925
26.80736,10.27754080434008,0.0553470338672625
26.811952,10.28350737606974,0.0549658120686411
26.816536,10.293071685589991,0.054580709536933
26.821132,10.30304669070131,0.0542113080533773
26.825728,10.3090574038796,0.0538551263241072
26.830328,10.314046497896092,0.053503806231679
26.834916,10.31981284164609,0.0531562673279306
26.839512,10.322880882053145,0.052810386768403
26.844104,10.325948922460194,0.0524637113827126
26.848688,10.32031112926769,0.0521406523365181
26.853276,10.30980960969451,0.0518314175546042
26.857872,10.292401125417063,0.0515453243073085
26.862464,10.270006730044798,0.0512757946489083
26.867056,10.239273055215408,0.051015622136671
26.871652,10.20571889232893,0.0507592096863806
