Time,Force,Position
24.343212,7.173645287387003,0.1562679337885679
24.347804,7.299159288255032,0.1553211163399601
24.352384,7.406331468581079,0.1543552098378157
24.35698,7.487766124804298,0.1535479072188476
24.361568,7.552701970829457,0.1527349423334246
24.366164,7.596685975866949,0.1520123141851518
24.370752,7.621561150260693,0.1513862510141513
24.375336,7.63796462085143,0.1507829097366546
24.379928,7.657677318355836,0.1501120069938722
24.38452,7.677556342023019,0.1494710296866681
24.389104,7.699767114890708,0.148815253512446
24.39368,7.718913030273016,0.148221705138789
24.398272,7.7348277620071695,0.1476609194827937
24.40286,7.744079898465352,0.1472057471226353
24.407452,7.7511666118858,0.1467985554705619
24.41204,7.756210086982661,0.1464314791173226
24.416616,7.758721584899355,0.1461297164072497
24.421208,7.760211463654253,0.1458463294452975
24.4258,7.762234222714362,0.1455729939412794
24.430388,7.767854719565063,0.1452565048984677
24.434984,7.772331412539826,0.1449649419971989
24.439564,7.77865111585851,0.1446888194041156
24.444156,7.785137145339968,0.1444429250749072
24.448748,7.798041400669108,0.1441126578551729
24.453344,7.812744524893544,0.1437652954690292
24.457924,7.832844255803867,0.1433551123484565
24.462524,7.854786997058114,0.1429603767476805
24.467108,7.874808684702919,0.1425946313181184
24.471704,7.892009884290637,0.1422718296987879
24.476296,7.914196994973174,0.1418730806474115
24.480892,7.9356068559222095,0.1414795624674111
24.485484,7.960203759070772,0.1410317926990004
24.49008,7.985822281381129,0.140571030576825
24.494656,8.017203964519808,0.1400296408341245
24.499244,8.049607266820281,0.1394755805156701
24.503832,8.082010569120754,0.1389249252498708
24.508424,8.117356544192463,0.138332935761874
24.513016,8.154379203445322,0.1377285997971145
24.517608,8.191524047412326,0.1371211681716282
24.522204,8.223927349712797,0.1365805524453239
24.526788,8.261072193679802,0.1359828159671235
24.531384,8.298950145931679,0.1353526550893142
24.535972,8.33923789064958,0.1346758308127789
24.540564,8.374784093700951,0.1340618538136048
24.545148,8.403789886190495,0.1335293833761658
24.549736,8.430463929479533,0.1330123110389729
24.554348,8.4569716466058,0.1324689096451966
24.55894,8.486788590645736,0.1318699568145883
24.563536,8.514151600771022,0.1312866329755852
24.568132,8.536895253943921,0.1307593883073255
24.57272,8.5619265148687,0.1301934653754609
24.577316,8.58540327632647,0.1296387145576656
24.581896,8.604505050260151,0.129121907823206
24.586492,8.618698956364526,0.1286338208858926
24.591072,8.628640059658952,0.1281765603223879
24.595676,8.63829265207646,0.1276993168906092
24.60026,8.643936811112313,0.1272403395801042
24.604848,8.649536828699537,0.1267490549874676
24.609444,8.651128412905104,0.1262742767296364
24.614036,8.654352539843194,0.1257552911103474
24.618632,8.651647179790183,0.1252768535028489
24.623228,8.643545213051286,0.1248466000440027
24.627824,8.633766562131242,0.1244271731805671
24.632424,8.629340376448454,0.1239269604847253
24.637016,8.62618017935575,0.1233988022927367
24.641608,8.62019949420596,0.1229002223389883
24.6462,8.614096624342022,0.1224078417699352
24.650784,8.605051081706849,0.1219512183554654
24.655364,8.595883354357532,0.1214989533575676
24.65996,8.588514495903508,0.1210313205417505
24.664552,8.578080779964107,0.1206047468351946
24.669144,8.567402694596414,0.12019049217321
24.673736,8.560688901161745,0.1197280142838999
24.678328,8.55847227996532,0.1192284037820819
24.68292,8.56136375457786,0.1186632761388162
24.687512,8.565809728657408,0.1180977304587452
24.692092,8.573731255813398,0.1175092776398439
24.6967,8.577321936893924,0.1169829203144133
24.701292,8.586064855232044,0.1164253260749295
24.70588,8.595340653875375,0.1158801982021867
24.710476,8.608991440042804,0.1153068894187809
24.715068,8.629959886505558,0.1146744970031687
24.719672,8.64900727935887,0.1140624380671465
24.72426,8.662946576403215,0.1135159136557423
24.728856,8.680361426524005,0.1129498187814
24.733436,8.698431341664154,0.1123874706240756
24.738036,8.715601822356653,0.1118326442506852
24.742624,8.734571171944447,0.1112661266905409
24.747224,8.761224735970009,0.110629910909701
24.751812,8.788777734443219,0.1099918961340527
24.7564,8.818251786525868,0.1093373728592678
24.760984,8.84400591610378,0.1087140497627439
24.76558,8.869149122110965,0.1081225899796621
24.770176,8.893026339528065,0.1075584537942448
24.774772,8.913227775889055,0.1070598363240938
24.77936,8.931508158640606,0.1065817156885314
24.783956,8.949544171963863,0.1061171899090507
24.788548,8.976163834172535,0.1055801005667565
24.793132,9.000984627485911,0.1050578765078011
24.79772,9.02208549829455,0.1045643193881267
24.80232,9.03946644659845,0.1041007299323914
24.806904,9.051983668521675,0.1036845464684605
24.811492,9.065933205197762,0.1032733408269794
24.816084,9.08282541464508,0.1028353403211586
24.820664,9.100861427968338,0.1023854800417423
24.825256,9.12502715626236,0.1018755984398422
24.829848,9.152013372613464,0.1013471055745323
24.834436,9.178100154516924,0.1008263163983557
24.839028,9.19560328753497,0.1003767757814047
24.84362,9.208731433028923,0.0999482554150033
24.848216,9.220305079055873,0.0995206247687553
24.852812,9.2367424514635,0.0990531114638379
24.8574,9.250848074670614,0.0985853280915556
24.862008,9.267241305629613,0.0980906663186695
24.866596,9.28694376350228,0.0975574435905519
24.8712,9.302026864422563,0.097051610417601
24.87578,9.315555465875844,0.0965461692431678
24.88038,9.324586895090883,0.0960684178785959
24.884972,9.332718889858276,0.0955956634165259
24.889572,9.346614045453991,0.0950812007301814
24.894152,9.365250742716238,0.0945360439107669
24.898752,9.382865820816692,0.093999508689155
24.903344,9.402768506669023,0.09343630187721
24.907932,9.42254900780721,0.0928810433954962
24.912524,9.433745860059982,0.0923847681917131
24.917116,9.437136313160844,0.0919502160035999
24.921708,9.4415483854235,0.0915094643856374
24.926304,9.447104261562094,0.0910558992287172
24.930892,9.456502244919571,0.0905758518817949
24.935488,9.472440638838876,0.0900595981933873
24.940076,9.487235228882245,0.0895570787374661
24.944664,9.501907634211465,0.0890631757758983
24.949244,9.520955027064776,0.0885566891599876
24.95384,9.53489432410912,0.0880956592690776
24.958428,9.547689817277528,0.0876508268744103
24.963008,9.567802970741262,0.0871714078915992
24.9676,9.590492242833792,0.0866878487746174
24.972192,9.612692776069746,0.0862250540375939
24.97678,9.635792743753342,0.0857595191809188
24.981388,9.657871092275146,0.085306771700049
24.985976,9.675085714416271,0.0848875800569847
24.990572,9.694587944309278,0.0844426357872702
24.995164,9.714867423935788,0.0840031465359267
24.999752,9.733470219381148,0.0835668867363911
25.004348,9.760412294283627,0.083091056811207
25.008936,9.789397607509695,0.0825985729389778
25.013544,9.812619759907436,0.0821415313994301
25.018136,9.830978185924502,0.0817147535757841
25.02274,9.848314992779777,0.0812975877711984
25.027328,9.858622650216638,0.0809319092782611
25.031928,9.873671849320036,0.0805429383858456
25.036516,9.886022745080489,0.08016455609004
25.041116,9.895797522212138,0.079792419915608
25.045708,9.90785990709567,0.0793958590338169
25.050304,9.91632455418861,0.0790108742998098
25.054896,9.921313648205102,0.0786341005399163
25.059492,9.924748242754594,0.0782550529571159
25.064072,9.928671576160664,0.0778580982979509
25.06866,9.935659767052115,0.077441253720489
25.073248,9.936107547381742,0.0770515726110522
25.07784,9.94154123880619,0.0766315040603842
25.082428,9.946852745516496,0.0762168298475193
25.087016,9.949465948883851,0.0758115357554493
25.091604,9.9548996403083,0.075395459965063
25.096204,9.957879397818097,0.0749794588608755
25.100792,9.963801828099127,0.0745486793386214
25.105388,9.97278911586554,0.0740970791978935
25.10998,9.989338433355574,0.0736147774931563
25.11456,10.00625430498804,0.0731205593981062
25.119152,10.02852264185777,0.0725849404855568
25.12374,10.047970490670409,0.0720635233937451
25.12832,10.0672961547689,0.0715468544001431
25.132916,10.085844569133888,0.0710289493254003
25.137504,10.104392983498878,0.0705127615608931
25.142108,10.128582373978048,0.0699773498217477
25.146692,10.155836621942596,0.0694257405560724
25.151288,10.181169816297706,0.0688832220499485
25.155884,10.210345117871697,0.0683292542670696
25.160476,10.235800496940952,0.0677901821044883
25.16508,10.265097983229088,0.0672337161639561
25.169668,10.28838793926061,0.0667108628371029
25.174268,10.315642187225162,0.0661725989598797
25.178848,10.342119185456207,0.0656330901306953
25.183448,10.364754076468376,0.0651101392607557
25.188036,10.385345729156954,0.0645993765142899
25.192636,10.403894143521946,0.0641027690801137
25.19722,10.423464177048729,0.0636027139343457
25.201816,10.440335907232573,0.0631106864597354
25.206396,10.457984887149914,0.0626236232252918
25.210992,10.471547390420085,0.0621598518546702
25.215592,10.487030947299695,0.0616915096169399
25.220184,10.50467992721704,0.0612096393772279
25.224772,10.51938623436315,0.0607386248155173
25.22936,10.534092541509256,0.0602689699422544
25.233948,10.545201110864774,0.05980570868398
25.238544,10.551201584411324,0.0593687678739002
25.243132,10.562965218786198,0.0589154840319382
25.247732,10.567044638723305,0.0584870630100621
25.252324,10.570879689232124,0.0580667329351525
25.256912,10.57777959722632,0.0576328738776731
25.261504,10.587089297686544,0.0571762005511615
25.266092,10.59255689092788,0.0567334536804737
25.270688,10.59802448416922,0.056290810861287
25.27528,10.604758066000644,0.0558350051724457
25.279868,10.6136570708698,0.0553658639985026
25.284472,10.620635022129516,0.0549019762691289
25.289064,10.623648681456205,0.0544525858265209
25.29366,10.6238418527258,0.0540091428181066
25.298256,10.620970166510018,0.0535793723773489
25.302848,10.61899791474188,0.0531483424020684
25.307444,10.609463633250126,0.0527318881111232
25.312036,10.593022387054107,0.0523368787659039
25.31664,10.57825782503924,0.0519430218869056
25.32122,10.55850735192955,0.0515654956042545
25.32582,10.533770967725037,0.0512034892194915
25.330412,10.508135149072876,0.050839314146749
