Time,Force,Position
25.663152,7.073622474227486,0.1573752077771384
25.667736,7.167900638856132,0.1568929383180121
25.672328,7.240405571314977,0.1564808900265458
25.676908,7.294202129089403,0.1560641772001195
25.6815,7.328146508303471,0.1556656630983956
25.68608,7.335620255129833,0.1554512607778858
25.690672,7.323784943332788,0.1553792672665221
25.695263999999995,7.311372609781904,0.1552581991750815
25.699852,7.304645393793828,0.1550825586972237
25.704448,7.305402164263851,0.1548259485208908
25.709036,7.309390118382031,0.1545409547071611
25.713636,7.317586733861529,0.1541671024657689
25.718228,7.320753296797578,0.1538531154995109
25.722815999999995,7.324164229161918,0.1535253789119118
25.727412,7.330273464869202,0.1531586812163836
25.732004,7.334994527272254,0.1528340415239918
25.736608,7.346011630808842,0.1524204715736517
25.741195999999995,7.353719507431758,0.1520801934378543
25.745796,7.356563657673997,0.1518250979308338
25.750384,7.363127730420974,0.151512425348055
25.754984,7.372023552368457,0.1511853052060787
25.759572,7.380963515764569,0.1508947221362062
25.764171999999995,7.391824532770124,0.1505710502678378
25.768767999999994,7.403995679814389,0.1502535729288384
25.77336,7.418742945487453,0.149905693605186
25.777952,7.437087948951108,0.1495079930656873
25.782543999999994,7.457886886329416,0.1490870529630291
25.787136,7.474965901202987,0.1487273988295608
25.791728,7.490123862467115,0.1484030937622009
25.796308,7.504260204569451,0.1481003067759595
25.8009,7.514554439452904,0.1478617979219126
25.80548,7.525503739355713,0.1476285151410253
25.810072,7.5332659970589955,0.147460031263371
25.814664,7.541805504495781,0.1472879872910518
25.819247999999995,7.553165499989656,0.1470753296874679
25.82384,7.570821536617066,0.1467847456335008
25.828432,7.587089399940244,0.146535708908212
25.833016,7.610142043253541,0.1461803231185157
25.837604,7.642677769899898,0.1456890832892559
25.842184,7.673292442936815,0.14523022862706
25.846776,7.704029300687877,0.1447693860079513
25.851364,7.740240808390344,0.1442004466714457
25.855951999999995,7.77812900027396,0.1436208762923103
25.860548,7.814707062118864,0.1430397681861228
25.86514,7.857292654220383,0.1423736976610994
25.869736,7.895503258797809,0.1417538010824986
25.874312,7.93215936390823,0.1411423865156852
25.878916,7.968160403999294,0.1405285038629707
25.8835,8.004772367661086,0.1398863351415766
25.888104,8.039174766836519,0.1392490488075421
25.892688,8.075087524030327,0.1385687637368667
25.897292,8.105848043966539,0.1379387426350095
25.901875999999994,8.139018356368776,0.137255882940974
25.906468,8.171000723446445,0.1365645699743062
25.911055999999995,8.20142859105711,0.1358871311026119
25.915651999999994,8.22527190665732,0.1352631816622231
25.92024,8.251114319132489,0.1345760022489527
25.924831999999995,8.272703928797709,0.1339297386164145
25.929424,8.2854213787006,0.133377819661959
25.934008,8.302591859393099,0.1327489753062985
25.938588,8.319351644494533,0.1321085081211026
25.94318,8.333413126253024,0.1314999439070259
25.947768,8.346042293258657,0.1308935193718486
25.952344,8.360592513873732,0.1302664775699917
25.956928,8.363083532526947,0.1297738461712146
25.961516,8.373625319760365,0.1291716674057007
25.966108,8.388497953069246,0.1285020538340016
25.970716,8.406557628577655,0.1277858106919206
25.975304,8.424495119371919,0.127080026367791
25.9799,8.450116824603946,0.1262915289039639
25.984492,8.472918041778888,0.1255328364550791
25.98908,8.49812905141985,0.1247267245097299
25.993676,8.521907746307955,0.1239219082534849
25.998264,8.542988137853117,0.1231407162548187
26.00286,8.561614595483624,0.1223729441988177
26.007439999999995,8.579219433952339,0.1216168442905632
26.01204,8.59388159964982,0.1209003380405748
26.016628,8.6085437653473,0.1201841066598198
26.021228,8.625004799940077,0.119450849931852
26.025811999999995,8.63647992343803,0.118784848357447
26.030412,8.6433356899836,0.1181621712525358
26.034996,8.650313641243315,0.1175350761036472
26.039587999999995,8.657413777217176,0.1169035937166154
26.044184,8.660916175400446,0.1163028330662612
26.048776,8.671081168859688,0.1156305849731163
26.053368,8.67331757845287,0.1150549889762456
26.05796,8.668524838627647,0.1145650424285345
26.06254,8.66078942603119,0.1141088474112388
26.067132,8.651132959825286,0.1136725610669354
26.071712,8.63264847530568,0.1133339219717456
26.076304,8.618783347738459,0.1129545032566066
26.080896,8.607127784657603,0.1125777181073766
26.085476,8.599847209100837,0.1121742384346784
26.090064,8.596042186620515,0.1117495523566987
26.094652,8.595834901930786,0.1112993283435166
26.099236,8.59808155115571,0.1108401642478943
26.103832,8.604581003190582,0.1103627056718996
26.108419999999995,8.615577627463692,0.1098565694557298
26.113012,8.628373120632098,0.1093394157042293
26.1176,8.640269179352856,0.1088278289776249
26.122192,8.660382332816589,0.1082577957364916
26.126788,8.683071604909122,0.1076796861088635
26.131388,8.705760877001657,0.1071042443010996
26.135984,8.728327964380043,0.1065334018601897
26.14056,8.749751247882488,0.1059824179358649
26.14516,8.773095584994378,0.1054128252057506
26.149747999999995,8.80244745236288,0.104781038012503
26.154348,8.832454384750742,0.104155883408288
26.158936,8.860662448243309,0.1035411809470773
26.163536,8.891035934773607,0.1028967373020155
26.168128,8.91871111796096,0.1022731428542636
26.17272,8.944465247538872,0.10166982896347
26.177304,8.963556781840815,0.1011249930810671
26.181895999999995,8.97995001279981,0.1005975978940784
26.186496,8.996343243758805,0.1000748299369855
26.191095999999995,9.014901897755538,0.0995279387969844
26.195688,9.028186129780524,0.0990101069825468
26.200272,9.034152701510184,0.0985404385953449
26.20486,9.038076034916257,0.0980925597038056
26.209447999999995,9.042121553036472,0.097638166807587
26.214036,9.036561803109484,0.0972618426218232
26.218627999999995,9.026504880944255,0.0969109647983746
26.223223999999995,9.017103023798382,0.096566011240563
26.227812,9.011543273871396,0.0961909217894053
26.232412,9.005983523944407,0.0958159772903376
26.236999999999995,9.00234482762686,0.0954263953156566
26.241596,8.99744014271923,0.0950587003969747
26.246184,8.995722500011123,0.0946575952761881
26.250772,8.997602595093607,0.0942378596206349
26.255384,9.002303178233182,0.0938006329090937
26.259972,9.0089248149822,0.093350310457323
26.264568,9.013869767550064,0.0929033263674851
26.269155999999995,9.022656827336814,0.0924282401613346
26.273744,9.036185428790091,0.0919228892033123
26.27834,9.048570226367437,0.0914351759885252
26.282931999999995,9.060955023944777,0.090951196106688
26.287527999999995,9.075138690417411,0.0904593017487083
26.292116,9.094963333004229,0.0899331964716965
26.296716,9.114910160305188,0.0894020410973757
26.301292,9.13923197513024,0.0888582738074258
26.305896,9.172503992983147,0.088244512741069
26.31048,9.20553164140776,0.0876401031443045
26.315084,9.237782040098873,0.0870376029958133
26.319668,9.266967581304604,0.0864648286861617
26.324264,9.297296926386274,0.0858812261504269
26.328844,9.327626271467942,0.0853014132871145
26.33344,9.356278932368465,0.0847260585996305
26.338044,9.382888354945395,0.0841731580100672
26.342636,9.411663200560062,0.0836033596438013
26.347224,9.437495373403491,0.0830565340697614
26.351811999999995,9.462183742370984,0.0825255230897196
26.3564,9.489936968823857,0.0819715019181621
26.360983999999995,9.513848088057845,0.0814408385912305
26.365576,9.533139850339449,0.0809337826994541
26.370168,9.544747398183286,0.0804693789132236
26.374764,9.55365664268418,0.0800163301797705
26.379344,9.561544268023283,0.0795717261337694
26.383936,9.566611405305292,0.0791426074849631
26.388524,9.575765019234478,0.078684162867484
26.393116,9.579766395906066,0.0782346690087771
26.397707999999994,9.58082509980642,0.0778064197170081
26.4023,9.58879076841104,0.0773370962240523
26.406908,9.597533686749156,0.0768711374252255
26.411488,9.606398789801425,0.0764002500862433
26.41608,9.611421785634809,0.0759494873524142
26.420684,9.613746478125243,0.0755069077131955
26.425272,9.616970605063331,0.075062028046601
26.429863999999995,9.61647480949668,0.0746317403289556
26.434444,9.610215853101709,0.0742308932612152
26.439044,9.602280212525582,0.0738289718979471
26.44362,9.59740942943484,0.073407119072997
26.448212,9.594215330525246,0.0729872133548167
26.452808,9.59498552354868,0.0725439025091087
26.457408,9.601518877400444,0.0720751264472654
26.461991999999995,9.61814623815599,0.0715418889982709
26.466576,9.631586556712014,0.0710322263768336
26.471163999999995,9.646170679143976,0.070511960020774
26.47576,9.66549634324247,0.0699753048420856
26.480348,9.68175714985558,0.0694620398329487
26.484932,9.702392943992788,0.0689446015683677
26.48952,9.719064446196963,0.0684489622947887
26.494119999999995,9.728951168411026,0.0679875731734009
26.498708,9.735240152834498,0.0675334027528897
26.5033,9.743694560295696,0.0670630729883659
26.507892,9.756890509423428,0.0665755775049825
26.51248,9.771885327446457,0.0660849587565479
26.51708,9.785980711021836,0.0655968266552146
26.52166,9.804939820977896,0.0650880262115716
26.526244,9.826841603705184,0.0645654730480037
26.53084,9.852218939508925,0.0640416575881351
26.535419999999995,9.873876352807924,0.0635317021516543
26.540008,9.891813843602188,0.0630347333608159
26.544604,9.9088518999488,0.0625413372157881
26.549192,9.920004610752947,0.0620761334040011
26.553784,9.928869713805216,0.0616341969297956
26.558376,9.945541216009394,0.0611614971107686
26.562971999999995,9.96503320627066,0.0606839948555575
26.567552,9.977862601255955,0.0602293100776987
26.572152,9.9915914306889,0.0597750841332825
26.57674,10.00736349844543,0.0593141433905542
26.58134,10.026977673420843,0.058840821907773
26.585932,10.049534521167493,0.0583570543617872
26.590528,10.07401242252358,0.0578667297123091
26.595119999999994,10.09824595445138,0.0573878017331733
26.599716,10.122479486379175,0.05691255931732
26.604312,10.148634071916415,0.0564341510290284
26.608908,10.1774869607966,0.0559556085452697
26.613496,10.201353938581962,0.0554986921768457
26.61808,10.22587598138668,0.0550514181579928
26.622668,10.252441262514983,0.0545977367212541
