Time,Force,Position
25.52942,6.884931844342709,0.1625883337873851
25.534012,6.977034346301883,0.1619699066461711
25.538592,7.046830735786045,0.1614298824667537
25.543180000000003,7.103193172557531,0.160814225249292
25.547776,7.135250399979046,0.1603526601948186
25.552356,7.157437510661584,0.159838659007398
25.556948,7.164612506979289,0.1594650836198894
25.561532000000003,7.1738307416205815,0.159050430826944
25.56612,7.190288593291685,0.158564549334871
25.570704000000003,7.20781220557321,0.1580988477816914
25.5753,7.220838645616496,0.1577023401767529
25.579884000000003,7.236274878125805,0.1572439365349365
25.584480000000003,7.250034426453965,0.1568096569540463
25.589076,7.2636717900679795,0.156385936378768
25.593672,7.277597664558913,0.1559910389584725
25.598268,7.287603388565445,0.1557135818462067
25.602868,7.306192761457392,0.155288364850942
25.607444,7.326458818530489,0.1548504951080387
25.612028,7.344803821994144,0.154449382195984
25.616616,7.368545432143686,0.1539739861020291
25.621204,7.3931084334753585,0.1535349464382271
25.625804,7.417959945683952,0.15312225842582
25.63038,7.443588707626046,0.1527030989084976
25.634968,7.466641350939343,0.1523189228175243
25.639544,7.494435535919169,0.1518585000597271
25.64414,7.520841547594765,0.1514417403346812
25.648724,7.557507892336925,0.1508673633903931
25.653312000000003,7.596217475402673,0.1502672789403422
25.657896,7.629652636496679,0.1497360362997324
25.662492,7.663576536447266,0.1491802929290899
25.667072,7.702486347492676,0.1485371536553098
25.671664000000003,7.738697855195142,0.1479377322227075
25.676244,7.774498667306544,0.1473264814626332
25.680848,7.810010968541026,0.1466968730833925
25.685436,7.845112574184442,0.1460580091785336
25.690032,7.883767776169822,0.145341289560808
25.694612000000003,7.920091228954696,0.1446498749493519
25.699212,7.952039694215476,0.1440113384010823
25.703792,7.984232528904547,0.1433623772122862
25.708376,8.00886333387,0.1428198676472872
25.712968,8.034105062406178,0.1422479394729907
25.71756,8.060490594818297,0.1416555845193381
25.72214,8.093416537792242,0.1409836213658261
25.726724,8.126753176357253,0.1403302836288912
25.731312,8.161766499103413,0.1396716980269541
25.735896,8.200621929068456,0.1389649402839736
25.740488000000003,8.234735817366968,0.1383289191474338
25.745068,8.261165491227716,0.1378013466601041
25.74966,8.292214522040847,0.1372205632783386
25.754248,8.323918617873336,0.1366477131055377
25.758832,8.354601094544032,0.1360960082248623
25.763424,8.386549559804811,0.1355209655609432
25.768,8.419764013655676,0.1349236360567237
25.772596,8.44823692584001,0.1343845736649303
25.777184,8.474622458252131,0.1338461444215176
25.781772,8.498798426177888,0.1333160441606924
25.786368,8.521419894636642,0.1327961909558577
25.79096,8.544652286666123,0.1322461889967043
25.795556,8.564775679761597,0.1317074636557802
25.800144,8.590618092236767,0.131061660361047
25.804744000000003,8.615028189959077,0.1304194912046634
25.809324,8.638250342356823,0.1297684762146061
25.81392,8.655176453621031,0.1291837863066693
25.818512,8.670914619560673,0.1285869122277779
25.823112,8.682644352118658,0.1280117636878651
25.827696,8.689588401561483,0.1274592116602466
25.832288,8.697021189860893,0.1268836078480699
25.836884,8.70751883564568,0.1262637638277701
25.84148,8.71376367862052,0.1256748599551034
25.846076,8.716899522661352,0.125095620737346
25.850676,8.715782563892237,0.1245438527124097
25.855268,8.709146813723088,0.1240458069913154
25.85986,8.696992272153906,0.1236010205944497
25.86444,8.691744695288989,0.1230704390429844
25.869024,8.687029998729281,0.1225497326509497
25.873604,8.679783324989407,0.1220795707547599
25.878188,8.669227424335858,0.121661312284623
25.88278,8.657405535092225,0.1212674284867743
25.88736,8.652001871696271,0.1208139391044743
25.891952,8.647375458033821,0.1203604567790006
25.896544,8.642749044371369,0.1199073667132861
25.901132,8.638000445994773,0.1194605071592037
25.905724000000003,8.633618401760613,0.1189957401859443
25.910312,8.629480726954746,0.1185189255867114
25.914896,8.626364671310672,0.1180292179144697
25.919492,8.624803115133602,0.1175364553833229
25.92408,8.627328035603703,0.1169957369465282
25.928676,8.629564445196888,0.1164337731661013
25.933256,8.634499158133018,0.1158515955119885
25.937852000000003,8.64290942414559,0.1152492348065429
25.94244,8.659414600186993,0.1145885581220535
25.94704,8.683359621237871,0.1138652801468002
25.951628000000003,8.709758576203402,0.1131307412735748
25.956228,8.736035346454788,0.1124110032458693
25.960812,8.763866616173178,0.111693545397726
25.965404000000003,8.794640558662802,0.1109463524144395
25.969992,8.827579924190161,0.1101676027037942
25.974588,8.865138646669903,0.1093552664030326
25.979176,8.900776315540204,0.1085718820649845
25.983772,8.935270180534564,0.1078125904575347
25.98836,8.96939749138649,0.107072582186363
25.992948,9.00135937920068,0.1063618621370217
25.997532000000003,9.033854147320085,0.1056639067986507
26.002128000000003,9.07072390296358,0.1049487635622892
26.00672,9.106449854731135,0.1042531114279119
26.011308000000003,9.14421904482228,0.1035408425601227
26.0159,9.175203454923306,0.1028944259174725
26.020480000000003,9.20762017977719,0.1022565865571992
26.025072,9.23823803573578,0.1016323400435172
26.029660000000003,9.265380338617923,0.1010270542936595
26.034248,9.287248219528328,0.1004534995086778
26.038852,9.302697874591049,0.0999241304514191
26.04344,9.32043513740565,0.0993652275865516
26.048048,9.333553043267864,0.0988391586200414
26.052636000000003,9.344339199929571,0.0983142160617379
26.057224,9.356513529895512,0.0977670226212927
26.061824,9.374328835975628,0.0971850946947728
26.066404,9.38776915453165,0.0966240249304231
26.070996,9.396101377278706,0.0961120915293845
26.075584000000003,9.400591492806878,0.0956286374791116
26.080184,9.407369216086929,0.0951176528112735
26.08476,9.417866861871715,0.0945843010074375
26.089368,9.430529930694238,0.0940294575902105
26.093952,9.437552023402583,0.0935133713917648
26.098544,9.445351365844427,0.0929983877448405
26.103124,9.447920427763156,0.0925351655331601
26.107716,9.45294342359654,0.0920684076784181
26.112312,9.45718916969642,0.0916022757421114
26.116904,9.463355969405743,0.0911237976809431
26.12148,9.47107726858207,0.0906470383082699
26.126064000000003,9.477654763882455,0.0901838675997829
26.130644,9.48603112807814,0.0897116595131448
26.135236000000003,9.49506255729318,0.0892480971740762
26.139832,9.503971801794076,0.0887885483283729
26.144416000000003,9.513658296028474,0.0883307444110703
26.149016,9.519136128901549,0.0879142154041412
26.153604,9.5180735512128,0.0875360099992097
26.158196,9.516644419381612,0.0871715272916118
26.162784,9.519546133625893,0.0867623448303192
26.167372,9.524368901479612,0.0863397008751352
26.171968000000003,9.524083573524369,0.0859602782150962
26.176556,9.523143180549765,0.085576202293392
26.181148,9.519915179823284,0.085219820696653
26.185732,9.51644280966851,0.0848720815300016
26.190308,9.513869873961385,0.0845214018679522
26.194912,9.517426653225025,0.0841212192785951
26.199492000000003,9.52314885552639,0.0837011635754399
26.20408,9.525684015628231,0.0833099701704353
26.20866,9.525154318244692,0.0829434265256102
26.21326,9.522703567251714,0.0825879272694857
26.217844000000003,9.52487217321112,0.0822120194184289
26.222436,9.52859527863753,0.0818397995868636
26.227028,9.529375711292705,0.0814875434058974
26.231620000000003,9.53567493534791,0.0811129877792845
26.236224,9.541607605260678,0.0807532922536767
26.240820000000003,9.551260197678186,0.0803772030550492
26.245412,9.561445670400904,0.0800119149418582
26.250008,9.575228880914215,0.0796352208384527
26.254592,9.588645537285084,0.0792748000812735
26.25918,9.605659931446548,0.0789044739826628
26.263756,9.62663861754104,0.0785086317193434
26.26834,9.64455244615015,0.0781363702297638
26.272932,9.661689025025758,0.0777627395742967
26.277524000000003,9.682789895834397,0.0773648346938508
26.282116,9.7009480938718,0.0769850594215341
26.286704,9.71412038081438,0.0766392318355149
26.291296,9.722428941376284,0.0763212853008753
26.29588,9.738421716375957,0.0759651539528656
26.300468,9.756335544985069,0.0755992992541736
26.30506,9.780012534422502,0.0752062490299275
26.309656,9.7999696013552,0.0748300686395513
26.314244,9.82299152577328,0.0744360805137727
26.31884,9.848956122962594,0.0740274423084185
26.323432,9.869279744037732,0.0736442014710519
26.328024000000003,9.889070484807656,0.0732502004574345
26.332604,9.90334243417755,0.0728746411494535
26.337204000000003,9.917858752975734,0.0724898938493485
26.341784,9.929021703411616,0.072105886751134
26.346384,9.93748635050456,0.0717288824825221
26.350964,9.94361924839699,0.0713467517953925
26.35556,9.947953277394127,0.0709695475512779
26.360136,9.955352163876649,0.0705729309639845
26.364732,9.962873235073312,0.0701718089643334
26.369328,9.967696002927037,0.0697778255202758
26.37392,9.975827997694426,0.0693559035223148
26.378508,9.986780480518908,0.0689239785735987
26.3831,9.999654016952832,0.0684828307447602
26.38768,10.008030381148515,0.0680543035528398
26.392272,10.016528930058344,0.0676221458580426
26.396864,10.0201637525875,0.0672139790445302
26.401452000000003,10.02277695595486,0.0668112958345142
26.406044,10.018072499026893,0.0664270742767024
26.410624,10.009648119594187,0.0660540151614223
26.41522,10.005188032094509,0.0656614879926958
26.419804000000003,10.004570051813715,0.065255081629386
26.424392,10.011636285970688,0.0648196623568008
26.428988,10.020745758451246,0.0643734408295342
26.433576,10.036517826207778,0.0639067910230056
26.438164,10.054333132287892,0.0634290974195646
26.442756,10.070760265063782,0.0629708964935049
26.447344,10.088209017001462,0.0625080330615267
26.451948,10.104758334491493,0.0620484085038151
26.456536000000003,10.124128140038616,0.0615826804682981
26.46114,10.145418999195178,0.0611118577883192
26.46572,10.167487108085243,0.0606473559164153
26.470316,10.189799586403602,0.0601767298759017
26.474896,10.216076356654987,0.0596918642734323
26.479496,10.238388834973344,0.0592233201045663
26.484088,10.26454342051058,0.0587460865440226
26.488684000000003,10.293885048247349,0.0582514862596677
26.493268,10.32923420624073,0.0577337121106149
26.49786,10.36715948286291,0.0572169813102534
26.502448,10.40532912891338,0.0566921247523472
26.507044,10.436836179687877,0.0561858014029986
26.511624,10.4634795040817,0.0556981730026651
26.516208,10.484604037075488,0.0552218068877341
26.520788,10.504951320335774,0.0547442019559769
26.52538,10.517736573872442,0.0542861536771671
26.529964000000003,10.529378023533171,0.053837464320752
26.534544,10.541386027336335,0.0533766079302759
26.539136000000003,10.553271846425355,0.0529209404816869
26.543724,10.560293939133697,0.0524786470603684
26.548312,10.560653436566067,0.0520510275713818
26.55292,10.553328719560676,0.051641014332458
26.5575,10.541140276174604,0.0512448161737224
26.562104,10.522533606940852,0.0508531011757159
26.566696,10.493422235212249,0.0504829357106906
26.571284,10.467131351540733,0.0501058229289961
26.57588,10.432256818983802,0.0497460778503287
26.580476,10.38573378005608,0.0494142592578081
26.585072,10.32756223475756,0.0491106790213022
26.589664000000003,10.263505343916574,0.048821648185972
26.594268000000003,10.19511760700012,0.0485548664206384
