Time,Force,Position
26.240832,9.357636236939042,0.1552228396878007
26.245424,9.431342537275864,0.1546538973087787
26.250004,9.480733388630984,0.1540879218215678
26.254596,9.49992344546192,0.1536122790568138
26.259184,9.50057145377121,0.1531480106601121
26.263763999999995,9.492048551809509,0.1526701845488667
26.26836,9.478617782018503,0.1522322909895491
26.272948,9.465231153676129,0.1518241690524409
26.277536,9.452543731801736,0.1514477623376825
26.282132,9.446030166346732,0.1510078262844332
26.286724,9.438250612301646,0.1505945592382452
26.29132,9.427039646628742,0.1502459797610677
26.295908,9.41791606072805,0.1498966319117677
26.300508,9.414521733838797,0.1495386519047604
26.305088,9.420698773179858,0.149124259436742
26.309688,9.427330649560613,0.1487528631655917
26.314276,9.443856304865497,0.1482789615726281
26.318876,9.459526667171357,0.1478478122327924
26.32346,9.476673485678708,0.1474479163702952
26.328056,9.500038302054074,0.1470225220801911
26.332648,9.530642735459251,0.1465540235380005
26.33724,9.566810101713092,0.1460554416394508
26.34184,9.605187032453289,0.1455543486369078
26.34644,9.644219028212843,0.1450523059686261
26.351028,9.6866043923347,0.1445286140079691
26.355624,9.725558344828736,0.1440694228882525
26.360212,9.764267927894483,0.1436259971202881
26.364799999999995,9.806697433464969,0.1431464889361105
26.369388,9.850148558197244,0.1426555749303382
26.373984,9.895154182396526,0.1421644577598696
26.378575999999995,9.944656978834049,0.1416331251288064
26.383168,9.99644738302345,0.1410676464032339
26.387764,10.050525394964728,0.140469174232423
26.392351999999995,10.10276039656208,0.1398637957280697
26.396947999999995,10.149965345615986,0.1393011002445978
26.401536,10.198680652688266,0.1387052182751318
26.406132,10.241754983646368,0.1381752664517763
26.410728,10.283641369279902,0.1376383240489934
26.415316,10.324339809588867,0.1370958981451595
26.419912,10.35988601264024,0.1365946307625954
26.424499999999995,10.394488639795336,0.1360779853100051
26.429088,10.428680571359363,0.1355526128236335
26.433684,10.46192892702712,0.1350104170181348
26.438275999999995,10.4975870751609,0.1344281309999477
26.442868,10.531035658808316,0.133852233239977
26.447447999999994,10.564440101007104,0.1332494769537361
26.452048,10.593836109824238,0.1326646221930744
26.456627999999995,10.620367489135653,0.1320842458317509
26.461228,10.643256989207847,0.1315062216289947
26.465812,10.662748979469118,0.1309231952901598
26.470403999999995,10.676022971862368,0.1303585859842807
26.474999999999994,10.683245292550374,0.1298338468044291
26.479592,10.68825804875202,0.1293129504096425
26.484179999999995,10.691061240467304,0.1287936987659637
26.488775999999994,10.688590010210849,0.1283096975774855
26.493376,10.684808649915675,0.1278202767835277
26.497968,10.678817725134143,0.1273309235223267
26.502556,10.67102793145732,0.1268547079033582
26.507144,10.66029546500926,0.1264083773436938
26.511731999999995,10.64919644441876,0.1259760987555751
26.516327999999994,10.637364315543389,0.1255736056615606
26.52092,10.621567894734987,0.1252118150355307
26.525512,10.605038365641713,0.1248788538030326
26.530103999999994,10.590185520729587,0.1245375730339476
26.534688,10.57484393696088,0.1242153672551474
26.53928,10.558891429621449,0.1239166351104186
26.543868,10.546170105930162,0.1236058355339046
26.548455999999995,10.532715673954003,0.1233236406318445
26.553064,10.520449187302418,0.1230517808577281
26.557652,10.506960853509373,0.1228275342061313
26.562248,10.49735876838384,0.1225948680993298
26.566835999999995,10.4921316707824,0.1223347064772286
26.571424,10.48527203044844,0.1221096332112188
26.57602,10.4802554004584,0.1218992083592835
26.58062,10.481534811601897,0.1216444966832554
26.585224,10.483347103050605,0.1213981500311785
26.589816,10.489290012595111,0.1211353636929989
26.594412,10.497931225482567,0.1208544239219056
26.599,10.508615676693609,0.120551601376196
26.6036,10.52003323618952,0.1202200111252899
26.608188,10.532961153703813,0.1198603432604322
26.612792,10.549731178436987,0.1194670158865632
26.617376,10.566090507579094,0.1190611457516805
26.621976,10.581428217559411,0.1186683490952033
26.62656,10.59635523194866,0.1182629744386088
26.631156,10.614469288537435,0.1178224129949187
26.635752,10.629107792049764,0.1174004936247703
26.640344,10.642846861114446,0.1169846489341168
26.644936,10.658629168502715,0.1165486429523176
26.649528,10.678986691394742,0.1160538941446966
26.654108,10.700610202876852,0.1155423070445997
26.658691999999995,10.720557030177812,0.1150386877053138
26.663284,10.744590334125949,0.1144963279886704
26.66788,10.76845731191131,0.1139335438499612
26.67248,10.791424855249025,0.1133796549956127
26.677076,10.814514583300882,0.1128226016495614
26.681667999999995,10.834373127704588,0.1122747264403331
26.686256,10.85231061849885,0.1117434343296038
26.690839999999994,10.871391913169052,0.1111998718462727
26.695428,10.892272076734548,0.1106478502996089
26.700019999999995,10.906489645024074,0.1101458362497105
26.704615999999994,10.919152713846596,0.1096463915004986
26.709204,10.931815782669116,0.1091473099752921
26.7138,10.940470418109983,0.108655304880573
26.718396,10.949247238264997,0.1081590556796686
26.722984,10.954548505343562,0.107679374628679
26.72758,10.966634552412245,0.1071485796086379
26.732167999999994,10.977410469442212,0.1066086568615392
26.736764,10.98855294061462,0.1060576010609822
26.741352,10.993032816511054,0.105554395975227
26.745948,10.99583600822634,0.1050579843570014
26.750528,11.0027256765888,0.1045270210416749
26.755123999999995,11.005118172713017,0.1040204684413668
26.759712,11.004567996066,0.1035359391722415
26.764312,11.00503943858078,0.1030442681333965
26.768896,11.00653250025735,0.1025447974122426
26.773492,11.011867669152805,0.102019922592698
26.77808,11.016425588314757,0.1014944014432852
26.782675999999995,11.021760757210208,0.100971258898098
26.787264,11.021987830296696,0.1004906376805379
26.79186,11.028755313945004,0.0999708820241583
26.796451999999995,11.035933493184384,0.0994647092606286
26.801044,11.044910541319052,0.0989511894064071
26.805636,11.059817076444828,0.0984224670084818
26.81022,11.0762781110376,0.0978956050416002
26.814808,11.095970329278533,0.097366825121242
26.819399999999995,11.111698255586433,0.0968705157322366
26.823996,11.130657365542488,0.0963716389164482
26.828584,11.14835048690846,0.0958915670692346
26.833184,11.16964134606502,0.0953954116164492
26.837772,11.187867347736203,0.0949237048731422
26.842368,11.202784122493712,0.0944874791188992
26.846951999999995,11.214513855051695,0.0940777128784923
26.85154,11.230985129276212,0.0936413932065344
26.856136,11.241937612100694,0.0932320369561068
26.860724,11.251990660477528,0.0928277459070271
26.865312,11.25987828581663,0.0924451086696752
26.869916,11.272507452822262,0.092037489293657
26.874503999999995,11.281294512609012,0.0916532370860886
26.8791,11.298909590709464,0.091213688539043
26.883688,11.31652466880992,0.0907771017479778
26.888284,11.337326789109898,0.0903161760946057
26.892876,11.35698510553394,0.0898685077118102
26.897472,11.374067303329184,0.0894290442534836
26.90206,11.387307393905544,0.0890108355054642
26.906668,11.398093550567252,0.088595308795163
26.91126,11.409001891943106,0.0881766071288049
26.915844,11.418355733851955,0.0877568240345471
26.920432,11.427831760474952,0.0873338295144049
26.925028,11.436286167936151,0.0869183042290894
26.929624,11.448704867330385,0.0864786090671884
26.93422,11.459446882543466,0.0860409237502357
26.938807999999995,11.480160719946191,0.0855421769033158
26.943408,11.502795610958357,0.085038151881575
26.947996,11.528128805313465,0.0845245549515419
26.952583999999995,11.55268474993507,0.0840111738342425
26.957172,11.579406117594408,0.083482934954203
26.961768,11.601385943587218,0.0829786442409097
26.966359999999995,11.626552811779554,0.0824514042016768
26.970952,11.644279834962417,0.081956201334636
26.975548,11.658286935640538,0.0814766197903039
26.980135999999995,11.669717917689866,0.0810034020041426
26.984724,11.682414888329278,0.0805172791204536
26.989312,11.696133478130482,0.0800264024236387
26.9939,11.714060729293008,0.07950653778543
26.998496,11.732110165169678,0.0789833825316805
27.003084,11.750403970474638,0.078454052507643
27.007696,11.76971939494139,0.0779195861780181
27.012276,11.78801320024635,0.0773921457040305
27.016864,11.811537286074426,0.0768333352960255
27.021468,11.835183556616649,0.0762736392541035
27.02606,11.863815738253692,0.0756903171558801
27.030656,11.88746200879591,0.0751374019628367
27.035236,11.90330188018622,0.0746211051062669
27.039836,11.921307174614263,0.0740908453911314
27.044428,11.942010772385244,0.0735567307949647
27.049032,11.958750078223204,0.0730430407504698
27.053608,11.978554241546542,0.072513461564691
27.058208,11.9952935473845,0.0720016669830022
27.0628,12.018451079070136,0.0714753642077129
27.067395999999995,12.04197516489821,0.0709377945940277
27.071976,12.066398685173931,0.0704009803619422
27.076572,12.089023336554355,0.0698693310844062
27.081168,12.107805880715905,0.0693522757894443
27.085767999999995,12.12953109764868,0.0688271552751149
27.09036,12.15011251070552,0.0683110984735167
27.094952,12.169427935172276,0.0678086242878552
27.09954,12.186700121315443,0.0673169523800927
27.104128,12.207159349658138,0.0668081739766416
27.108716,12.22083379801071,0.0663258737345683
27.113319999999995,12.232342823325554,0.0658583040120479
27.117912,12.236944883936134,0.0654187153710029
27.122496,12.241791313975009,0.0649727257162409
27.127088,12.252767458984636,0.0644976849007201
27.131668,12.26452085372777,0.0640272981652726
27.13626,12.27357594512796,0.06356188841745
27.140851999999995,12.283774840404089,0.0630880296447174
27.14544,12.29282993180428,0.0626238083020322
27.150048,12.303028827080407,0.0621512332723246
27.15464,12.305787877347065,0.06169492522029
27.159248,12.31075649210008,0.0612500881506721
27.163836,12.311516445491776,0.0608268189667019
27.168428,12.314075267778769,0.0604023009432129
27.17302,12.32047619728464,0.0599670758389695
27.17762,12.322668465429194,0.0595550245911258
27.18222,12.327559036916693,0.0591406351445158
27.186812,12.331427989242396,0.0587301422175806
27.191404,12.340038483234633,0.0583096647861589
27.195996,12.34444031586555,0.057910456627016
27.200588,12.353339320734708,0.0575079765789635
27.205168,12.363137760051512,0.0571051492959413
27.209772,12.37587887213955,0.0566925142999622
27.214364,12.386454561189858,0.0562919785510551
27.21896,12.392821588878842,0.0559121131413885
27.22354,12.391626586844213,0.0555467994278819
27.228136,12.391086649828932,0.0551879891962608
27.232724,12.389158539509426,0.0548431166479547
27.23732,12.383388321971037,0.0545064729725529
27.241912,12.379294788613798,0.0541725725986868
27.246503999999995,12.377000124151854,0.0538365361739917
27.251096,12.371229906613465,0.0534984883781735
27.25568,12.366603492951011,0.0531519947422385
27.260268,12.354048495422504,0.0528281587456758
27.264848,12.334586533189734,0.0525231224868009
27.269444,12.307440356519196,0.0522330087036997
27.274032,12.276452072629777,0.0519504179363161
27.278624,12.241866050949769,0.0516669550356257
27.283204,12.197674761222547,0.0514025393790323
