Time,Force,Position
32.66375599999999,6.820405893082606,0.1498355191757063
32.668344000000005,6.875821571036143,0.1498030875703104
32.672928,6.918746872173276,0.1496757089138208
32.67752,6.950736295961014,0.1494467990793487
32.682100000000005,6.971711799133836,0.1491696598196911
32.686708,6.98225040344558,0.148894698449487
32.691295999999994,6.982806945935942,0.1486821791019194
32.69588399999999,6.976901121129994,0.1485273693883401
32.700475999999995,6.969562981571189,0.1483750883928282
32.705076000000005,6.965944764517118,0.148164649148947
32.70966799999999,6.96424760107249,0.1479221183114772
32.714264,6.969457402332126,0.1475562208892064
32.718856,6.978631495524789,0.1471183889149959
32.723444,6.990626076774543,0.1466369722744341
32.728044,7.011082122195564,0.1460218068065411
32.732624,7.035424416284096,0.1453897018548574
32.737224,7.0619762748589885,0.1447547349050892
32.741820000000004,7.085341091234355,0.1441876450369037
32.74641199999999,7.11410251429561,0.1435485266814647
32.750996,7.150059412938046,0.1428211484486994
32.75559199999999,7.189369679942784,0.1420694700037443
32.760180000000005,7.225615089462139,0.1413827843243327
32.764771999999994,7.264192248182001,0.1406941429898172
32.769364,7.302402852759427,0.1400352460666842
32.773956,7.341390707070355,0.1393779805916909
32.778536,7.384098483886019,0.1386708044655061
32.783124,7.433713225405947,0.1378584319844072
32.787704000000005,7.486925704716466,0.1370083065327775
32.792283999999995,7.54115980318878,0.136145268276023
32.79687199999999,7.591063055585627,0.1353736296023526
32.801460000000006,7.641088492696621,0.1346044123228397
32.806051999999994,7.68841562646467,0.1338807283204253
32.81063999999999,7.733044456889775,0.1331913951225066
32.815228000000005,7.778162026171463,0.1324833686099072
32.819824,7.819804042376707,0.1318173750762514
32.824411999999995,7.860135928543237,0.1311554154544934
32.829012000000006,7.899690564976266,0.130501490888286
32.833603999999994,7.941899363303609,0.1297840949855192
32.83819199999999,7.985985073791765,0.129017700475947
32.842788,8.023241862841175,0.1283140720461376
32.847384000000005,8.054691349613636,0.1276517363723943
32.851984,8.088428444137971,0.1269506691103993
32.856564000000006,8.116358236385357,0.126290167886442
32.861155999999994,8.141301214412877,0.1256350523377817
32.86574399999999,8.16620005099177,0.124949664684077
32.870344,8.187745519208363,0.1242877897223853
32.874932,8.204793815186719,0.1236754715082024
32.87952799999999,8.217955862497561,0.1230762503442156
32.884124,8.230462844789047,0.1224750852516457
32.88871999999999,8.243702935365409,0.1218355645095485
32.89332399999999,8.25551071118891,0.1211970685554983
32.89792,8.261022445878876,0.1206140694302332
32.902508,8.268166723301364,0.1199862912040627
32.907107999999994,8.274778120418642,0.1193520816052023
32.9117,8.282533321411858,0.1186999687918875
32.916296,8.287223664919694,0.1180915336819737
32.920884,8.29276930142655,0.1174432724354921
32.925472,8.299991622114554,0.1167906452946192
32.93006,8.300429162812444,0.1162159198279028
32.934652,8.301643953243834,0.1156388136296805
32.939244,8.30465761257052,0.1150455081329767
32.943836000000005,8.30280754551653,0.114506780781526
32.948424,8.304066477396546,0.1139626673105009
32.953,8.304836670419983,0.1134409982853839
32.957592000000005,8.304096505425042,0.1129579561096591
32.962180000000004,8.309119501258426,0.1124167131026433
32.966768,8.31491974682531,0.1118761516456831
32.971363999999994,8.324850610488,0.1113211315801633
32.975944,8.333637670274747,0.1107852758154994
32.980532,8.347044087013883,0.1102136334503279
32.985124,8.360983384058226,0.1096552622888201
32.989704,8.383384145273839,0.1090212108967671
32.994296000000006,8.41057058960461,0.1083853961107781
32.998876,8.435880121774568,0.1078051990832338
33.00347599999999,8.460823099802088,0.1072461070493582
33.00806,8.486543327563112,0.1066869981176895
33.01266,8.51038664316332,0.106183077326422
33.017252,8.530510036258796,0.1057124980627276
33.021848000000006,8.552965178554775,0.105239969495681
33.026428,8.579018058641347,0.1047465605478144
33.03102,8.609323741537866,0.1042389793049528
33.035608,8.645270400548563,0.1036871806431319
33.040204,8.681461428987554,0.1031276391551113
33.044792,8.723537802969012,0.102515502351046
33.04938,8.76459255778868,0.1019155420361274
33.053968,8.802460270408817,0.1013623389182241
33.058564000000004,8.839550733295454,0.1008127627596748
33.063148,8.87279908896321,0.1002993652581258
33.06774,8.908867932688054,0.0997670155198273
33.07233599999999,8.938929246156281,0.0992973986158361
33.076924000000005,8.965392821833918,0.098849106429341
33.08151599999999,8.98891372474032,0.0984323900706486
33.086104000000006,9.006260771227332,0.0980498915963912
33.090692000000004,9.024340925999216,0.0976362004767329
33.095288,9.043442699932898,0.097214916834976
33.099868,9.06585370078025,0.0967556258109428
33.104456,9.089652874931833,0.0962721036078589
33.109044,9.116272537140503,0.0957714343840592
33.113632,9.143747492348194,0.0952359785777799
33.118236,9.168768513641234,0.094708293024612
33.122816,9.19068053600026,0.0941827245137014
33.12741199999999,9.208095386121052,0.0936820545803534
33.131992,9.2220346831654,0.0931942745621665
33.136596,9.235318915190389,0.0927063356597479
33.141180000000006,9.249214070786106,0.0921930605070851
33.14578,9.260777477181316,0.0916778837610882
33.150364,9.270664199395377,0.0911662956703558
33.154951999999994,9.279240791570723,0.0906414212146641
33.15953999999999,9.286629438421508,0.0901019282207745
33.164136,9.295894997433098,0.0895172466932369
33.168724,9.309491402520155,0.088886494596401
33.173316,9.321655492854358,0.0882501745603139
33.177904,9.335207756492787,0.0875909272555466
33.182492,9.347083335950067,0.0869349805605067
33.187079999999995,9.352129993968603,0.0862930989459837
33.191672,9.348837372530014,0.085694302657362
33.196264,9.341169763567333,0.0851078532787413
33.200860000000006,9.329249351794704,0.0845293422084315
33.205456,9.314141897822548,0.0839802762780456
33.210036,9.2962139557933,0.083445307034063
33.214628000000005,9.276364960154613,0.0829210583905183
33.219216,9.257415398963571,0.0823916597422123
33.223804,9.240386891381975,0.0818482339204496
33.228412000000006,9.217595222972056,0.0813396380708853
33.233000000000004,9.192882500952692,0.0808402416409593
33.237588,9.169846463114478,0.0803378070295726
33.242176,9.15028597835271,0.0798269668175761
33.246768,9.135344850543328,0.0792945432407148
33.251360000000005,9.116972311106128,0.0787997992574211
33.255956,9.099132651974138,0.0783160470639481
33.260548,9.079660450109628,0.0778650194830804
33.265136,9.058022825207384,0.0774326834327817
33.269735999999995,9.03332034281976,0.0770219611641682
33.274316,9.011071794346789,0.0766114768483007
33.278912000000005,8.995774352026706,0.0761866901096012
33.28350399999999,8.98767238528781,0.0757382690373344
33.288088,8.984722655806507,0.0752829074909653
33.292676,8.985903544421008,0.0748292118790847
33.29727199999999,8.994402093330839,0.0743512979435548
33.301860000000005,9.007519999193054,0.0738564052624273
33.306456,9.022070219808128,0.073371429552657
33.311043999999995,9.0384193093185,0.0728829432845704
33.315636,9.060165005514753,0.0723839984426626
33.320228,9.083465201178011,0.0718893519625546
33.32482399999999,9.114083057136604,0.0713749317662002
33.329412000000005,9.144578728381047,0.0708674304467124
33.334008,9.173275530730196,0.0703677409449421
33.3386,9.200706344489255,0.0698885980846809
33.343180000000004,9.232878699914853,0.0693904632763687
33.34777199999999,9.26378506675036,0.0689102912267445
33.35234799999999,9.29379199913822,0.0684329574766123
33.356944,9.329317722926117,0.0679408245509209
33.36152799999999,9.368196815076308,0.067451243001641
33.366116000000005,9.408996960835944,0.06695819700104
33.370728,9.449019856862076,0.0664669059980018
33.37532,9.490186556764147,0.06597035967481
33.379908,9.530698191646865,0.0654705217421624
33.384496,9.567612088738988,0.0649794776310004
33.389088,9.596553260516428,0.0645015172094048
33.39368399999999,9.624350628417927,0.0640378012593353
33.398264,9.651492931300073,0.0635674838288491
33.402863999999994,9.677735799734569,0.0631010183644506
33.40745199999999,9.697438257607237,0.0626567971314916
33.412052,9.721105007412936,0.0621957547043069
33.41664,9.738764226962015,0.0617684608017164
33.42124,9.756545631225244,0.0613378986261014
33.425828,9.776248089097914,0.0609027599199463
33.43042,9.793496613055932,0.0604632669139951
33.435012,9.808946268118651,0.0600282257583661
33.43960799999999,9.826561346219108,0.0595788216217379
33.444196000000005,9.845564597623794,0.0591115881761865
33.44878799999999,9.86199173039968,0.058645892835092
33.45338,9.875065494813269,0.0581754590223779
33.457964000000004,9.880455044789088,0.0577301684220309
33.462543999999994,9.884822975603116,0.057291431042523
33.46714,9.88228394171288,0.0568807617509122
33.471732,9.876802235051407,0.0564812649188699
33.47632,9.874263201161174,0.0560706435824126
33.480912000000004,9.873933731757296,0.0556737278282366
33.485491999999994,9.870783774296337,0.0552832951991117
33.490084,9.86853325128302,0.054892178979094
33.494668000000004,9.865383293822056,0.0545017272352249
33.49925999999999,9.862477705789384,0.0541014752267203
33.50386399999999,9.853808956928386,0.0537179615145502
33.508452000000005,9.844485143048034,0.0533252842423312
33.513040000000004,9.832218656396448,0.0529418277557504
33.51763199999999,9.812145770592949,0.0525825789399589
33.522223999999994,9.79146196121872,0.0522436048717442
33.526816,9.768612728806758,0.0519176417073177
33.531412,9.744497507804711,0.051604890027285
33.536007999999995,9.716173625441348,0.0513136387573212
33.540595999999994,9.68351889700252,0.0510483854392455
33.545196000000004,9.653195917764194,0.0507938819699479
33.549775999999994,9.623650188259372,0.050541115985064
33.554376000000005,9.589895797393233,0.05031016277171
33.55896799999999,9.558062460136531,0.0500723476908115
33.563564,9.527006372613334,0.0498372754158631
33.568160000000006,9.48994275483352,0.0496240456966916
33.572751999999994,9.452101887320206,0.0494051880783725
