Time,Force,Position
34.413,3.653924985798209,0.1492865526006702
34.417588,3.762760427751992,0.1483231958417494
34.422176,3.860181493131533,0.1475270435658036
34.426768,3.952073527479303,0.1466523158043993
34.431356,4.038680900223593,0.1456556615493843
34.43596,4.117427492735604,0.1446535740472433
34.440556,4.194198650557808,0.1434424927764338
34.445144,4.26094360511,0.1423104184114998
34.44974,4.31488600978372,0.1414114809996749
34.454332,4.358724167921912,0.1406588449615003
34.458924,4.395200524316149,0.1400401099857221
34.463504,4.428567881776376,0.1394592375086397
34.468104,4.460380739769597,0.1389008060623829
34.472692,4.488062979667017,0.1384135699361204
34.477292,4.505851440640311,0.1381310170813754
34.481888,4.525927509365483,0.1377696352446216
34.486488,4.5468588710896745,0.1373330464452767
34.49108,4.567379537222803,0.1368712332313945
34.495676,4.590065626393662,0.1363416229159632
34.500264,4.609398347202221,0.1358665636806921
34.50486,4.626687829687194,0.1354543352253646
34.509448,4.644588235742894,0.1349958729460763
34.514044,4.664654064836328,0.1344681183365193
34.518624,4.688806370576935,0.13384552876428
34.523212,4.714757545212838,0.1331986768630425
34.527792,4.7396871006869485,0.1325856756562575
34.532384,4.75950856035209,0.132116006597464
34.53698,4.780107269750735,0.1316437226052985
34.541568,4.803404282492322,0.1311268598534846
34.54616,4.829277413862708,0.1305821225554277
34.550748,4.856705044700099,0.130033506062511
34.555344,4.889895836365811,0.1293803272975325
34.559924,4.924230431907466,0.1287000715430271
34.564512,4.959464461896768,0.128011190966813
34.56912,4.999562218266745,0.1272053471173543
34.573708,5.035529356540921,0.1264515277545505
34.578296,5.069575441205655,0.1257484479617899
34.582892,5.101944841689238,0.1250657918526674
34.58748,5.133659177153466,0.124386168491504
34.592076,5.165862251474276,0.1236708188690363
34.596668,5.196999565184664,0.1229236588144292
34.60126,5.226993075019113,0.1222250463447535
34.60584,5.257475323710144,0.1214937059101426
34.61044,5.279618292944054,0.1209065087043735
34.615028,5.298652263243954,0.1203360391384388
34.619628,5.319440960990525,0.1196932857568619
34.62422,5.337120659803084,0.1190561626108888
34.628816,5.352468609415137,0.1184270797010366
34.633408,5.36393031035968,0.1178119278305635
34.638004,5.3702397740466274,0.117252375459908
34.642592,5.373562423513711,0.1166942853765852
34.647188,5.364825871018935,0.1163219217114211
34.651776,5.352858134876006,0.1159677911162436
34.656372,5.34023533371372,0.115605755826367
34.660956,5.3310439441792505,0.1151521767931954
34.665544,5.322996358520722,0.1146672199498069
34.670132,5.310940339480536,0.1141989247081212
34.674728,5.300028124316288,0.1136991431741048
34.67932,5.286295421094952,0.1132415349849478
34.683912,5.273095598178827,0.1128007108033413
34.688508,5.259773590548555,0.1123674452361539
34.6931,5.240810606804105,0.1120182432596779
34.697696,5.221847623059656,0.1116673743053949
34.702284,5.206971115962381,0.1112336940219794
34.706876,5.194548542779758,0.1107863035636717
34.711464,5.179349622988674,0.1104346841810049
34.716052,5.170324559616981,0.1100182892290091
34.720656,5.164897234035877,0.1095602987767432
34.725244,5.163600526550575,0.1090784156331783
34.729832,5.16577937214172,0.1085638271382865
34.73442,5.170045597505079,0.1080650418518385
34.739012,5.185105036240214,0.107442047107974
34.743616,5.199186997262181,0.1068895586816493
34.748212,5.21188078497992,0.1063852359598216
34.752816,5.221798226089197,0.105981752890689
34.757396,5.233803046970689,0.1055987200797216
34.761992,5.254313473472077,0.1051588780509032
34.766584,5.27523459556453,0.1047488572825216
34.77118,5.298731836285782,0.1043194799414958
34.775772,5.320963088416947,0.1039286358009827
34.780368,5.345770459176912,0.1035219586914131
34.78496,5.3742977524416125,0.1030639163122312
34.789556,5.399515818792642,0.1026807674171481
34.794152,5.426943449630032,0.1023144734570694
34.79874,5.448485734924952,0.1020381554409007
34.803328,5.471171824095812,0.1017353031830237
34.807924,5.492958478819023,0.1014476936292604
34.812504,5.519120121066328,0.1011347778211683
34.817092,5.54593682833299,0.1008362339533209
34.821672,5.571487547009565,0.1005735941031516
34.826264,5.596261015952641,0.1003120072414868
34.83086,5.616537312657476,0.1000965652009851
34.835456,5.643187693761365,0.0997657034544685
34.840052,5.671759128474694,0.0994103801829491
34.84464,5.696855010111578,0.0990770743521567
34.849228,5.717453719510223,0.0987857800834514
34.853828,5.732000757203624,0.0985389376248839
34.85842,5.7494904676682586,0.0982552719037869
34.863016,5.769023416456481,0.0979435570553649
34.867604,5.792887211320168,0.0975565255941838
34.8722,5.814707767860269,0.0972035201160455
34.876788,5.838815932152248,0.096807093276824
34.881376,5.866888388377257,0.0963571522817197
34.885972,5.890585857078172,0.0959399820343786
34.890564,5.923233528806936,0.0954035020235291
34.89516,5.958046623573433,0.094836360765531
34.899748,5.992981903054075,0.0942691995733189
34.904344,6.014181296391709,0.0938214393026289
34.908932,6.032149506081188,0.0933800984013014
34.913532,6.05342694268434,0.0928830049103405
34.91812,6.079035225362956,0.0923200042293461
34.92272,6.105909496631658,0.0917305915136627
34.927312,6.129186030109768,0.0911753025640756
34.931904,6.151274618263311,0.0905969303254166
34.936488,6.179615106101761,0.0899313656658066
34.94108,6.208566517510939,0.0892248793657776
34.94568,6.236618494472469,0.088523537743079
34.95028,6.260662038052344,0.0878292195845978
34.954872,6.276610671603386,0.087186787358272
34.959464,6.28806213291619,0.0865792934302217
34.964052,6.295505160847336,0.0859660235658354
34.96864,6.299106081559602,0.0853920070653896
34.973228,6.300497437785505,0.0848064205436203
34.97782,6.302377532867991,0.0841900293422307
34.982416,6.2962849026357945,0.0836159286476815
34.987008,6.282097362374764,0.0830864366819419
34.991604,6.262513215427847,0.0825860019067289
34.996184,6.252900890670575,0.0819693164070585
35.00078,6.240712447284504,0.0813562662481729
35.005368,6.222227962764899,0.0807773685822768
35.009956,6.198757567150472,0.0802537874807536
35.014568,6.172711052907246,0.0797347252355889
35.019156,6.147441788397524,0.0792171288089212
35.023764,6.124626457802452,0.0786994092274741
35.028348,6.0985019002937095,0.0782318264728653
35.032952,6.072910223090177,0.0777790323117415
35.037544,6.051038468391382,0.0773004033667376
35.042136,6.028677974836004,0.0768487756360947
35.04674,6.014656760737749,0.0763423254980021
35.051332,6.002190046106498,0.0758419367210601
35.055936,5.997040991770575,0.0753006983263086
35.060516,5.996389109672891,0.0747409696020013
35.065116,5.997169542328068,0.0741963975466333
35.069704,5.997339051412514,0.0736874785885768
35.074296,6.0051147316692095,0.0731761868998245
35.078884,6.0198415180787945,0.0726482222736115
35.083476,6.042907583945503,0.0720766201347641
35.088072,6.067039410422633,0.0715506822222519
35.092668,6.100043396662096,0.0710029252868807
35.097248,6.136522935978005,0.0704485975648027
35.101844,6.173657540313269,0.0699064376449708
35.106432,6.212346644115539,0.0693744884676697
35.111024,6.248748140165931,0.0688797160774835
35.115612,6.285926885949823,0.0683969642793527
35.120208,6.3261704892190975,0.0678903854653352
35.124792,6.3703783844214,0.0673568841547509
35.129392,6.412787410728406,0.0668355260098308
35.133976,6.458261294520793,0.0662900782600473
35.138568,6.505534047208475,0.0657528969746951
35.143164,6.55190736544851,0.0652227077131344
35.147752,6.60007955258384,0.0647007272746822
35.152352,6.645797805804518,0.0641794393478498
35.156932,6.692659862901136,0.0636497615131802
35.161524,6.746551069416163,0.0630751071513973
35.166112,6.793246800350007,0.0625209393126633
35.1707,6.841330704588081,0.0619477644421234
35.175288,6.885694686321418,0.0613984025743906
35.179884,6.92490643079716,0.06085141032529
35.18448,6.960886991624747,0.0603025428724347
35.189076,6.998910790775922,0.0597431052898468
35.193676,7.038444947945472,0.0591550963518867
35.198268,7.080921777886257,0.0585566517259291
35.20286,7.124908965845418,0.0579276118148827
35.207456,7.164521166280487,0.0573033443771301
35.212032,7.201435063372611,0.0566897803033254
35.216632,7.234629037959998,0.0560922061920595
35.221216,7.266679208671445,0.0555092604382411
35.225816,7.295664521897513,0.0549507356037895
35.230408,7.317209990114106,0.0544158019504988
35.234996,7.338877643044846,0.0538768059269365
35.239584,7.353227635680256,0.0533539017081501
35.24418,7.366433824439728,0.0528445111845701
35.248768,7.373632482942583,0.0523684444014496
35.253364,7.369182635074646,0.051942005261102
35.257952,7.368697079139735,0.0514948384574435
35.262536,7.3650244810053,0.0510748150509259
35.267128,7.356610341204332,0.0506674751938635
35.271724,7.348851266422723,0.0502699557406453
35.276312,7.3341852269368495,0.0499028940151895
35.280908,7.314533276356154,0.0495600822303477
35.285504,7.289895414680637,0.0492399515190329
35.290092,7.259616576890941,0.0489314870928221
35.29468,7.225251262454071,0.048644429272548
35.299268,7.1906415785889095,0.0483663469581279
35.30386,7.151045983628926,0.0481090592412732
