Time,Force,Position
32.41382,2.740230905560114,0.1586663914651738
32.418408,2.9233874452098414,0.1581673030265193
32.422992,3.101870246826816,0.1574403645069505
32.427584,3.27171501847801,0.1567325697950195
32.432176,3.43586443293466,0.1558464374174067
32.436768,3.583036537968407,0.1553709973953048
32.441344,3.724391101093463,0.1547187850630959
32.44594,3.857229818966884,0.1540336318621201
32.450528,3.978199323226372,0.1533847822252642
32.45512,4.09024228664316,0.1526666385843193
32.459716,4.193358709217248,0.1519145126842377
32.464292,4.286404787072695,0.1511403922575752
32.468892,4.367337281885918,0.150423718560637
32.47348,4.431903390846967,0.1498801233686072
32.478068,4.481901982851137,0.1494761206067729
32.482664,4.519376296222016,0.1490791621730861
32.487256,4.546003015140754,0.1486719219395518
32.491852,4.56039396630312,0.1483209435486111
32.49644,4.565047225072394,0.1480569361973318
32.524,4.477044622313805,0.1479614354267428
32.528596,4.460834322992666,0.1479114374154989
32.53318,4.443191708918668,0.147862573916602
32.537772,4.423994595377666,0.1478284475972013
32.542364,4.407495785179606,0.1477343267354225
32.546956,4.391652040000904,0.1476423371779205
32.551548,4.375319555965618,0.1475955284250072
32.55614,4.36078594082563,0.1475091143612134
32.560732,4.354469420428615,0.1472370410008414
32.56532,4.353182952575052,0.1468849051668847
32.5699,4.35128556115076,0.1465921685568676
32.574492,4.3551954720034205,0.1462126393575581
32.579084,4.361314947342442,0.1458247385373462
32.583676,4.376062213015507,0.1452869842423839
32.588268,4.389176935956049,0.1448342971698909
32.592848,4.4034796042211575,0.1444003248080637
32.59744,4.428086747001459,0.1437895652972857
32.602032,4.458623376772858,0.1430896591160395
32.60662,4.4940678743735605,0.1423292980839403
32.611212,4.526980394794093,0.1416822894325335
32.615804,4.56708839079581,0.1408897307533691
32.620404,4.606463278512652,0.1401930164050398
32.625,4.644982873230475,0.1395753026798645
32.629592,4.6858342171488045,0.1389418912876372
32.634184,4.729139494981785,0.138291961335205
32.638772,4.774121456995917,0.137630990484168
32.643372,4.817837430419964,0.1370201382493784
32.64796,4.863107903311015,0.1364081268269658
32.65256,4.905435703430831,0.1358934976632859
32.657148,4.946986253817144,0.1353903151973228
32.661748,4.9894362386511055,0.1348711232373434
32.666332,5.032130592913358,0.134344523520682
32.67092,5.074947131889757,0.1338155107722931
32.675516,5.113510868056207,0.1333595871997178
32.680112,5.161024807250509,0.1327076849746339
32.6847,5.212625223091984,0.1319655531044357
32.689296,5.256497283047065,0.1313391954271529
32.693884,5.296483094334637,0.1307483661447807
32.698476,5.336302579459434,0.1301287508788143
32.703068,5.376855172869105,0.1294504678351637
32.707656,5.4132771481829725,0.1288226170716699
32.712244,5.443525267077452,0.1282792215669362
32.71684,5.478348601475688,0.1276125927513182
32.72142,5.512761240282859,0.1269284724039464
32.726012,5.545086499317814,0.1262479718301134
32.730604,5.574302759418761,0.125587531394021
32.735184,5.60461868194702,0.1248450645012666
32.73976,5.633868843864856,0.124082265996931
32.744372,5.660909441296331,0.1233277418106126
32.748952,5.688316592870243,0.1225512644758661
32.75354,5.716456852729031,0.1217264536690041
32.758128,5.740344309777869,0.1209472772003689
32.762716,5.762022202340346,0.1201712294387267
32.767312,5.78214559543582,0.1194035373916242
32.7719,5.792130840178874,0.1187863823002141
32.776504,5.7959422285025415,0.1182414436995084
32.781092,5.8034735393309465,0.1176440717983795
32.785692,5.809983230997555,0.1170671795669799
32.790272,5.809952512102339,0.1165850040581333
32.794872,5.809022358759474,0.1161135842338996
32.799456,5.808336574844901,0.1156251392205486
32.804044,5.81210382171994,0.1150309721249998
32.808636,5.812273330804387,0.114484396831295
32.813228,5.810766155707682,0.1139508168388348
32.817828,5.805294688677952,0.1134836951711685
32.82242,5.800478286667578,0.1130230548923687
32.827008,5.794151526638826,0.1126155185383924
32.831604,5.787580397181784,0.1122261628729884
32.836192,5.780887083010595,0.1118452761184979
32.840776,5.773416519105904,0.1114660177829352
32.845364,5.76492433603942,0.1111050915226678
32.84996,5.760274260191818,0.1106887406200526
32.854552,5.75640143407772,0.1102709542158845
32.859132,5.74921938104995,0.1099215904045417
32.863724,5.74371401220333,0.1095587838846619
32.868312,5.744749053918534,0.1091124918566403
32.872904,5.742841422862504,0.1087127673748427
32.877488,5.743632095149418,0.108285957763183
32.88208,5.747121070779276,0.1078278739991687
32.886668,5.751387296142635,0.1073689230420796
32.89126,5.756430771239497,0.1069111307144977
32.89586,5.760086073032129,0.106498442877514
32.900456,5.766317493453558,0.1060704609317305
32.905048,5.774103413341991,0.1056426380877121
32.909652,5.785853625163454,0.1051538218442706
32.914232,5.799524890594356,0.104642460197829
32.918832,5.815117209634701,0.1041063306400568
32.923412,5.830709528675046,0.1035742902263738
32.928016,5.845035859125306,0.103075581671136
32.932604,5.8589956354331285,0.1026032140055147
32.937196,5.8755315303697495,0.1021190592024414
32.941788,5.893621924773374,0.101643399323264
32.946384,5.913389003358149,0.1011636076047243
32.950972,5.940962481094837,0.1005816217870743
32.955564,5.974299119659847,0.0999336499666202
32.960164,6.003427096863538,0.0993643951130037
32.964764,6.036397181286112,0.0987535253405112
32.969352,6.065402973775658,0.0981980174013879
32.973948,6.097229254322293,0.0976160057938477
32.978528,6.129954969316573,0.0970299842424599
32.983116,6.1637023034726495,0.0964364215171091
32.987704,6.196550203181076,0.0958509431941009
32.992296,6.22502311536541,0.0952978606790082
32.996892,6.253740396978035,0.094734396817698
33.00148,6.284256547485956,0.0941656497748444
33.00608,6.316693751603319,0.0935863931834112
33.010668,6.352073628491917,0.0929817129188294
33.01526,6.386554070932867,0.0923877303705035
33.019844,6.424465925001635,0.0917348086631024
33.024432,6.463399398232195,0.091071262798785
33.02904,6.4995123834056665,0.0904400699254295
33.033616,6.531128196340899,0.0898454096869365
33.038212,6.563232748132714,0.0892299883655351
33.042804,6.593660615743378,0.0886295001890068
33.047392,6.622289614458746,0.0880496864258026
33.051988,6.653328405640139,0.0874282311246211
33.056568,6.6829348820686745,0.0868045199465096
33.061168,6.714951150963233,0.0861356798546281
33.065752,6.747089604571937,0.0854676199598381
33.070344,6.781637850646666,0.0847640330417643
33.074932,6.813365608664305,0.0840862130661315
33.079532,6.849179843329118,0.083368112632678
33.084116,6.886670762175082,0.0826484024666999
33.088712,6.925061115468694,0.0819316655509572
33.0933,6.959853730971713,0.0812392159366151
33.097896,6.9891275550747,0.0805850775117798
33.102492,7.014925826101241,0.0799488782886786
33.107088,7.041745716289575,0.0793054230995921
33.111676,7.066522368154322,0.0786886431809649
33.116264,7.089988889980357,0.0780564722674588
33.120852,7.1090804242823,0.0774344490742134
33.12544,7.126250904974799,0.0768246491960327
33.130028,7.137536040124829,0.0762646640804651
33.134624,7.143180199160681,0.0757406635483844
33.139208,7.147147674015382,0.0752202644710705
33.143788,7.146617976631845,0.0747184998876982
33.148372,7.143267791191218,0.0742340138256113
33.152964,7.139795421036444,0.0737564624970276
33.157556,7.131825878643432,0.0732955451379443
33.162148,7.116172121812656,0.0728856126977429
33.16674,7.099741115248376,0.0724705963339504
33.171328,7.078446382303419,0.0720903534582703
33.175924,7.053553911567873,0.0717202618123003
33.180512,7.023020464718146,0.0713798709634903
33.185108,6.991465398706627,0.0710465021124634
33.189704,6.959788147980963,0.0707172558895773
33.194308,6.925290409198209,0.070400402731904
33.198896,6.889115986234303,0.0700804476536717
33.203496,6.849998890499166,0.069779564335818
33.208084,6.812680663659321,0.0694693944277499
33.212684,6.779981793771864,0.0691357128795603
33.217276,6.7512472158174335,0.0687694623863198
33.221876,6.725455310634238,0.0683790765683537
33.22646,6.704282762403427,0.0679665563290492
33.231056,6.680944791134884,0.0675769340018316
33.235644,6.660960188228642,0.0671882053111421
33.24024,6.639343042589877,0.0668386643251816
33.24484,6.619646950560553,0.0664772115421974
33.249436,6.608290137988352,0.0660819516200461
33.254028,6.604128800997333,0.0656672156287237
33.25862,6.60344301708276,0.0652502616368349
33.2632,6.605455536511131,0.0648266053592752
33.267792,6.614663531520684,0.0643863774048232
33.272384,6.632332990701506,0.0639098385325512
33.276988,6.65437743740642,0.0634313694066089
33.28158,6.68104124106372,0.0629385840475023
33.286168,6.712735097264469,0.0624547395891441
33.29076,6.746516333237434,0.0619995393247676
33.295352,6.785816360610433,0.0615285336451903
33.299944,6.829247006079232,0.0610763428179768
33.304532,6.876153204624478,0.0606295133881792
33.309128,6.925757706512669,0.0601861038896061
33.313724,6.981536064820245,0.0597448008732331
33.318312,7.038991107308974,0.059313159339622
33.322908,7.101065506750088,0.0588716096090049
33.327496,7.165838209534144,0.0584327930582381
33.332084,7.238661680898405,0.0579452838214259
33.33668,7.30907535979664,0.0574953228103106
33.34128,7.372337704562321,0.0571023746060783
33.345872,7.434700614880354,0.0567169627378829
33.350452,7.497063525198387,0.0563371470539712
33.355052,7.560448054678213,0.0559559549324062
33.35964,7.621911530548599,0.0555885634939472
33.36424,7.676712411143011,0.0552501975984584
33.368824,7.730080976984566,0.0549017399657275
