Time,Force,Position
32.756772,6.566037906730448,0.1554553851969833
32.761368,6.643396325938229,0.1548246492445744
32.765967999999994,6.701235218911202,0.1542920691408361
32.77056,6.748470886860321,0.1537521444181837
32.775156,6.78179410287192,0.1532750942823861
32.779751999999995,6.812819471499902,0.1527305219891127
32.784344,6.843756557230628,0.1521061008882452
32.788936,6.871540502578717,0.1514655526431457
32.793527999999995,6.907619585935298,0.1506453084126289
32.79812,6.933272010062543,0.1499659490709944
32.802708,6.956181989398216,0.1492906488751869
32.807295999999994,6.978392762265905,0.1485766367734803
32.811884,6.996595101751937,0.1479046729931906
32.816472,7.01732941841814,0.1471579553346668
32.821064,7.035121062313106,0.1464685107856762
32.825647999999994,7.04907059898919,0.1458501223702659
32.830236,7.058767332855326,0.145281513413878
32.834827999999995,7.073694347244576,0.1446045931034038
32.839412,7.083757635253149,0.1440180557969013
32.843999999999994,7.089079381595192,0.1435124475339939
32.84859599999999,7.094689638814154,0.1430339435950571
32.853184,7.098911722728886,0.1425978436193658
32.857783999999995,7.108163859187068,0.1421139447860973
32.862376,7.117293810931103,0.1416418384241005
32.866975999999994,7.130143685179876,0.1411140554125432
32.87157199999999,7.140583766962626,0.1406503330114871
32.876164,7.1504129251746456,0.1402267858277885
32.880759999999995,7.159753344530085,0.1398325252812592
32.88534,7.166028906400142,0.1394988871250936
32.889928,7.181132486583904,0.1390198027133675
32.894516,7.196891131787022,0.1385463316363797
32.899116,7.2152258956189375,0.1380533594753552
32.903712,7.232416855574915,0.1375864874853052
32.908303999999994,7.250507249978539,0.1371115832331721
32.912887999999995,7.268064764076954,0.1366246327986961
32.917483999999995,7.284600659013575,0.1361540082768461
32.922079999999994,7.305100845883223,0.1356200454497018
32.92667599999999,7.32457941359108,0.1351106781054081
32.931264,7.347367208212607,0.1345368538823439
32.93586,7.371298806710073,0.1339391279851935
32.940448,7.39134415654003,0.1333568111891983
32.945035999999995,7.413799298836009,0.1327193193215917
32.949624,7.431879453607896,0.1321314129235181
32.95422,7.448282924198631,0.131560723852102
32.958808,7.466074568093597,0.1309572337514172
32.9634,7.486398189168734,0.1302961909300833
32.967996,7.506966179672162,0.1296251960211589
32.972584,7.52892234347982,0.1289174372235919
32.977176,7.551245061429915,0.1281941364158846
32.981756,7.568048987979977,0.1275404820004727
32.986343999999995,7.589305945319649,0.1268111696980903
32.990939999999995,7.605166295973435,0.1261413578380883
32.99552799999999,7.62163757019795,0.1254382235168326
33.000116,7.637087225260671,0.1247536028216096
33.004707999999994,7.658300041151715,0.124000442599118
33.009308,7.68372151840408,0.1231808958443204
33.0139,7.707221942047004,0.1223909802949753
33.018491999999995,7.726469562879978,0.1216325033342052
33.023095999999995,7.742530141513426,0.1209292642478783
33.027683999999994,7.757691285699227,0.1202354857370473
33.032284,7.780047905466212,0.119476894987013
33.036863999999994,7.804325578842638,0.1187031477340121
33.041459999999994,7.831545924990298,0.1178957140776707
33.046052,7.8587662711379584,0.1170910818469899
33.050652,7.883699009533742,0.1163338921927439
33.055243999999995,7.90532252101585,0.1156361746894226
33.059839999999994,7.925024978888517,0.1149623822033495
33.06443599999999,7.947425740104133,0.1142711022077499
33.069028,7.968438328015515,0.1136158475517245
33.073623999999995,7.995869141774577,0.1129079923157352
33.078216,8.015004817525146,0.1123197010674769
33.082808,8.036960981332806,0.1117047228927537
33.087404,8.061659589932034,0.1111078839558047
33.091992,8.0893008713025,0.1104824057562551
33.096576,8.113510741045145,0.1099213110319006
33.101164,8.138375675807152,0.1093722155172078
33.105756,8.1659389139121,0.1088076109571326
33.110352,8.197754954826996,0.1082232396652219
33.114943999999994,8.232513668513127,0.107609953346722
33.119532,8.267927447218613,0.1070031621171118
33.12412,8.29937693399107,0.1064460907503746
33.128708,8.329316062745153,0.1059310555681259
33.1333,8.358111387623296,0.1054385185586624
33.137888,8.386784527787295,0.104953713480524
33.14248,8.416357102398939,0.104465143283715
33.147068,8.45079340339126,0.1039332210932578
33.151656,8.488294561868962,0.1033697469031387
33.156251999999995,8.521054178680135,0.1028507415179971
33.160836,8.553935980205452,0.1023274845815242
33.16544,8.579133567293,0.1018770262611599
33.170036,8.606618762132431,0.101390479349013
33.174628,8.630139665038833,0.1009444814030901
33.179208,8.651939742315456,0.1004736053924054
33.183808,8.670019897087343,0.1000338318981003
33.18839199999999,8.688955344858247,0.0995574464141408
33.192995999999994,8.703637989819207,0.0990993788725825
33.197576,8.713945647256072,0.0986643510581568
33.202172,8.722943174654224,0.0982198818735065
33.20676,8.729731137566013,0.0977706804590525
33.211352,8.738151643210326,0.0972849479876273
33.215936,8.742563715472983,0.0968006496688793
33.220524,8.744233342944067,0.0962986603905439
33.225108,8.745492274824086,0.095780987276026
33.229692,8.750060433617778,0.0952240701049456
33.234272,8.754584450962842,0.0946358828715598
33.238864,8.752934611888515,0.0940767346614574
33.243447999999994,8.747442665595305,0.0935473977918843
33.248036,8.745137761501622,0.0929828203059889
33.252627999999994,8.742544346531021,0.0923960238606309
33.257203999999994,8.738274247379268,0.0918084631615139
33.261784,8.7352701368176,0.0912002706291245
33.26638,8.73839574122669,0.0905339897457467
33.270964,8.741154791493345,0.0898852649920713
33.275544,8.745424199778375,0.0892062280480329
33.280136,8.745607131416234,0.0885654112606268
33.284732,8.747588931949386,0.0879160687657752
33.289331999999995,8.751369601377835,0.087258188119003
33.29392,8.756949139701579,0.0865952729848235
33.29852,8.760896135292803,0.0859673339454085
33.303107999999995,8.761778273398644,0.0853677645514009
33.307703999999994,8.770755321533317,0.0847340859795077
33.312292,8.779243630811406,0.0841205275120206
33.316892,8.782868213708818,0.0835399206851122
33.321476,8.779585831901969,0.0830122530486474
33.326068,8.772627669039009,0.0825369398187268
33.330656,8.766202386481261,0.0820718247150892
33.335248,8.763619211142395,0.081582073476624
33.339839999999995,8.757848993604005,0.0811240746703509
33.344432,8.752367286942533,0.080688856274747
33.34902,8.755469229166476,0.0802016557845873
33.353612,8.760902920590924,0.0797226279045228
33.3582,8.761228516206405,0.0792875908761757
33.3628,8.760532492660094,0.0788610908337062
33.367383999999994,8.75910336082891,0.0784663699377797
33.371972,8.762293585950108,0.0780509656264116
33.376563999999995,8.766138876090663,0.0776440340048227
33.381144,8.768063112621778,0.0772481225514048
33.385735999999994,8.76769974140101,0.0768800846124264
33.39032,8.770401227665628,0.0764879289092088
33.3949,8.778377135901986,0.0760852611079462
33.39950399999999,8.781611502471813,0.0757088962684623
33.404092,8.786766922651083,0.0753218480835302
33.40868,8.798340568678032,0.074910331841227
33.413272,8.814777941085659,0.0744699424576225
33.41786,8.834157986264518,0.0740108191981997
33.422464,8.8585239425382,0.0735206208397543
33.427052,8.87712673798356,0.073061780945107
33.431656,8.901614878971387,0.0725704468218111
33.436243999999995,8.926469574101654,0.0720658557264835
33.440844,8.94964758505077,0.0715675223697839
33.445432,8.969716597065874,0.0710619193484839
33.450028,8.992850466566363,0.0705358256535551
33.454612,9.01712813994279,0.0699990598301131
33.459204,9.038585325262124,0.0694730112859578
33.463784,9.057222022524376,0.0689605250010938
33.468376,9.074059850891324,0.0684535538957192
33.472964,9.092940917581863,0.0679332044813697
33.477552,9.110145300091254,0.0674120325565425
33.482132,9.127594052028932,0.0668841518113801
33.486715999999994,9.142833239480252,0.066347179936123
33.491299999999995,9.161015099702803,0.0657972347209868
33.495887999999994,9.180995828820658,0.0652466431207606
33.50048,9.19893331961492,0.0647116045788362
33.505067999999994,9.214827572085596,0.0641910566908521
33.509663999999994,9.230966193984564,0.063662494219214
33.514239999999994,9.240320035893411,0.0631647692406944
33.518828,9.25453760418294,0.0626447408181524
33.523432,9.262092577196494,0.0621511975365718
33.528012,9.270546984657695,0.0616580039927156
33.532616,9.275692165205225,0.0611939901907733
33.5372,9.28124804134382,0.0607480479577364
33.541796,9.284882863872976,0.060310184410758
33.54638799999999,9.289294936135631,0.0598770696855461
33.55098,9.298815104207256,0.0594153150389027
33.555584,9.310378510602463,0.0589431778376257
33.56016399999999,9.323085720873616,0.0584614503444807
33.56476,9.335548561716475,0.0579902265052798
33.56934,9.350954075330566,0.0575076585629431
33.57393999999999,9.362273112297483,0.0570476385010901
33.578528,9.367462434293644,0.0566198985846041
33.583127999999995,9.36713296488977,0.0562017585617905
33.58772,9.36602624575239,0.0557815887231899
33.592316,9.36732931908104,0.0553385344790429
33.596895999999994,9.365934089066744,0.0548959047342274
33.60149199999999,9.363395055176507,0.0544631313013451
33.606095999999994,9.367396431848096,0.0540169361725098
33.610688,9.369232385481954,0.053586229718706
33.615275999999994,9.369025100792228,0.0531628260426019
33.619868,9.363587535579384,0.0527686327004051
33.624455999999995,9.357250535918896,0.052373942119721
33.629051999999994,9.342207702658843,0.0520033664830975
33.633627999999995,9.32115733914218,0.0516558750557442
33.638228,9.295121064530694,0.051327862688095
33.64281999999999,9.26794098604327,0.0510093742409124
33.6474,9.235652811746876,0.050714254274673
33.651992,9.199155976089164,0.0504416703130054
33.656575999999994,9.157673229336629,0.0501873772407036
