Time,Force,Position
32.78138,4.466810524092102,0.1679760345880669
32.785972,4.749285520545663,0.1660476701244559
32.790564,5.022134769688539,0.1642548069339218
32.795152,5.283315033197145,0.1625574116266223
32.799748,5.53307068049977,0.1609383428709289
32.804336,5.774710938510087,0.1592681267072607
32.808912,5.9997302016082,0.1577268825999313
32.813508,6.203142558699287,0.1564390397622876
32.818096,6.380861533136174,0.1554873772677951
32.822684,6.549565683833104,0.1544411571622064
32.82728,6.700138481599455,0.1534980710858103
32.831872,6.829881623092282,0.1526765488021118
32.836476,6.94006109690167,0.1519391542975802
32.841064,7.036562248570088,0.1511580988631132
32.845656,7.110434875069686,0.1505010754455159
32.850236,7.168630082553356,0.1498589462670775
32.854836,7.216177923564547,0.1491667834241084
32.859412,7.248258813171212,0.1485508517241736
32.864012,7.268025891755987,0.1480196740386095
32.868596,7.287049622424149,0.1474112736141346
32.873188,7.306640135214411,0.1467271817401321
32.87778,7.322833138193746,0.1460397339506319
32.882376,7.333341023610273,0.1454037520994271
32.886976,7.342905333130524,0.1447426171549626
32.891572,7.3469067098021155,0.1441205123290848
32.896164,7.344445719177399,0.1435527437328375
32.900756,7.343006347714473,0.1429674582945395
32.905336,7.347330137079873,0.1422921852982931
32.90992,7.357539271987743,0.1415154736200808
32.9145,7.359653496866781,0.140844396388974
32.919084,7.359968852850524,0.1401950568034519
32.92368,7.365803000234301,0.139470555213322
32.928256,7.372947277656791,0.1387537657212112
32.932852,7.374616905127874,0.1381549474164203
32.93744,7.378496097085319,0.1375498922410214
32.942028,7.380742746310242,0.1370003365570838
32.946632,7.379435799193202,0.1365352518375378
32.95122,7.378295178238936,0.1361010453694631
32.955828,7.383616924580979,0.1356246427136372
32.960408,7.38783900849571,0.1352144068112569
32.964996,7.395047906630306,0.1348004930580388
32.969588,7.403078195947029,0.1344214314845928
32.974184,7.413562419178406,0.1340253432289659
32.978784,7.425478957162642,0.1336319396881603
32.983372,7.44680053521442,0.1331570310816057
32.987972,7.467799700572392,0.1327406088007006
32.992564,7.4863890734643395,0.1323805900172818
32.99716,7.501791404156759,0.1320816840576086
33.001744,7.516827180706744,0.1318054555545569
33.006344,7.537914628961968,0.1314737588540638
33.010936,7.564520868617229,0.1310787504658334
33.015532,7.589328239377193,0.1307081480461306
33.020116,7.61515722929895,0.1303248386757801
33.024712,7.640331154201351,0.1299364099745489
33.029308,7.670490990198575,0.1294793869330083
33.033908,7.705226041699554,0.1289372486784758
33.0385,7.745313558437792,0.1283083544152512
33.043092,7.791164236004354,0.1276119576910338
33.04768,7.83071887243738,0.1269845755672421
33.052264,7.871661682174639,0.1263273701295366
33.056856,7.908473873816096,0.1257012571130718
33.061448,7.948961846513661,0.1250032602997827
33.066044,7.989694188639516,0.124297466047587
33.070636,8.029116400726657,0.1235889920336453
33.075228,8.060033007193908,0.1229458415493832
33.079808,8.096424263612557,0.1222154911930984
33.084404,8.137146366106673,0.1214194426596582
33.088992,8.17847939217152,0.1205950763510023
33.09358,8.220301157092948,0.1197510175524126
33.098176,8.257992303918572,0.1189318028100471
33.102764,8.291552832648396,0.1181407488326972
33.107352,8.323558861911216,0.1173558825483108
33.111948,8.352089338097588,0.1165982160783091
33.116536,8.383562487055197,0.1158067790448115
33.121132,8.406696356555685,0.1150997467699814
33.12572,8.424966499675493,0.1144539871054869
33.130312,8.437351297252835,0.1138801585165394
33.134904,8.445361107306082,0.1133412489190599
33.139504,8.457457394006504,0.1127512416771101
33.14408,8.46709974679227,0.1121728015120434
33.14868,8.474698861254451,0.1116186672970879
33.153276,8.47539101101237,0.1111433419002007
33.157868,8.473140487999054,0.1107005175736043
33.162444,8.470645595557448,0.1102700206691274
33.16704,8.469827387296988,0.1098304611587748
33.171628,8.462468768474704,0.109450851384205
33.176224,8.452411846309477,0.1090921043459619
33.180812,8.442232739430105,0.1087390092749354
33.1854,8.42935532920779,0.1084047841687909
33.18998,8.419298407042561,0.1080448944012138
33.194572,8.410018734610837,0.107683986903445
33.199168,8.400739062179113,0.107322331686512
33.203756,8.391337205033242,0.1069651586523571
33.208348,8.381035913439723,0.1066143796683813
33.21294,8.375476163512735,0.1062199156364926
33.217532,8.369139163852244,0.1058248286611922
33.222124,8.366766456124783,0.1053879897428211
33.226712,8.36271706421617,0.1049570872603934
33.23132,8.35584718425047,0.1045506812217348
33.235908,8.34758913098054,0.1041723042699057
33.240512,8.344972053824785,0.103747000640682
33.2451,8.347995952783211,0.1032742339331351
33.249696,8.356127947550606,0.1027449415847758
33.254292,8.364259942318,0.1022167056178764
33.25888,8.373047002104748,0.1016943896685234
33.263488,8.386575603558029,0.1011329413291123
33.26808,8.398838216421225,0.1005951694842373
33.272672,8.411755894303775,0.1000651772202864
33.27726,8.428149125262774,0.0995203153456898
33.281864,8.443398552345833,0.0989944260859662
33.286444,8.459425229162393,0.0984710610666338
33.291044,8.481747947112487,0.0979159648076715
33.295628,8.509833825890906,0.097316479713374
33.300228,8.53755315052689,0.0967355678527766
33.304824,8.562451987105783,0.0961770728171405
33.30942,8.589926942313474,0.0956104299702494
33.314004,8.61638027835937,0.0950593008246361
33.318596,8.647330786643508,0.0944875507500384
33.323188,8.678036925499354,0.0939274676835936
33.32778,8.714750594611814,0.0933154295415073
33.33236,8.747866525933684,0.0927269279029368
33.336948,8.780327392236197,0.0921374062987226
33.341536,8.809967770481622,0.091572623515699
33.346132,8.8394859640129,0.0910150056092117
33.350724,8.872557753886142,0.0904120593057924
33.355312,8.899866382931059,0.0898518656976227
33.359904,8.927419381404267,0.0892815641855402
33.364492,8.953540065124617,0.0887059630106866
33.369084,8.978106249377962,0.0881318270267803
33.373672,9.004304976363827,0.0875254904735822
33.378252,9.027927584720896,0.0869273393872222
33.382844,9.042555848601486,0.0863720428893169
33.387432,9.051010256062687,0.0858410701821568
33.39202,9.061874455989912,0.0852789637722595
33.396616,9.079523435907252,0.0846740431906698
33.4012,9.095617916357588,0.084067949258038
33.405804,9.107093039855542,0.0834844998592975
33.4104,9.111783383363376,0.0829468727874102
33.415004,9.119538584356594,0.0823849315157674
33.419592,9.12075337478798,0.0818590422798638
33.424192,9.12311196909531,0.0813200783363717
33.42878,9.121750640897902,0.0807992362206407
33.43338,9.121410931862286,0.0802714550954744
33.437968,9.1216821463974,0.0797193168023434
33.442568,9.116068015390043,0.0792067634598293
33.447164,9.116217045211013,0.0786602725215019
33.451756,9.116366075031978,0.0781134429097151
33.456352,9.115493485691154,0.0775737785699408
33.460944,9.114743081064477,0.0770300082421292
33.465544,9.11440337202886,0.07650577808124
33.470136,9.116639781622048,0.0759782799534031
33.474716,9.12055287539638,0.0754478130169039
33.4793,9.128596587266518,0.0749191445669386
33.483892,9.130754953594185,0.074426331575234
33.48848,9.125229105484086,0.0739758093259263
33.49306,9.11933670323155,0.0735394721077441
33.497652,9.117164223483751,0.0730867071045876
33.502248,9.119977654830777,0.0726007757998161
33.506828,9.120992217282504,0.0721216325751228
33.51142,9.12482726779132,0.0716297624032904
33.516008,9.12637471054826,0.0711620899887471
33.5206,9.129721022200492,0.0706886440150938
33.525208,9.127959238043758,0.070250476309269
33.529796,9.125830899744589,0.069827656784111
33.534408,9.12730029923601,0.0693958078758815
33.538996,9.125949210670342,0.0689763042675288
33.543584,9.126519175714115,0.0685483784847481
33.54818,9.130442509120188,0.068122607750376
33.552768,9.134898722831473,0.0677106746063443
33.557372,9.13755606764746,0.0673041365348884
33.561968,9.13955834744409,0.0668909274170504
33.566564,9.144503300011957,0.0664630013072874
33.57114,9.144951080341588,0.0660441011034781
33.57574,9.149240967890096,0.065607505698396
33.580328,9.15725077794334,0.0651591762174146
33.58492,9.169347064643762,0.0646870933923575
33.589512,9.185285458563069,0.0642026234357983
33.594108,9.200324418034729,0.0637219111267643
33.5987,9.216140627239884,0.0632464499801843
33.603292,9.234410770359696,0.0627789547602496
33.607896,9.256645205412536,0.0622933420400438
33.612488,9.285542235741344,0.0617894158310987
33.617088,9.32212348050792,0.0612584192122249
33.621684,9.358460355846209,0.0607386285546104
33.626276,9.395696665632142,0.060221695812719
33.630868,9.433710225151575,0.0597098685210987
33.635456,9.472501034404514,0.0592058081746708
33.640044,9.509082279171093,0.0586897786990445
33.644632,9.543087405308873,0.0581739022746476
33.649224,9.576193096999,0.0576607503995825
33.653816,9.609176603974984,0.0571545509547791
33.658396,9.640116872627384,0.0566613033669242
33.662996,9.677719736555757,0.056151559223113
33.667576,9.719286892417154,0.0556304801404081
33.672172,9.755090887450226,0.0551270265738027
33.676764,9.783210668045534,0.054648326100835
33.681352,9.804545668650723,0.0541943034336733
33.685956,9.825636299827629,0.0537506843681093
33.690544,9.842351943480432,0.0533058447675717
33.695132,9.85085049239026,0.0528698407781448
33.699728,9.85526256465292,0.0524542135614537
33.70432,9.848026130544785,0.052075418677873
33.708916,9.833227666713023,0.0517131481584462
33.713512,9.813032596195384,0.0513509991812201
33.718104,9.786174930401764,0.0510031925069977
33.722692,9.755475157389265,0.0506637682817977
33.727292,9.716313920205495,0.0503380243145197
33.731872,9.671678033070323,0.0500464182309309
33.736472,9.623855103735623,0.0497705994455245
33.741064,9.573866751363196,0.0495063558326033
33.74566,9.516194184552996,0.0492585619980494
33.750244,9.454801695238064,0.0490128259337552
33.75484,9.383681753161778,0.0487930542376312
33.759428,9.29976950083876,0.0486124295019666
33.764024,9.21675668296339,0.0484286051774314
33.768608,9.134398930107372,0.0482508594393928
