Time,Force,Position
30.82658,2.9689113306521597,0.1654184102106358
30.831168,3.1406669162810563,0.1626480448358642
30.835756,3.300841799172938,0.1605661917626608
30.840343999999995,3.439297830975387,0.1596652272427423
30.84494,3.5686270939554725,0.1590056277993304
30.849532,3.6930382494745153,0.1581863817981079
30.854128,3.8075453864376927,0.1574779370614236
30.858723999999995,3.91929983897756,0.1564684741386073
30.863304,4.021516827103999,0.1554983283973111
30.867895999999995,4.112930362226924,0.1546879398259755
30.872484,4.194439878793986,0.1539673505337778
30.877075999999995,4.267555734823558,0.1532049414907382
30.881671999999995,4.324349346449584,0.152716473449904
30.88626,4.378512458366445,0.1520240481239148
30.890871999999995,4.413288468394381,0.1516842956059181
30.89546,4.441391643514605,0.1513440166997628
30.900048,4.462333244870536,0.1510405475161236
30.904644,4.477179033072594,0.150810204527918
30.909232,4.494801167883114,0.1504512045993888
30.913827999999995,4.516221268463888,0.1499317744549006
30.918423999999995,4.534943065701719,0.1494761638732053
30.923016,4.553009797920193,0.1490136252393809
30.927608,4.573241953176401,0.148481280339462
30.932208,4.599237269260933,0.1477936262734615
30.936796,4.61893654421193,0.1472391119657741
30.941388,4.636959134981776,0.1467196471805123
30.94598,4.658046583237002,0.1461142677851765
30.950576,4.677212977882789,0.1455664244619482
30.95516,4.696745926671012,0.1449847982416972
30.959756,4.715623810439877,0.1444007570913337
30.96436,4.7329471947417385,0.1438298389446026
30.968951999999994,4.75476775128184,0.1431776510254158
30.973544,4.781207664774325,0.1424194111114452
30.978136,4.7998411791149005,0.1418735610956974
30.982724,4.825015104017301,0.141177027318075
30.987308,4.845735998130091,0.1406321834165093
30.9919,4.866090338100445,0.1401216642221192
30.996488,4.884401439747211,0.1396777839107272
31.001084,4.895517065812794,0.1393769704860841
31.005683999999995,4.901891150211847,0.1391870342908981
31.010276,4.907365800163251,0.1390136736441351
31.014864,4.914639319009952,0.1388060051301139
31.019464,4.91692692676183,0.1387276787995706
31.024048,4.916271861742473,0.1387228856938294
31.028628,4.923056641732591,0.1385594355108599
31.033224,4.9297192370085625,0.1384081469892809
31.037811999999995,4.93229535563736,0.1383685323896794
31.042407999999995,4.936914712589745,0.1382751616465751
31.046992,4.9442323728850734,0.138134464299436
31.051584,4.955147770970994,0.1379321377365635
31.056188,4.970027460989941,0.1376372922163139
31.060776,4.97848892516121,0.1374656129067147
31.06538,4.991159050693798,0.1371880315294633
31.069959999999995,5.006771848997619,0.1368436485113867
31.074563999999995,5.020830147834438,0.1365144947784276
31.079144,5.041018161642017,0.136038036430164
31.08374,5.064393217649123,0.1354827527132384
31.088332,5.084825600884993,0.1349899852639142
31.092932,5.107179037730305,0.1344532545645699
31.097528,5.133741135936936,0.1338135779400772
31.102124,5.162346472467154,0.1331258406774449
31.106711999999995,5.1895194942445135,0.1324392231252797
31.111308,5.224743284602075,0.1315728200020931
31.115904,5.262909747730874,0.1306473137619727
31.1205,5.297722842497372,0.129772836730761
31.125096,5.3331468608345975,0.1288582571111645
31.129692,5.3711028563519925,0.1278585460735408
31.134272,5.403662245183501,0.1269456322774321
31.138856,5.432746080938564,0.1260861622026363
31.143448,5.456677679436031,0.125294907732578
31.148044,5.4780331593047,0.1245432957830069
31.152632,5.500654627763454,0.1237460281746086
31.157219999999995,5.5137930128891455,0.1231232860874827
31.161812,5.525499083261979,0.1224994664438933
31.166404,5.537082968920665,0.1218894345494685
31.170995999999995,5.54429186705526,0.1213378885664012
31.175584,5.547003592951616,0.1208497161714224
31.18018,5.555845033818734,0.1202362376725672
31.184776,5.566485343581145,0.1195999659287943
31.189364,5.569319254191647,0.119104552356997
31.19396,5.568921981153993,0.1186282177780076
31.198547999999995,5.569546327278133,0.1181307773491874
31.20314,5.562730828392799,0.1177467743864044
31.207732,5.55243977643102,0.1173993211764826
31.212323999999995,5.5450913972404745,0.1170004069600518
31.216919999999995,5.534800345278695,0.116652182895538
31.221508,5.523609858869268,0.1163145305351189
31.226108,5.515362045231075,0.1159243534802501
31.230695999999995,5.509157469916469,0.1154941691060047
31.235296,5.50475176349716,0.1150412376687159
31.239888,5.497403384306614,0.1146369448757485
31.244492,5.489932820401924,0.1142405205053014
31.249084,5.485404929268468,0.1137905648426278
31.25368,5.481776472582661,0.1133293867542858
31.258272,5.474794647534552,0.1128917935923272
31.262868,5.4676906377723,0.112462026869311
31.267464,5.461730431885984,0.1120014218695464
31.27206,5.447430946542549,0.1116533116973624
31.276647999999994,5.431576961732109,0.1113068744032014
31.281244,5.4214861377499926,0.1108681945891813
31.285827999999995,5.415648116577824,0.1103946265644144
31.290416,5.413407833196247,0.1098832127306661
31.295004,5.413743668443467,0.1093483376329094
31.299603999999995,5.416899991747776,0.1087741028510285
31.304192,5.413271535061968,0.108306310784512
31.308784,5.412219197004958,0.1078172187532787
31.313379999999995,5.411944108681451,0.1073287621774077
31.317968,5.410403031767858,0.1068768100930157
31.32256,5.407473781550035,0.1064715155181272
31.327148,5.406221215513361,0.1060576280655116
31.33174,5.413307928933811,0.1055447885065972
31.336327999999995,5.42321513041135,0.1049976119576424
31.340916,5.437741688841273,0.1044016750311341
31.345516,5.452678942862262,0.1038342668517833
31.350096,5.472524064712554,0.1032497851277135
31.354679999999995,5.49674417408694,0.1026361354568298
31.359283999999995,5.525872151290631,0.1020137398357723
31.363884,5.563872288256654,0.1013174875525935
31.368488,5.604204174423184,0.1006267443836445
31.373068,5.647234363932657,0.0999240446113179
31.37766,5.691819052909136,0.0992351915753085
31.382248,5.735137753295528,0.0985943063339147
31.386848,5.7821763761866585,0.0979245151786418
31.391428,5.832690552154234,0.0972481025756976
31.396028,5.886802465912403,0.0965366180623963
31.400611999999995,5.942957617994158,0.0958065131377281
31.405207999999995,5.998091150914117,0.0950980076836138
31.4098,6.057188975767107,0.0943446192167606
31.414396,6.117430604496034,0.0935737142481192
31.419,6.177139352919753,0.0927981907376322
31.423592,6.231329309943438,0.0920881834234536
31.428176,6.285885821109559,0.091368874613449
31.432764,6.333901921713855,0.0907163275025917
31.437356,6.381385142012939,0.0900507926924273
31.441939999999995,6.427802601701603,0.089362183045785
31.446528,6.468168389685022,0.0887066797180491
31.451124,6.501583071515551,0.0880890120113735
31.45572,6.527924462479041,0.0875155821738254
31.4603,6.554998961727407,0.0869055184995232
31.464896,6.578964462041763,0.0862969024683421
31.469483999999994,6.595201606469725,0.0857162282499122
31.474076,6.607430317516031,0.0851359509024666
31.478672,6.616305660200036,0.0845676077818631
31.483259999999994,6.619007146464654,0.0840314294264075
31.487868,6.625262229071233,0.0834345530957259
31.492456,6.62881900833487,0.0828560174602028
31.497063999999995,6.630821288131501,0.0822721639402344
31.501652,6.627182591813955,0.0817310694040627
31.50624,6.620723407439319,0.0812104107950009
31.510852,6.611199365579302,0.0807238892818289
31.51544,6.600898073985783,0.0802342018026727
31.520044,6.58651030574509,0.079789802831868
31.524636,6.57992893665631,0.0792769343620049
31.529228,6.570771448938729,0.0787681149310485
31.533808,6.557527484573976,0.0783024747027451
31.538408,6.5467374541238765,0.0778362498363393
31.542988,6.539667346178511,0.0773452732572796
31.547596,6.536317160737885,0.0768299053527767
31.552188,6.530557182831234,0.0763588898822079
31.55678,6.521243608582619,0.0759463964295493
31.561376,6.517082271591601,0.0755221882474462
31.565971999999995,6.514475434067586,0.0751033281458417
31.57056,6.509703173505838,0.0747121201332569
31.575156,6.503787109068153,0.0743362129005882
31.579756,6.496360686612091,0.0740009234562368
31.584348,6.488689894727736,0.0736793083973745
31.58894,6.485516275081622,0.0733405807709835
31.593536,6.48900525071148,0.0729582449623517
31.598124,6.496214148846074,0.0725562024265824
31.602712,6.507387338913698,0.0721216244242959
31.607299999999995,6.517416725105382,0.0717031687856233
31.611892,6.529367164906507,0.0712710864904695
31.616484,6.533266836127429,0.0709143326283712
31.621064,6.542563114034239,0.0705400731549627
31.625648,6.555579314445787,0.0701466185256479
31.630236,6.57063875318092,0.0697361778365803
31.634828,6.586719811077847,0.069320101248656
31.63942,6.600757630651188,0.0689243993864334
31.644,6.612996581329233,0.0685339099885954
31.648588,6.629444193368598,0.068098815827905
31.653184,6.650100466769281,0.0676262386905425
31.657776,6.669735121008173,0.0671636007829379
31.66238,6.690269209694712,0.0666974087615779
31.666972,6.716444274495428,0.0662045602908295
31.671572,6.73493512485838,0.065756200689982
31.676156,6.753670344649621,0.0652961765206292
31.680755999999995,6.767908392202625,0.0648508956259598
31.685348,6.778548701965036,0.064419408044032
31.689948,6.786735077812796,0.0639834673699103
31.694536,6.7919787808893215,0.0635686077813889
31.699136,6.801841840918232,0.0631383008284719
31.70372,6.812726520108936,0.0627013818492654
31.708316,6.825654437623227,0.0622454785520725
31.712903999999995,6.837027855670514,0.0617850999285249
31.7175,6.848523458431947,0.061320941457164
31.722088,6.860263430621669,0.0608485768297469
31.726679999999995,6.867916926164219,0.060409135928498
31.731272,6.880556332801589,0.059939791690429
31.735859999999995,6.898059465819636,0.0594461986991543
31.740448,6.914296610247599,0.0589750865850799
31.745028,6.924526224418946,0.0585474841920039
31.749624,6.933856404142645,0.0581201550297928
31.754216,6.946129256637578,0.0576782017487543
31.758812,6.954682186627775,0.0572496757844957
31.763392,6.974106373255264,0.056759616711265
31.767976,6.991365136845021,0.056290194519267
31.772564,7.011077834349427,0.0558304893735468
31.777152,7.031323412159047,0.0553904303471837
31.781763999999995,7.051324620540376,0.0549634107258492
31.786344,7.072103078655204,0.0545422121795168
31.790952,7.089405983693589,0.0541213734832159
31.795539999999995,7.104543465694241,0.0537214864321916
31.800132,7.119803132409037,0.0533154804029213
31.804728,7.133552441105458,0.0529423450236195
31.809315999999995,7.144236892316498,0.0525898320744983
31.81392,7.149568878290279,0.0522831049978884
31.818515999999995,7.155145233692353,0.0519630815781269
