Time,Force,Position
32.007783999999994,3.400337962633552,0.1596735562835402
32.012372,3.545765579852371,0.15962767880545
32.021567999999995,3.8073974974789953,0.1595483710299271
32.026163999999994,3.927688274533976,0.1593957429839041
32.03075199999999,4.0451041824515,0.1590060249719281
32.03534,4.154248614545681,0.1585885639482707
32.039936,4.26346085027364,0.1578181590874774
32.04452799999999,4.365012533748985,0.1569345934079441
32.049124,4.461479783600511,0.1558809086844587
32.053712,4.549675557628698,0.1547992454747015
32.058311999999994,4.63213183301371,0.1535528728107301
32.0629,4.707460436451317,0.1522169307010728
32.067499999999995,4.769942348561825,0.1510216930865837
32.072084,4.823463818012744,0.1499098043386026
32.07668399999999,4.872033278185729,0.1488392276897278
32.081275999999995,4.91066481798596,0.1479470814221457
32.085871999999995,4.94937440105171,0.146980885587382
32.090452,4.982154497126359,0.1461213200598233
32.095048,5.014890451752382,0.1452288866348664
32.099644,5.043984527139182,0.1443784536769517
32.104243999999994,5.070380299183042,0.143590834523146
32.108836,5.093667072292891,0.1428306739917968
32.113428,5.123083560373501,0.1419003594898802
32.118016,5.143095008386567,0.1411301621214841
32.122603999999995,5.157954219142037,0.140451353021893
32.127196,5.169337876821063,0.1398346590668356
32.13178799999999,5.172870993899549,0.1393487772249408
32.13638,5.173827992349236,0.1389036343437508
32.140972,5.169266199398892,0.1385665591625697
32.145568,5.163272091695685,0.1382311680035303
32.150147999999994,5.150493204002363,0.1380481165738282
32.15474,5.138080870451478,0.1378324610547588
32.159327999999995,5.128977763814264,0.1375166075306325
32.16392,5.124205503252515,0.1370754553474009
32.16851199999999,5.113792266576589,0.1367477076618042
32.1731,5.106732398262962,0.136376259614053
32.17769199999999,5.099017464929978,0.135998997962516
32.182275999999995,5.094900269387587,0.135557310516788
32.186868,5.082077240245635,0.1353095985436956
32.191472,5.061203442523482,0.13526277334203
32.196068,5.041473448677266,0.1351768127389351
32.205251999999994,5.001524722128257,0.135042839535157
32.209852,4.984781542501907,0.1349417846017076
32.214431999999995,4.967671808733119,0.1348719142977285
32.219032,4.953793258612486,0.1347695761741501
32.223623999999994,4.945966380197097,0.1345792029882908
32.22821999999999,4.937406393496833,0.1344511591609836
32.232812,4.935797512949461,0.1342207623099394
32.237407999999995,4.935498762440801,0.134002225158904
32.242003999999994,4.940596618618029,0.1336898760596924
32.246599999999994,4.946105170386322,0.1334069828819796
32.251203999999994,4.955622155536271,0.1330957301659964
32.255796,4.964406032401349,0.1328498034627491
32.260388,4.985493480656575,0.1323730329312586
32.264976,5.0055593097500095,0.1319222903903383
32.269563999999995,5.0296335722251,0.1314476126813342
32.274156,5.051420226948311,0.1310403960440174
32.278735999999995,5.080646726680997,0.1304985534727911
32.283328,5.116413636975508,0.1298257287983464
32.287912,5.150670189251644,0.1292206701388993
32.292492,5.185703991261283,0.1286198650401354
32.297084,5.229199257442188,0.1278719526290011
32.301672,5.267830797242418,0.1272285730958247
32.306259999999995,5.309282825099736,0.1265369464356109
32.31086,5.348158734328257,0.1258840698449824
32.315448,5.388955697166219,0.1252142658409269
32.320052,5.4348607558131485,0.1244382302268782
32.324639999999995,5.473448154164751,0.1237796585429547
32.32922799999999,5.512157737230497,0.123120447343918
32.333831999999994,5.553932177781624,0.1224078307147835
32.33842,5.595706618332752,0.1217053435322483
32.343011999999995,5.631962267483846,0.1210939650647055
32.34759999999999,5.6673184821872935,0.1204998696435764
32.35220399999999,5.693968863291183,0.1200703238474455
32.356792,5.723684101880452,0.1195849570537816
32.361391999999995,5.751844841002715,0.1191134786676998
32.36597999999999,5.7842142414863,0.1185567612923669
32.370583999999994,5.813885338626939,0.1180386085409382
32.375167999999995,5.844700239643518,0.1174974393208048
32.379763999999994,5.88074542118321,0.1168594641349326
32.384348,5.917034972151194,0.1162135064664275
32.388943999999995,5.944863058947911,0.1156926426367038
32.39353199999999,5.977432687411158,0.1151059310056138
32.398124,6.008325631693255,0.1145357370261319
32.40270399999999,6.040240195137145,0.1139501146527195
32.407287999999994,6.063160414104557,0.1134666948116933
32.411876,6.0815834608337305,0.1130379656070089
32.416476,6.10343791919072,0.112528476637126
32.42106,6.123982247508998,0.112009936862726
32.425652,6.140273773017328,0.1115286923002962
32.430243999999995,6.1560324182204464,0.1110368161610256
32.43483199999999,6.171502552546646,0.1105121299727343
32.439428,6.182064819043541,0.1100080418842645
32.44400399999999,6.191194770787576,0.1094951542228408
32.448595999999995,6.194928115845725,0.1090396121744893
32.453204,6.1913438006085455,0.1086648505496893
32.457792,6.179542390628391,0.1083814378809684
32.46238399999999,6.168474088933108,0.1080476255870698
32.466972,6.15531840746561,0.107699634240918
32.471571999999995,6.137254858168808,0.1073721326636776
32.476164,6.115060690776205,0.1070621400335083
32.480751999999995,6.09821898862086,0.1066504098183561
32.485356,6.078146102817359,0.1062483133248162
32.489951999999995,6.0594613903180905,0.1058046666265443
32.494544,6.036768244437166,0.1053681267838249
32.499132,6.017017771327476,0.1048864844867128
32.503732,5.995590614036636,0.1044105945519578
32.508312,5.976328879783529,0.103892483910127
32.512919999999994,5.9523256038638905,0.1034277986127881
32.517512,5.929099577677753,0.1029606638046975
32.522108,5.90521848647226,0.102483611405448
32.5267,5.885057317771505,0.1019649532804924
32.531296,5.872213809366079,0.1013740289925514
32.535903999999995,5.8614135392842375,0.1007483362322092
32.540499999999994,5.853311572545342,0.1000970200216966
32.54508799999999,5.851217136063061,0.0993534882620267
32.549684,5.859627402075635,0.0984849150350959
32.554272,5.8665273100698325,0.0976655771320561
32.558868,5.872816294493303,0.0968863369055413
32.563455999999995,5.875429497860663,0.0961902421127405
32.56804399999999,5.883072753771473,0.0954756719447389
32.572632,5.888306217216258,0.0948203374673027
32.577228,5.893173126518609,0.0941884372433204
32.581824,5.896774047230872,0.0935903096087442
32.586412,5.907081704667737,0.0929700173076563
32.591007999999995,5.923685403238136,0.0923075052187846
32.595588,5.947362392675575,0.0916042473503928
32.600179999999995,5.969040285238052,0.0909848540557035
32.60476799999999,5.996769849505775,0.0903334501096337
32.609356,6.025687359098063,0.0897121172470198
32.613952,6.053627390977186,0.0891551312823425
32.61854,6.08095649928558,0.0886444488777735
32.623132,6.106897434289745,0.0881781377702156
32.627728,6.1386456715708615,0.0877077004092745
32.632316,6.174891081090217,0.0872160532954202
32.636911999999995,6.214123304829436,0.086746747552885
32.641492,6.249924116940837,0.0863490462197421
32.646088,6.28932266684283,0.0859335812877987
32.650668,6.335017257878358,0.085487940134983
32.655268,6.385209021152126,0.0850126891638145
32.659851999999994,6.434134795835808,0.0845715957700717
32.664455999999994,6.481916766643551,0.0841503854126796
32.669048,6.534195909689533,0.0837088933749442
32.673644,6.587130117754873,0.0832802975685352
32.678231999999994,6.636588772743764,0.0828716677808824
32.682824,6.681183701351981,0.082515808427258
32.687416,6.721159273007814,0.0821969477769628
32.692007999999994,6.760846333786725,0.0818502131050292
32.6966,6.800899948708075,0.08148815392537
32.701196,6.838988368571355,0.0811010718885747
32.70578,6.876910462271861,0.0806774676371578
32.710367999999995,6.9113570028959215,0.0802661814643476
32.714955999999994,6.943471794319475,0.0798504493339902
32.71955199999999,6.967736045142489,0.0794636232822547
32.724143999999995,6.985948624260259,0.0790969465661989
32.72872399999999,6.99913115083458,0.078737104102945
32.733315999999995,7.012025166531981,0.0783510364642771
32.737896,7.021810183295373,0.0779567847442969
32.742487999999994,7.022845225010578,0.0775894739408158
32.74708,7.024613375010658,0.0771843804618475
32.751667999999995,7.018530984410197,0.0767972980857152
32.75625599999999,7.016124374865846,0.0763474535083354
32.76085199999999,7.006644474454458,0.0759202037148566
32.76544,6.994710640128419,0.075490040805072
32.770048,6.979956317745289,0.075075395457913
32.77464,6.96659016866639,0.0746312284340423
32.779244,6.951425150692194,0.0741927786991946
32.783832,6.936137948003855,0.0737603881648826
32.788428,6.919951310867867,0.0733322221702624
32.79300799999999,6.904419738751234,0.0729126651895715
32.797608,6.889665416368104,0.0724954139682842
32.8022,6.87977482036565,0.0720432990400896
32.8068,6.869639854934906,0.0716029032787466
32.811384,6.862203192847106,0.0711516577480879
32.815971999999995,6.853378357455074,0.0707266627226779
32.820552,6.84688527126355,0.0703115205348394
32.825148,6.836960773444207,0.0699436682043553
32.829736,6.827202601787637,0.069611105668988
32.834332,6.820553429065076,0.0692911613815231
32.838924,6.812516083038285,0.0690002681718631
32.843512,6.815638504525706,0.0686555846659484
32.848099999999995,6.813041906633431,0.0683893845684068
32.852692,6.814942480979396,0.0681087216802964
32.85728399999999,6.819663543382448,0.0678136923918619
32.861872,6.825039670804857,0.0675271591471756
32.86646399999999,6.8233866488088575,0.0672970751433102
32.871056,6.821855811527005,0.0670593442124345
32.875648,6.817504486188062,0.0668353015904508
32.880236,6.809188868916091,0.0666408556697753
32.884832,6.798830013320533,0.0664641190516995
32.889427999999995,6.788471157724974,0.0662869637702524
32.89402,6.771205337425152,0.0661595347249084
32.898627999999995,6.752917897963537,0.0660404191805443
32.90321599999999,6.733608839340128,0.0659294503010404
32.907824,6.7172424534879545,0.0657970709709432
32.912412,6.700343187330569,0.0656466607174398
32.916999999999994,6.685731528925063,0.0654642885481229
32.921595999999994,6.673407478271434,0.0652509678892232
32.92619199999999,6.662593785636184,0.0650024445202937
32.93078799999999,6.650880658553286,0.0647555745105234
32.935376,6.6325049361944135,0.0645434341435352
32.939975999999994,6.620381113520447,0.0642727963434455
32.94456399999999,6.610056159741777,0.0639990286473759
32.949164,6.600508455696612,0.0637304017132834
32.953748,6.596068847460413,0.0634204838002821
32.958344,6.603277745595007,0.0630437150249587
32.96294,6.617804304024931,0.062649304237259
32.967532,6.637849653854886,0.0622390556126484
32.972128,6.663780349227312,0.0617947731723756
32.976724,6.694696955694559,0.0613194469327745
32.981323999999994,6.728434050218896,0.0608376407109556
32.985916,6.76895592473335,0.0603204423136401
32.99052,6.817284198399716,0.0597659597409318
32.995116,6.870476198446759,0.0591915405276648
32.999703999999994,6.926366501836744,0.0586187365198476
33.00429999999999,6.983156239674377,0.058050092513308
33.008888,7.041622661693161,0.0574907280490311
33.013476,7.097390780369,0.0569406980738496
33.018063999999995,7.153036714330694,0.0564034208909211
33.022659999999995,7.209704267454182,0.0558610172087538
33.027252,7.267393439739464,0.0553120013001673
33.03184399999999,7.321362689520007,0.054779893731053
33.03644,7.365193790948132,0.054269155350457
33.04102,7.403383916262081,0.0537765740337841
33.045612,7.437854119071291,0.0532984192985057
33.050208,7.462841238547442,0.052856106120381
33.054787999999995,7.475769156061732,0.0524417946049781
33.059383999999994,7.483300466890137,0.0520324770214963
33.063976,7.482125944118981,0.0516575180344434
33.068563999999995,7.471346153300619,0.0513164615854976
33.07315199999999,7.450061659987401,0.051009140469473
33.077744,7.4173730297316816,0.0507355944751552
33.082336,7.372136458657519,0.0505090679585103
