Time,Force,Position
32.34724,4.246583590703146,0.1557035910508179
32.351831999999995,4.300400627741047,0.1554868546144655
32.365607999999995,4.383040525630636,0.1554191340296428
32.3702,4.396464238711575,0.1553722325404634
32.374792,4.411354168362262,0.1551717964489783
32.37938,4.423257283793087,0.1550000778302491
32.383987999999995,4.440390679747025,0.1546466328249228
32.388568,4.453804153196225,0.1543960551264907
32.393179999999994,4.467217626645424,0.1541501334449242
32.397768,4.481774903970565,0.1538667995358744
32.402356,4.498375419619292,0.1535200845691238
32.40696,4.513299251086868,0.1532024639895318
32.411548,4.528834006125173,0.1528383097474316
32.416144,4.537828350601652,0.1526395155911982
32.420731999999994,4.551930790887098,0.1522839853901967
32.425324,4.567299219762631,0.1518819986509545
32.429911999999995,4.580946823008383,0.1514512939256624
32.434512,4.599414011186183,0.1508280788299661
32.43910399999999,4.619313514116842,0.1501977240952617
32.443696,4.640767516514507,0.1495533254806305
32.44828,4.661199899750376,0.1489343066054978
32.452872,4.690338116585806,0.1480872333263466
32.45746,4.723684994782556,0.1471203261603992
32.46205199999999,4.758664415711827,0.1460864643951258
32.466652,4.792211521888239,0.1450718935470996
32.471239999999995,4.826002997492943,0.1440369370656225
32.47582,4.856196735307058,0.143096007044986
32.48040399999999,4.891498568930136,0.1420240810579458
32.484992,4.924224283924419,0.140997719555876
32.489588,4.951431207518668,0.1400923856245229
32.49417999999999,4.976717077503475,0.1392378059924448
32.498771999999995,5.00764392360246,0.1382726413126932
32.503367999999995,5.031419435568891,0.1375035239372505
32.50795599999999,5.05801543559241,0.1366677557417218
32.512547999999995,5.082446012578197,0.1359084042681443
32.517135999999994,5.103445177936167,0.1352671603644635
32.521728,5.126409538352205,0.1346498649101173
32.52632,5.150028963787602,0.1340503007791366
32.53090399999999,5.176835431422524,0.1333705701911077
32.535492,5.205807322095179,0.1326403277523937
32.54008,5.2424634272056,0.1317628801401688
32.544667999999994,5.273112002059406,0.1310351094381171
32.549271999999995,5.298774665818389,0.1304270334097673
32.553867999999994,5.321128102663701,0.1299177130356093
32.558463999999994,5.34438097395666,0.1294021222429155
32.563052,5.368655464411413,0.1288674833456888
32.567651999999995,5.392152705132663,0.1283409165005795
32.572244,5.407188481682646,0.1279641314354566
32.57684,5.424267496556216,0.1275432113746522
32.581427999999995,5.445310803362816,0.1270421227428319
32.586032,5.469541152368941,0.1264700429391134
32.590624,5.486576025793883,0.1260058432502442
32.59522,5.5078195605801445,0.1254408936196004
32.59981199999999,5.530206899242346,0.124847714765173
32.604408,5.552061357599337,0.1242421198547422
32.609008,5.576814347278932,0.1235317801776055
32.613603999999995,5.598213968596228,0.1228572996729675
32.61819199999999,5.616138036837081,0.1222283499434019
32.62278799999999,5.631363801734989,0.121642302596748
32.627368,5.6427474594140135,0.1211259380195281
32.631955999999995,5.647590706531213,0.1207154322413016
32.636543999999994,5.6528005077908485,0.1202765496238798
32.641136,5.657110874602837,0.1198469337350679
32.645731999999995,5.66154342612897,0.1194084236050525
32.650324,5.66303330488387,0.1190241550097916
32.65491599999999,5.664523183638768,0.1186418136812381
32.659504,5.667567561860672,0.1182564809293104
32.6641,5.67882903482555,0.1177605754355123
32.668688,5.689968323076284,0.1172769750709526
32.67326799999999,5.7021292304888105,0.1167805410051299
32.67786399999999,5.711103095701812,0.1163550981112053
32.682452,5.723674698705404,0.1158862081500615
32.687056,5.735102497833057,0.1154474039797016
32.691644,5.748329165856005,0.1149929981063887
32.696231999999995,5.764131952507752,0.1145208007176194
32.700827999999994,5.777769316121765,0.1140989800776295
32.705408,5.790507245288133,0.1136856787212334
32.710012,5.805943477797442,0.1132451472322318
32.7146,5.821257525592607,0.112814649422569
32.719199999999994,5.839636430873151,0.1123321140257574
32.72378,5.860835824210786,0.1118150919478015
32.728384,5.885999509481447,0.1112400968486004
32.732975999999994,5.914594606379927,0.1105881276204894
32.73757199999999,5.94367844213499,0.1099060122539298
32.742155999999994,5.9727622778900535,0.109222002826201
32.746751999999994,6.000702309769176,0.1085676906408995
32.75134,6.025411158000145,0.1079280606655896
32.755936,6.050730929801842,0.1072624168293664
32.76051999999999,6.074496202136535,0.1066009666047879
32.765116,6.091721063909401,0.1060183076816048
32.769707999999994,6.105714742034113,0.1054427798398015
32.774292,6.123017647072498,0.1048093259016591
32.778884,6.139909856519817,0.1041530299118415
32.78347599999999,6.155247566500131,0.1035049062229041
32.78807199999999,6.165433039222851,0.1028918322987784
32.792663999999995,6.173697458336128,0.1023021998141014
32.797256,6.185803984668288,0.1016657794411561
32.80184,6.196111642105152,0.1010491161452666
32.806431999999994,6.203720996199073,0.1004541864236794
32.81102,6.2074882430741125,0.0999078034480136
32.815608,6.204837264101468,0.0994224734823274
32.82022,6.199243612357592,0.0989783912818726
32.824808,6.195082275366572,0.0985452428197796
32.829412,6.194396491451999,0.0980933877389713
32.83400399999999,6.195876130575159,0.0976044416234376
32.83859999999999,6.197600139126612,0.097100579664812
32.843196,6.200878647145068,0.0965970888925817
32.847784,6.199049059354556,0.0961699850522393
32.85238,6.199795590192841,0.0957309883340727
32.856972,6.208104150754746,0.0952158292629364
32.861568,6.22013263382139,0.0946640712846259
32.866156,6.227053021079064,0.0941880505919361
32.87075599999999,6.235405723089598,0.0937228020866063
32.875347999999995,6.244535674833634,0.0932625915066484
32.879943999999995,6.25983948299706,0.0927681057328687
32.884536,6.278985398379366,0.0922356017791289
32.88913599999999,6.297109694599882,0.0917215929483761
32.893724,6.318054478877486,0.0911872145987961
32.89832,6.344640239269268,0.0906048860689424
32.902908,6.376089726041726,0.0899755243579615
32.907504,6.415878492271308,0.0892810346375739
32.912091999999994,6.454767824053239,0.0885944741686189
32.916692,6.488016179720994,0.087958979121453
32.92128,6.511781452055686,0.0874087808876264
32.925867999999994,6.535546724390379,0.0868634717733455
32.930448,6.561233050334513,0.086304617136938
32.935039999999994,6.588962614602234,0.0857250996656144
32.939628,6.615914929136454,0.0851427271860572
32.944227999999995,6.640413309756021,0.0845659953247013
32.948823999999995,6.657105291223678,0.0840678166389182
32.953416,6.678416629643718,0.083544231837481
32.958003999999995,6.698828533616111,0.0830242912425938
32.962588,6.719484807016796,0.0824939269020673
32.967175999999995,6.7361767884844514,0.0820054559726438
32.971771999999994,6.748371597713868,0.0815444869912623
32.976356,6.756602115010256,0.0811239854429045
32.980943999999994,6.765199186449081,0.0806855211024147
32.985536,6.765456978430784,0.0803004162157871
32.990123999999994,6.760973228745957,0.0799521001730227
32.994719999999994,6.7526473718422455,0.0796357001516991
32.999308,6.737781104376709,0.0793627502801926
33.003904,6.722792652197028,0.0790955679362643
33.008484,6.710869057502725,0.0787939941547244
33.013079999999995,6.708550730855631,0.0784155597787793
33.01766799999999,6.705210785046743,0.078048842991128
33.022256,6.699949785628413,0.0776980695940242
33.026847999999994,6.691868298152994,0.0773663036212662
33.03144399999999,6.687384548468168,0.077018988354568
33.036036,6.686131982431495,0.0766776866362949
33.040628,6.691786381099085,0.076276492593957
33.045224,6.691677618938352,0.0759201915161553
33.04982,6.694511529548853,0.075539754940537
33.054396,6.698489244035293,0.0751451690507747
33.058983999999995,6.705654000721259,0.0747140784730641
33.063559999999995,6.711142073226076,0.0742817883426551
33.068144,6.720716622378066,0.073810528212359
33.07274,6.72403927184515,0.0734037877197825
33.077332,6.73557901605521,0.0729594492563681
33.081923999999994,6.75300410580774,0.0724721171376553
33.086499999999994,6.769407576398477,0.0719937236854983
33.091092,6.792595826979331,0.0714696130261998
33.095688,6.817050066150269,0.0709240691859582
33.100275999999994,6.843303174216503,0.0703768157138353
33.104868,6.865836359778,0.0698540932766962
33.10946,6.888369545339498,0.069333202841053
33.114056,6.910247665881639,0.0688038142058054
33.118652,6.933147405585573,0.0682665604427927
33.123248,6.9514277883371225,0.067749921101128
33.127844,6.966232618012226,0.0672400989416304
33.132431999999994,6.978094774916094,0.0667545330803579
33.137024,6.989301866800607,0.0662578126390263
33.141603999999994,7.001408393132767,0.0657622681043474
33.146204,7.010327877265402,0.0653011875482667
33.150792,7.014261450303214,0.0648758652286125
33.155392,7.02424669504627,0.0644488961360339
33.159983999999994,7.035009189522826,0.0640304193841984
33.164579999999994,7.055499136760738,0.0635542589873786
33.169172,7.074190215103352,0.0630863916669463
33.173764,7.092514739303531,0.0626441462789961
33.178355999999994,7.116602424332031,0.0621753552142397
33.182948,7.133660959942124,0.0617578765240937
33.187535999999994,7.153051244752724,0.0613564711559642
33.192131999999994,7.175262017620413,0.0609500288466429
33.19672,7.197228421059809,0.0605569624041262
33.201311999999994,7.223159116432235,0.0601444684112843
33.205892,7.251543745719313,0.0597421377995592
33.210488,7.281849428615832,0.0593349101313256
33.215076,7.318695522074178,0.0589090383590381
33.219668,7.357462669141966,0.0584772675931058
33.224259999999994,7.399172488980988,0.0580349562014822
33.22884,7.443458427448808,0.0575970230075677
33.233436,7.486722746754834,0.0571706310398166
33.23802,7.528066012451418,0.0567511425063145
33.242608,7.574150819814534,0.056314432019292
33.2472,7.616227193795993,0.0558650972103424
33.251791999999995,7.653806395539212,0.0554243809617594
33.25637999999999,7.685744621168253,0.0550055349004119
33.260976,7.717027781777937,0.0545792088593065
33.265564,7.740216032358791,0.0541612818732874
33.27015599999999,7.759439991006616,0.0537667985940307
33.274736,7.780829372692175,0.0533526997874247
33.279335999999994,7.797965951567784,0.052932603254744
33.283924,7.807662685433921,0.0525310570099461
33.288523999999995,7.815682735118908,0.0521247873291446
