Time,Force,Position
33.673236,6.21759854185897,0.1565114525421456
33.677836,6.320660583352692,0.1557845647606148
33.682424,6.407434282259758,0.1551393255346336
33.68702,6.477631127703247,0.1545479126867729
33.691608,6.538324410550198,0.1538619893742441
33.696208,6.591357141144535,0.1530946056607312
33.7008,6.636895645649028,0.1522814850424456
33.705384,6.667832731379753,0.1516290175312433
33.709972,6.694394829586384,0.151042930259668
33.714564,6.720546232201951,0.150441059896454
33.719144,6.739379974522189,0.149962609564635
33.72372,6.76062350930845,0.1494164737815937
33.728296,6.7764262959601975,0.1489136484684594
33.732888,6.787365356231267,0.1485095018561783
33.737472,6.801369273987718,0.1480429280935916
33.742056,6.818804603371986,0.1474872826814288
33.746644,6.831742760518016,0.1470040888997904
33.751232,6.840672484282389,0.1465554461515571
33.755808,6.853933054122227,0.1460059486807564
33.760404,6.859875963666738,0.1455725698181526
33.76498,6.861688255115447,0.1451806010494664
33.769568,6.852340779049943,0.1449704236276352
33.774152,6.843892737432087,0.1447468954915265
33.778744,6.831358219167057,0.1446062544217009
33.783336,6.817679897026086,0.1444931588096939
33.787924,6.802324890703967,0.1443969401758721
33.792524,6.789013122705436,0.1442588872080175
33.797112,6.785961687773468,0.1439591659152597
33.801712,6.787651794508029,0.143582334305863
33.806292,6.7917958351572425,0.1431863306337117
33.810892,6.799659798311192,0.1427315484812587
33.815476,6.803559469532116,0.1423489306071011
33.820072,6.80799202105825,0.1419759814248912
33.824668,6.81561161478391,0.1415376046368102
33.829252,6.823353393223715,0.1410965839293082
33.833836,6.830606432806937,0.1406884377213664
33.838428,6.835449679924136,0.1403402476125003
33.843008,6.846588968174872,0.1399110547221583
33.847592,6.854663398940224,0.1395414847677291
33.85218,6.867357186657961,0.1391057079752102
33.856756,6.8854475810615865,0.1386008590317717
33.861344,6.911755070208189,0.1379799256360505
33.865932,6.936796570764704,0.1373960261562904
33.870524,6.966335243559461,0.1367566180607328
33.875108,7.000248903878311,0.1360761799332083
33.879696,7.03583924837831,0.1353828693542076
33.884292,7.071307408164164,0.1347053422855972
33.88888,7.101911841569341,0.1341170638062884
33.893484,7.129451417489139,0.1335888669470122
33.898076,7.152904516761761,0.1331349582493105
33.902664,7.178811549949036,0.1326677276972151
33.907272,7.209870820393906,0.132152084859936
33.911864,7.24309551387651,0.1315947241582718
33.91646,7.271212111550145,0.1311285584562526
33.921036,7.299206524509636,0.1306771792672644
33.925636,7.330021425526215,0.1301940360899584
33.930216,7.367621106532912,0.1296135046166024
33.934816,7.403954798949524,0.129074636783165
33.939404,7.442209544975578,0.1285103125280164
33.944004,7.482507529325218,0.1279225285721502
33.948588,7.521661709798921,0.1273650520046459
33.95318,7.559261390805617,0.1268191453377458
33.957768,7.597882690974109,0.1262585871170922
33.962364,7.630740830314276,0.1257750485936127
33.96694,7.657302928520908,0.1253605462580962
33.971524,7.68578608033698,0.1249258649759717
33.976112,7.715290851314847,0.1244813663602136
33.980712,7.744140557273356,0.1240346394620521
33.985292,7.775033501555453,0.1235600280850091
33.989876,7.811401095788955,0.1229931592632364
33.994468,7.846092005841307,0.1224424264357019
33.999048,7.875508493921917,0.1219372136419492
34.00364,7.906968220326115,0.1214082846820875
34.008224,7.939038870301039,0.1208440338350916
34.012812,7.964813479142431,0.1203396574766416
34.01742,7.987112534907375,0.1198671139185539
34.022008,8.009900329528904,0.1193777349435425
34.026616,8.026514267731041,0.11893870718943
34.031196,8.046315248132707,0.1184554831564438
34.035784,8.061496871581985,0.1180214998865904
34.04038,8.07818885304964,0.1175527533124827
34.044972,8.092182531174354,0.1171075314837521
34.049576,8.105643328993853,0.1166528120951326
34.054164,8.126255460945911,0.1161033494423496
34.058764,8.149932450383346,0.1155136070828136
34.063352,8.170133886744338,0.1149511057307962
34.067948,8.186082520295383,0.1144158221008451
34.072532,8.20215333856057,0.1138758188456326
34.077124,8.218346341539906,0.1133340709985141
34.081716,8.22607788034797,0.112875642026647
34.086308,8.231599854669676,0.1124146210939736
34.090908,8.242107740086203,0.1118943229739139
34.095504,8.250816756607437,0.1113919822924341
34.1001,8.263245695633405,0.1108575492866799
34.1047,8.28053836104005,0.1102700686204592
34.109292,8.295254907817897,0.1096962055542485
34.113884,8.302287240157979,0.1092021785587284
34.118464,8.312262245269297,0.1086735686547498
34.123056,8.317251339285791,0.1082053656862131
34.127644,8.321096629426348,0.1077545878543837
34.132236,8.322365800938107,0.1073200875867168
34.13682,8.328376514116394,0.1068424407370361
34.141408,8.333365608132889,0.1063773840398227
34.146004,8.33169210687341,0.1059759632265202
34.150584,8.325154879233256,0.1056230101808294
34.15516,8.318373282164812,0.105281253212019
34.159772,8.312368934829868,0.1049381836839752
34.16436,8.303421914723689,0.1046249031596825
34.168968,8.289855537665126,0.1043483894963065
34.173556,8.281685767292451,0.1040331886655845
34.178144,8.274048877224985,0.1037286551499334
34.18274,8.263469314386285,0.103454663064833
34.187336,8.250846513224,0.1032044249538259
34.191932,8.23744646232821,0.102954244945758
34.196528,8.222247542537122,0.1027152976997818
34.201128,8.210524175822485,0.1024578753120721
34.205708,8.20227636218429,0.1021817278145519
34.210308,8.197626286336687,0.101882658290806
34.214888,8.194364383793317,0.1015542234163684
34.219488,8.194533892877763,0.1011734240624816
34.224072,8.194092478391479,0.1008221729572408
34.228664,8.190586206419818,0.100506555070663
34.233244,8.192965279990624,0.1001365703469779
34.23784,8.197265407170873,0.0997486995988049
34.242436,8.207983760198802,0.0993168388713619
34.247036,8.223688024321554,0.0988378544476622
34.251628,8.241068972625456,0.0983551696755381
34.25622,8.263191462595891,0.0978350008306916
34.260808,8.286091202299824,0.0973128752260956
34.265396,8.309235311432051,0.0967825823139487
34.269984,8.336221527783158,0.0962234494192021
34.274576,8.365250982457853,0.0956447787592725
34.279168,8.393258817970755,0.0950759572276509
34.283764,8.42090009934122,0.0945281517612533
34.28836,8.449973695464543,0.093989171409968
34.29294,8.480435464892096,0.0934277375564439
34.297524,8.512163222909736,0.0928473790599834
34.302108,8.54041542785093,0.0922847563184333
34.306688,8.567401644202038,0.0917451996221848
34.311276,8.58838033029653,0.0912610912842017
34.315868,8.60612783274287,0.0907774777091896
34.320456,8.62166577070285,0.0902851146516448
34.325056,8.629641678939203,0.0898490806903068
34.329648,8.642603498270384,0.0893715529098482
34.33424,8.652456318667555,0.0888921808759288
34.338828,8.65294824044581,0.0884726247700028
34.343424,8.649065174699972,0.0880681697875453
34.348004,8.646448097544218,0.087645558871703
34.352608,8.648284051178074,0.0871689022805867
34.357188,8.64868769005907,0.0866850998804459
34.36178,8.643694722254182,0.0862258347118454
34.366368,8.63792450471579,0.0857659110486996
34.370964,8.63636294853872,0.0852640767769074
34.375552,8.63300252346635,0.0847702144690019
34.380144,8.630375206678858,0.0842458663502466
34.384732,8.62198472906304,0.0837590865499076
34.389316,8.609996513656633,0.0832860239663967
34.393904,8.598130482964368,0.0828066874072726
34.398504,8.584587768090955,0.0823272931150931
34.403092,8.577052583474158,0.0817980870794869
34.407688,8.57654654827577,0.0812125783804332
34.41228,8.579760435582116,0.080607955457034
34.41686,8.585916995659701,0.0799817009072206
34.421452,8.585288775747166,0.0794018488559327
34.42604,8.584538371120486,0.0788270995900942
34.430632,8.59069493119807,0.0782013469994991
34.435228,8.604413520999275,0.0775360202312803
34.439816,8.6124911346863,0.0769017826768625
34.444412,8.619180575069096,0.0762954292744914
34.449,8.626280711042957,0.0757079184880823
34.453588,8.63889963841685,0.0750995669977031
34.458184,8.65356180411433,0.0744789477368217
34.462776,8.665403481754721,0.0738744221743147
34.46738,8.679777136575282,0.0732357441304
34.471968,8.68814326113923,0.0726372202738318
34.47656,8.701373112083852,0.0720102648497462
34.481148,8.719344504695002,0.0713620712673948
34.485748,8.737315897306154,0.0707147976205527
34.490336,8.759251581850336,0.0700434654722008
34.494932,8.78106508168037,0.0693816022878998
34.499524,8.797770485701438,0.0687599853091728
34.50412,8.814353705008362,0.0681471147073293
34.5087,8.830037489867635,0.0675377700245193
34.513296,8.849441197231647,0.0669156569960374
34.517884,8.869744339043306,0.0662932822300009
34.522476,8.888659307550734,0.0656958216919516
34.527064,8.903077103819923,0.0651118350985365
34.531656,8.918516519250906,0.0645198108321648
34.536244,8.929336577729504,0.0639408744870203
34.540832,8.942199874531688,0.0633513928008359
34.545416,8.950565999095634,0.0627722159545318
34.550004,8.955989450888344,0.0622096538302139
34.554588,8.963333956290498,0.061640752453138
34.559168,8.969412473102565,0.0610900949201167
34.563764,8.983175204352397,0.0605095607027879
34.568356,8.994894697278642,0.0599430312273195
34.572944,9.001872648538358,0.0593931724154819
34.57754,9.010527283979224,0.0588470974159885
34.58212,9.020081353867736,0.0583033057601641
34.586708,9.02681493569916,0.0577680955838005
34.591304,9.033304148102292,0.0572411348840597
34.595896,9.035829068572395,0.0567320798100114
34.600488,9.038109619614213,0.0562323646677251
34.605068,9.03769186731308,0.0557354337701797
34.609664,9.035108691974214,0.0552539436519822
34.614252,9.029827213292403,0.054773674709139
34.61886,9.025078614915808,0.0543069023576273
34.623444,9.022783950453867,0.0538475887310536
34.628044,9.024087023782512,0.0533843625707795
34.63264,9.017705882673395,0.0529435516303284
34.637224,9.0098143835459,0.0525251584990663
34.64182,8.993749931124059,0.0521454892977951
34.646412,8.969634710122012,0.0518012292445154
