Time,Force,Position
33.839955999999994,6.095449674048687,0.1523511005180763
33.844544,6.214532026515624,0.1519282292106703
33.84914,6.321412513043079,0.1514641480094561
33.853731999999994,6.411271548699003,0.1511038984208317
33.858324,6.489583783434801,0.1506849121817953
33.862916,6.554961043946243,0.1502633108448378
33.867512,6.602539603852651,0.1499320837969729
33.872088,6.641313807630506,0.1495499588105436
33.876672,6.671694350870871,0.1491318999021542
33.881263999999994,6.690127637231782,0.1487754826177782
33.885844,6.705451924658685,0.1484517543031317
33.890435999999994,6.722086342124301,0.148135309264955
33.895024,6.737821325142269,0.1478344612964773
33.89959999999999,6.758586360703687,0.1474788006455054
33.9042,6.7777968967981,0.1471325500346668
33.908787999999994,6.793487738367441,0.1467908498207658
33.91338399999999,6.809911688221654,0.1464071771208908
33.91797999999999,6.828623245827747,0.1459678162400999
33.922568,6.849910922062639,0.1455003237472852
33.92715999999999,6.8702991638498805,0.1450459156899705
33.931752,6.88631241811303,0.1446491005810647
33.936344,6.900648988195028,0.1442720445659889
33.940932,6.910488386038788,0.1439599873948883
33.94553199999999,6.919262023272126,0.143624769727909
33.95012,6.925992422181877,0.1433304633145615
33.954724,6.934110994395857,0.1429948722032361
33.95930799999999,6.94553879352351,0.1425814531745191
33.963908,6.950548366803481,0.1422625909746968
33.9685,6.957601178407041,0.1419058913008526
33.973096,6.972216019734222,0.1414293957691435
33.977675999999995,6.982744384414227,0.1410358773402367
33.982268,6.993927814113589,0.1406480090427891
33.986856,7.008342427461105,0.1402387696684301
33.991451999999995,7.020469433056742,0.1398850848080496
33.996044,7.038648110357624,0.1394672160060037
34.000628,7.061612470773664,0.1390215734987167
34.005216,7.081800484581244,0.1386620649791145
34.009815999999994,7.10149975953224,0.1383349692999966
34.014404,7.122509164521951,0.1380190556878557
34.018995999999994,7.144950884264518,0.1377030813228429
34.023588,7.171278852674597,0.1373685944235413
34.02818,7.199694200856891,0.1370394239086828
34.032771999999994,7.229297494363752,0.136723412444207
34.037352,7.266096263451797,0.1363249566577986
34.04194,7.3072700200639344,0.1358821104253122
34.046536,7.348854472267137,0.1354646105708682
34.051123999999994,7.392770673670846,0.1350413162923134
34.055716,7.447069392855266,0.1344797542771697
34.060308,7.499447058430243,0.1339534756341143
34.064888,7.549004235948132,0.1334756561820723
34.069492,7.599705217341959,0.1329750961376406
34.074071999999994,7.64860732984049,0.1324972402960746
34.07868,7.691990650938989,0.1320883381952206
34.08326,7.733819472570485,0.1316836721942734
34.087855999999995,7.769596622496735,0.1313389697472176
34.09244399999999,7.798544850984239,0.1310549583342478
34.097047999999994,7.8274489380231165,0.1307341521441733
34.101636,7.856308883613365,0.1303788377984273
34.106224,7.8798502657832445,0.130039289895201
34.110803999999995,7.901304268180908,0.1296950738059248
34.115399999999994,7.91780626130064,0.1293446281427277
34.11999599999999,7.932831798218886,0.1289582989162847
34.124596,7.947402498097435,0.1285178066983966
34.129183999999995,7.953223222927799,0.1281604574997087
34.133779999999994,7.955524253233089,0.1277984864193397
34.13836799999999,7.950996362099634,0.127490133469933
34.142956,7.942704407012813,0.1271884096388558
34.147544,7.926439726611308,0.1269622397723909
34.152128,7.909231470313526,0.1267072586331485
34.15671999999999,7.887115346186439,0.1264787689562748
34.161308,7.861890223125344,0.1262587672555973
34.16589999999999,7.833678285844386,0.126040887038208
34.17048,7.8055443918289455,0.1257782407410434
34.175079999999994,7.779698105565383,0.1254700407978048
34.17967599999999,7.755772872911263,0.1251363108243112
34.184264,7.735689747476026,0.1247523922008114
34.188872,7.71638387177429,0.1243656493075088
34.193459999999995,7.691070465815939,0.1240640444550907
34.198052,7.6707871124010385,0.1237278083293116
34.202639999999995,7.653079877614935,0.1233708338776026
34.207224,7.641712825410995,0.1229894904330715
34.21182,7.629857034350471,0.1226340351408288
34.21639999999999,7.620332992490455,0.1222724818211537
34.221,7.613018515116799,0.1219098460244325
34.225579999999994,7.603049875848828,0.1216090886793662
34.23017599999999,7.602075581057335,0.1212228397526967
34.234764,7.602167046876264,0.1208584881537426
34.239363999999995,7.604345892467409,0.1205014281413188
34.243956,7.601338598984068,0.1202624498593915
34.248552,7.604016423063533,0.1199965100504766
34.253139999999995,7.613400983867599,0.1196902724978437
34.257724,7.6312911502915615,0.1193281312718665
34.26230399999999,7.654499880135894,0.1189619962021683
34.266887999999994,7.679795989752441,0.1186070413669521
34.27147599999999,7.703703926064758,0.1182862639037365
34.276059999999994,7.727000938806345,0.1179999726310264
34.280648,7.748787593529557,0.1177550541453002
34.285228,7.78173401576698,0.1173954906042931
34.28982,7.8121484608242335,0.1170935607828817
34.294408,7.842973601472552,0.1168118582201184
34.29899999999999,7.871755503797283,0.1165622616714731
34.303588,7.904668024217816,0.1162966314811146
34.308167999999995,7.937746870801123,0.1160646123436064
34.31276,7.978143377679759,0.1157700115122445
34.31735199999999,8.024835925691928,0.1154235459416019
34.321932,8.06924086595222,0.1151236677069535
34.326528,8.114423055946016,0.114822926664458
34.33112,8.16074904981575,0.1145056342708483
34.335724,8.217946300322776,0.1140589445726914
34.3403,8.279107842762828,0.1135767767865489
34.3449,8.333728974641058,0.1131595414947226
34.349487999999994,8.3829534998334,0.1127905319092855
34.35408399999999,8.43471000220591,0.1123821444081492
34.358667999999994,8.488876297044444,0.1119401067353358
34.363268,8.547495622672589,0.1114349484411821
34.36785999999999,8.606725871871461,0.1109042294330522
34.372452,8.668976837107087,0.1103076916778253
34.377044,8.722233457866235,0.1097825933316464
34.38164,8.776834110480985,0.1091988277371757
34.386228,8.82959175275181,0.108597385748504
34.39082,8.880750754107003,0.1079676908251109
34.395408,8.924425769004095,0.1073685227403978
34.4,8.965724893252053,0.1067416429471369
34.404588,9.000028769898492,0.1061268047806217
34.409184,9.027992463962764,0.1055224719121506
34.413771999999994,9.048960910425516,0.1049205185225753
34.418364,9.069230150420289,0.1042818814552707
34.422956,9.081771034528664,0.1036766845639052
34.427547999999994,9.08592849773129,0.1031043397377495
34.43214,9.078104802237574,0.1025846442218304
34.436727999999995,9.075222876390052,0.1019824086833647
34.441312,9.071641744074546,0.1013413799344125
34.445908,9.054569095044322,0.1007816091640095
34.450495999999994,9.026048167622966,0.1002798983767736
34.455099999999995,8.992252818229867,0.0998034615759015
34.45968799999999,8.955592839331052,0.0993127953299757
34.464276,8.915335122641645,0.0988403432746972
34.46886799999999,8.879408252027705,0.0983120416303184
34.473456,8.839517089480736,0.0978177378474351
34.478052,8.798848677200265,0.0973198923481776
34.48264,8.755115407434413,0.0968495975924486
34.48723999999999,8.714324810439797,0.0963498399540839
34.49182,8.670591540673945,0.0958717967369173
34.49641999999999,8.627146781785012,0.095412373432469
34.501008,8.586278141524877,0.0949400500649505
34.505596,8.550561738522338,0.0944456111816526
34.510183999999995,8.51574476996745,0.0939436450586957
34.514776,8.490166515317327,0.0933808093499605
34.51938,8.469862682638945,0.0927936632592472
34.52397199999999,8.454588902504014,0.0921907210627888
34.52856,8.437027514617204,0.0916194951109174
34.533156,8.418610833731375,0.0910840948948824
34.537732,8.41213117009326,0.0904774720691019
34.54231599999999,8.41530091595098,0.0898309192871779
34.546904,8.422845649332793,0.089168911362495
34.55149599999999,8.43505388111562,0.0885160857362593
34.556087999999995,8.450371111832453,0.0878703037310055
34.560692,8.462256930921471,0.0872709658702961
34.565284,8.476841053353432,0.0866589269091598
34.569872,8.498498466652432,0.0860255852144749
34.574464,8.524530867475523,0.0853775939080454
34.57904,8.553017202213269,0.0847325385292061
34.58362,8.585756339760962,0.084079269845384
34.588216,8.620416530918094,0.0834163087638896
34.592808,8.660595513475261,0.0827332071816383
34.597396,8.70437223382302,0.0820432634045079
34.601992,8.746516411438256,0.0813912441231589
34.606579999999994,8.788538404339345,0.0807538679152438
34.611183999999994,8.830071658383854,0.0801437941299298
34.615776,8.874058846343015,0.0795375824087318
34.62038,8.91600279597859,0.0789500174498613
34.624968,8.965875329480221,0.0783133066954712
34.629568,9.01382680937241,0.0776974200595737
34.634144,9.059202170635803,0.0770915689566139
34.638744,9.102534293575609,0.0765063688334611
34.643328,9.140591994543673,0.0759360595591205
34.647924,9.176973011330588,0.0753702440670318
34.652516,9.215397266441087,0.0747898461438719
34.65709999999999,9.253943706265732,0.0742076441534585
34.661688,9.283251432185608,0.0736657167368835
34.666284,9.313947331409716,0.0731062250008937
34.670872,9.342966546452672,0.0725506535584496
34.675456,9.374928434266865,0.0719835402232735
34.680043999999995,9.405868702919262,0.0714268621645809
34.684639999999995,9.43206742990513,0.070896827960641
34.68922799999999,9.45262518077682,0.0703925784765131
34.693824,9.479190461905125,0.0698555665929899
34.698415999999995,9.50485630858578,0.0693258522355542
34.70300399999999,9.52626935245649,0.0687978511604597
34.707595999999995,9.545350647126693,0.0682638482669166
34.71218399999999,9.56623081069219,0.0677261826181868
34.716772,9.57726133678219,0.067242717059597
34.721363999999994,9.584449755653305,0.0667769372611823
34.72595199999999,9.590494370648482,0.0663226647327595
34.730548,9.596783355071953,0.0658600453328199
34.73513199999999,9.603605219800633,0.0654079745342994
34.73972,9.60940546536752,0.0649625755523681
34.744316,9.614306276486758,0.0645192279595074
34.748912,9.62190539094894,0.0640734113157589
34.753516,9.634123862363507,0.0636148569022699
34.758104,9.645853594921492,0.0631777117307734
34.762708,9.65631733888939,0.062756223601614
34.767292,9.66203954119076,0.0623529447868598
34.771891999999994,9.66943842767328,0.0619529592330658
34.77648,9.676592944727508,0.0615626420192754
34.78108,9.685546330677033,0.0611696936794603
34.785672,9.685793883026994,0.0608114027144394
34.790268,9.681954958729785,0.0604761237374148
34.79485999999999,9.683634825832604,0.0601297927337371
34.799451999999995,9.68507032350714,0.0597922400533017
34.804044,9.686628005895818,0.0594506824552873
34.808628,9.69586990272226,0.0590834747956129
34.813219999999994,9.70576686456806,0.0587236149891928
34.817812,9.71644107614736,0.0583674915047907
34.822391999999994,9.72777035274602,0.0580205390815934
34.826975999999995,9.745107159601291,0.0576475922448201
34.831556,9.764365020066007,0.0572696134875888
34.836147999999994,9.783256326388289,0.0569050400841068
34.840743999999994,9.794341233558653,0.0565692504318568
34.845332,9.80350508711958,0.0562402372309649
34.84991599999999,9.806006345404532,0.055929221354408
34.854496,9.80862978840363,0.0556135852883135
34.859084,9.81035379695508,0.0552981843255619
34.863679999999995,9.809257317449443,0.0549898113389138
34.868255999999995,9.806484153762652,0.0546780105684762
34.87284399999999,9.80281155562822,0.0543667492222786
34.877444,9.802203814979162,0.0540392621235279
34.882031999999995,9.802617693491902,0.0537060812998106
34.886627999999995,9.797024041748028,0.0533984327348233
34.891203999999995,9.792085455023503,0.0530988466617446
34.895799999999994,9.7858808797089,0.0528127443207409
34.90038,9.771747720528236,0.052556675099143
34.904984,9.759002734651803,0.0522821887211306
34.90956799999999,9.74151620710884,0.0520172209316246
34.914151999999994,9.721864256528146,0.0517659719859196
34.918727999999994,9.692362668471953,0.051548229756653
34.92331599999999,9.658774603768585,0.0513483864958994
34.927904,9.626330342941156,0.0511385078829068
34.932492,9.597606004618465,0.0509215102588389
34.937079999999995,9.56671624325804,0.050717047794056
34.941664,9.542611261887734,0.0504917695972159
34.94624399999999,9.516340857479696,0.0502790543307384
