Time,Force,Position
34.811519999999994,6.81743677729223,0.1455756465248321
34.81612,7.017750375081047,0.1452390976024747
34.820708,7.211924018267364,0.1449100250527716
34.825312,7.4036776293559186,0.1445331819581171
34.829904,7.591334524165559,0.1441373749941176
34.8345,7.771419149619842,0.1437676341317451
34.839091999999994,7.949450297118799,0.1433355797274269
34.843684,8.11504544888172,0.1429849498368309
34.848271999999994,8.278831492117607,0.1425490289360424
34.852872,8.44056405739817,0.1420444898520397
34.857464,8.602819263352204,0.1414612875335367
34.862052,8.765597109979709,0.1408074388145304
34.86664,8.923300762615133,0.1401646233037191
34.871224,9.082592816534452,0.1394736316388308
34.875812,9.249847356136716,0.1386184137306108
34.880408,9.40608797512407,0.1377386789474889
34.885,9.55225824939278,0.1368456785433355
34.88959199999999,9.68504895202918,0.1360067355875807
34.894188,9.803927202728058,0.1351979811757564
34.898768,9.915233184071578,0.1343926603357255
34.90336,10.015369158269149,0.1336186978580071
34.907956,10.109731732006654,0.1328269548233714
34.912544,10.197543655550596,0.1320161275507623
34.917151999999994,10.275085006396235,0.1312239063564545
34.921744,10.34211141511528,0.1304590940975723
34.926331999999995,10.40017738117474,0.1297138340272553
34.93091999999999,10.451326142898193,0.1289685836082377
34.935508,10.500177057238028,0.1281704760864749
34.940107999999995,10.542154908690495,0.1273941293509951
34.9447,10.579547305007464,0.1266064749436281
34.949292,10.60802340011347,0.1258643072350843
34.953883999999995,10.626317205418433,0.1251862643109381
34.958484,10.646321596721432,0.124444223233912
34.963072,10.653078840738006,0.1237955215483003
34.967672,10.650186675258745,0.1232151589269382
34.97226,10.645539782332817,0.122674995776257
34.976864,10.641670139140391,0.1221334138451091
34.981448,10.636290137929588,0.1216212063316164
34.986044,10.636717438995737,0.121084567934498
34.990632,10.639476489262396,0.1205459200964873
34.995228,10.647387776786648,0.1199812960296663
34.999827999999994,10.657386444083116,0.1194250359658627
35.004424,10.669716860580088,0.1188669588175877
35.009012,10.685156276011076,0.1183046364579017
35.013616,10.70472630953786,0.1177282887032823
35.018196,10.72638372283686,0.1171577395165836
35.022796,10.745386974241544,0.1166333679028877
35.027384,10.76737703986609,0.1161123548741112
35.031976,10.790022170509994,0.1155959360768218
35.036559999999994,10.810135323973729,0.1151202559452324
35.041135999999995,10.830126292723318,0.1146497250694082
35.045728,10.85167176093991,0.1141774609582625
35.050315999999995,10.868353502775827,0.1137487260334042
35.054908,10.892841643763658,0.1132535806804472
35.059504,10.916430350303838,0.1127649168437183
35.064088,10.941285045434103,0.1122582945633802
35.068696,10.965362490830866,0.1117539904734404
35.073283999999994,10.990950294246003,0.1112216164799052
35.077887999999994,11.011263675689404,0.1107180994971247
35.08248,11.025158831285117,0.1102564890376499
35.087072,11.035700618518534,0.1098088105674272
35.091676,11.04235615708444,0.1093655635577843
35.096264,11.046802131163986,0.1089208107259751
35.100868,11.05071522493832,0.1084688201133277
35.105464,11.050497700616852,0.1080283559963455
35.110056,11.048314981237317,0.1075751512218091
35.114644,11.044822131819064,0.1071127045626765
35.119243999999995,11.033600926514422,0.1066795920354508
35.123832,11.021191775885212,0.1062330918816231
35.128435999999994,11.00567362632199,0.1057858965171381
35.133028,10.985780489234676,0.1053559107643762
35.137623999999995,10.963677787661002,0.1049210537332242
35.142216,10.941042205782118,0.1044755087579684
35.146812,10.913132201931491,0.1040529641854824
35.151399999999995,10.884689317775653,0.1036199783677014
35.155995999999995,10.853425945562726,0.1032037638923921
35.160591999999994,10.82408362695924,0.1027726850175541
35.165192,10.794619123641606,0.1023445249662119
35.169784,10.768874542828712,0.101892555830912
35.174375999999995,10.745173200339403,0.101420459876867
35.178956,10.71828481565057,0.1009777438348902
35.183552,10.692584376286304,0.1005473432796887
35.18814,10.66627301335131,0.1001381409884353
35.192727999999995,10.639350726845588,0.0997506572099592
35.197323999999995,10.61643687372152,0.099358559024321
35.201912,10.6011291917697,0.0989462902223402
35.206508,10.590851562361332,0.0985220987378427
35.211096,10.58907953857286,0.098073563061857
35.215688,10.590949394023603,0.097636294363621
35.220276,10.600669790074893,0.0971715857360501
35.224864,10.62171627980316,0.096668954978224
35.22946,10.647792822074884,0.0961571100465943
35.234047999999994,10.68135335080471,0.0956350515906589
35.238636,10.721254062116694,0.0951151880977153
35.243224,10.7655739024014,0.0946098236591482
35.24782,10.817622098572503,0.0940869773145345
35.252416,10.871513305087529,0.0935883560003233
35.256995999999994,10.931989063613011,0.0930875353490694
35.261592,10.994796571338997,0.0925947457986469
35.266184,11.063533566056082,0.0920941025830099
35.270784,11.138200047764265,0.0915822004976168
35.275364,11.2153204633871,0.0910721045448914
35.279964,11.296938051248176,0.0905492875654236
35.284555999999995,11.378189084966811,0.0900401339213836
35.289151999999994,11.459317933971302,0.0895402362467863
35.293744,11.534561437433329,0.0890829807538003
35.29834,11.609682756181206,0.0886355359606663
35.302927999999994,11.683005206033789,0.0881998369680657
35.307528,11.75657202531466,0.08776108977372
35.31212,11.828095606271948,0.0873423072765595
35.316711999999995,11.893445330809843,0.0869465995658192
35.321304,11.956996186452445,0.0865609126844779
35.325896,12.014373185675652,0.0861960911355891
35.330487999999995,12.067863936231351,0.0858299082824989
35.33508,12.11951167644313,0.0854485283582093
35.339672,12.167028798559103,0.0850742941580827
35.344263999999995,12.211559106455214,0.0846947566317794
35.348859999999995,12.249504862340869,0.0843217072242634
35.353448,12.282953445988287,0.0839643612103827
35.358048,12.310472542644607,0.0836163230506354
35.362635999999995,12.338969117014091,0.0832412292999849
35.367228,12.36268000826842,0.0828637532637386
35.371824,12.3803392278175,0.0824977906305654
35.376411999999995,12.397054871470306,0.0821106065663077
35.381007999999994,12.412582569798548,0.0817112790458329
35.385596,12.427166692230513,0.0812908268234158
35.390184,12.436842946833169,0.080870765177593
35.39478,12.442632952768314,0.0804444302781215
35.399368,12.441471852550572,0.0800294044217335
35.403972,12.439000622294117,0.0796051585412253
35.408552,12.436240881160735,0.0791648443806014
35.413148,12.43601311720753,0.0786997780590304
35.417728,12.435374657663258,0.0782217362645754
35.422328,12.434980567547278,0.0777369950328292
35.426916,12.431110924354854,0.0772570704800955
35.431515999999995,12.421844674476542,0.0767887826450716
35.4361,12.413966597902458,0.0763044781286387
35.440696,12.404167467718937,0.0758268304897101
35.445288,12.394857076391997,0.0753341485896896
35.449884,12.38758992338864,0.0748298744894578
35.45448,12.377502282328196,0.0743364689759902
35.45908,12.37203399822014,0.0738300797391229
35.463671999999995,12.368242398293228,0.0733225594722809
35.468264,12.369314524747,0.0727962658301162
35.472856,12.369242847324829,0.0722793116517217
35.477439999999994,12.370847854083804,0.0717625108104808
35.482032,12.371431241680993,0.0712491046276985
35.486624,12.375734551782912,0.0707255845184918
35.49122,12.387722076322598,0.0701749205171484
35.495808,12.3976663625387,0.0696348754113727
35.500404,12.410186767383596,0.0690955317800616
35.50498399999999,12.415800207524232,0.068585537625171
35.509576,12.423867581579522,0.0680787801369825
35.514163999999994,12.430913336473012,0.0675777255635166
35.518752,12.442334078890603,0.0670738763845911
35.523348,12.4623384701936,0.0665445397406777
35.527936,12.480177438458869,0.0660302544032744
35.53253599999999,12.500059645047726,0.0655061902059005
35.537119999999994,12.52366177414132,0.0649762489909897
35.541708,12.550206576006143,0.0644390590236013
35.546304,12.575729758709178,0.0639079832957225
35.550892,12.597655203621615,0.0633833126342675
35.555488,12.621990441000085,0.0628408523527623
35.560067999999994,12.641461951997872,0.0623163025499251
35.564668,12.660278397976304,0.0617861469039791
35.569252,12.679583582811318,0.0612441009676426
35.573851999999995,12.704774113188805,0.0606837263959573
35.578447999999995,12.7271441555092,0.0601310540221441
35.583036,12.742851602553625,0.0595959436253867
35.587616,12.762234830654156,0.0590325705255854
35.592208,12.777120886516446,0.0584742187496718
35.596799999999995,12.794294550130616,0.0578997242408838
35.601384,12.808359214810778,0.0573151731558552
35.605976,12.819725576148,0.0567317739802388
35.61056,12.824795896351684,0.0561526291505545
35.615148,12.82332580599354,0.0555858545607142
35.619732,12.81507093564528,0.0550333301060549
35.624328,12.80681606529702,0.0544805259855046
35.628908,12.7883008618822,0.053941533681558
35.633503999999995,12.75928095597252,0.0534223340226736
35.63809199999999,12.726418942843958,0.0529090025708504
35.642688,12.68869320333472,0.052403987010161
35.647276,12.64406049912122,0.0519157726570435
35.651864,12.59468625324119,0.0514319256701045
35.65646,12.541225530713984,0.0509591252975696
35.661052,12.476404812692907,0.0505259115762321
35.66564,12.401612272482188,0.050119131617589
35.670232,12.318646778977117,0.0497370902012047
35.67482,12.233515862434311,0.0493609860238589
