Time,Force,Position
32.654196,6.534846749620241,0.1500952260580393
32.658784,6.590852871881028,0.1497072630025284
32.663388,6.63278021604152,0.149344828663372
32.667984,6.664226519892306,0.1489532597613523
32.672571999999995,6.687934228224961,0.1485306244016029
32.677172,6.709999154193353,0.1480408989336931
32.681763999999994,6.7278554188004245,0.1476527948350422
32.68636,6.752252093969323,0.1471614013998628
32.690948,6.779957996051894,0.146595810446287
32.695547999999995,6.805742844525023,0.1460665180858417
32.70014,6.833038051016528,0.14548349273672
32.704732,6.861843615526412,0.1448617632272063
32.709315999999994,6.889216865283435,0.144245551208804
32.713916,6.918877722792337,0.1435773708692784
32.718508,6.946739711405941,0.1429380848417652
32.723096,6.977422188076638,0.1422647443068629
32.727688,7.00732741501383,0.1415957243041477
32.732284,7.039642434417047,0.1408662857368599
32.736872,7.070647323781552,0.1401371041633415
32.74146,7.108559177850319,0.1392910261763118
32.746052,7.142628924700203,0.1385120326910509
32.75064,7.177842475426027,0.137715236819209
32.755227999999995,7.214077645313644,0.1369005306463874
32.759828,7.246470707982379,0.1361491401193489
32.764416,7.278985955365258,0.135398485852776
32.769012,7.305327346328749,0.1347217449162218
32.773604,7.329336988091734,0.1340577669941449
32.778195999999994,7.350403957083484,0.1334492963300767
32.782792,7.369183318323355,0.1328954089908479
32.787384,7.38784049484908,0.1323481870129286
32.791979999999995,7.409806898288477,0.1317391852604007
32.796568,7.424455641432546,0.1312242088805878
32.801156,7.438204950128967,0.1307200361708956
32.805752,7.4521986282536785,0.130206725228049
32.81034,7.465537241359034,0.1296899078799491
32.814932,7.471313824740769,0.1292751663687378
32.819528,7.47835639671259,0.1288297422926041
32.824116,7.48233411119903,0.1284351427041573
32.82872,7.485534575951968,0.1280446309089316
32.833307999999995,7.483993499038376,0.1277185004053205
32.837912,7.483840595429013,0.1273548687881764
32.842504,7.481644453496066,0.1270253916463581
32.8471,7.479692680991406,0.1266824359597037
32.851679999999995,7.479784146810336,0.1263063208162506
32.85628,7.479342732324055,0.1259208978732391
32.860872,7.483642859504305,0.1254757445579041
32.865464,7.490230594436431,0.1249859593587818
32.870048,7.49232115713032,0.1245407814393084
32.874635999999995,7.497476577309588,0.1240505155938129
32.87924,7.501854747755355,0.1235611802261254
32.883827999999994,7.501002637678008,0.1231587171074724
32.88842,7.500028342886515,0.1227605181958466
32.893007999999995,7.500975101704466,0.1223380186938334
32.897596,7.498201938017678,0.1219584335022285
32.902187999999995,7.497472012654477,0.1215481766120793
32.906768,7.498907510329008,0.121097213761141
32.911359999999995,7.502141876898834,0.1206308084321148
32.915944,7.507663851220541,0.1201193708530786
32.920531999999994,7.510365337485157,0.119639693427834
32.925128,7.518297104272887,0.1190797707827112
32.929708,7.525984501632326,0.1185345714135599
32.934304,7.533671898991765,0.117990313542235
32.938896,7.54201436137056,0.1174530693782072
32.943484,7.5522778773587955,0.1168956857803052
32.94808,7.559354351147506,0.1163899138005281
32.952668,7.565287021060278,0.1159084743880575
32.957255999999994,7.569831517668818,0.1154628331215704
32.961852,7.579894805677391,0.1149629047179858
32.966448,7.586238171181227,0.1145034801657467
32.971044,7.59515765531386,0.1140273653794114
32.975624,7.606120377770082,0.1135219817810516
32.980228,7.620925207445186,0.1129721758146708
32.984815999999995,7.634708417958495,0.1124388506270246
32.989416,7.65172281211996,0.1118955649569344
32.993992,7.664284175491813,0.1114278784512798
32.998591999999995,7.680321091940113,0.1109377673299953
33.003187999999994,7.694192585350678,0.1104849234313297
33.00778,7.711417447123543,0.1100197951705339
33.012367999999995,7.734038915582297,0.1095123298410924
33.01696,7.748120876604264,0.1091343591856754
33.021552,7.762735717931442,0.1087694511500322
33.026143999999995,7.776084570668535,0.1084308238679138
33.030732,7.789189053977338,0.1081065891475759
33.035328,7.793221149544145,0.1078956823296552
33.039916,7.800850982901542,0.1076565901504477
33.0445,7.807459197097145,0.1074317688774579
33.049088,7.812268542397454,0.1072207684724403
33.05368,7.81376866078409,0.1070630955325901
33.058276,7.812858986704702,0.1069507709905985
33.062864,7.812071497339461,0.1068323828897241
33.067456,7.812960692155368,0.1067068562013745
33.072044,7.8174476247618685,0.1065555107954683
33.076636,7.823489056835373,0.106403964713727
33.081232,7.824911131956491,0.1062919153548678
33.085812,7.834139606229521,0.1060960847104879
33.090419999999995,7.838504354121877,0.1059520434787359
33.095008,7.8427469173000866,0.1058143968137936
33.099596,7.841470689078263,0.1057227249528822
33.104192,7.838273407246998,0.1056504435399341
33.108784,7.844270697871876,0.1054654549066219
33.113388,7.8507567273533345,0.1052568008685592
33.117964,7.859408179872527,0.1050174437620197
33.12256,7.869325620981804,0.1047551415915193
33.127148,7.891013753176022,0.1043686006189599
33.131747999999995,7.911025201189086,0.1039906878062488
33.136336,7.93307988752574,0.1035908542059949
33.140927999999995,7.959876115528924,0.1031506172560388
33.145512,7.990103755159926,0.1026579374596571
33.150108,8.023518436990456,0.102121162499488
33.154695999999994,8.058076922696921,0.1015715924010837
33.159292,8.089159855326942,0.1010414428791339
33.163888,8.115379061576288,0.1005638030368423
33.168488,8.143108625844011,0.1000563646485125
33.173064,8.175046851473052,0.0994965132698629
33.177651999999995,8.199667416806763,0.0989913072302615
33.182232,8.230295512397092,0.0984245683505489
33.186831999999995,8.262189596577505,0.0978370721695311
33.19142,8.296126919081503,0.0972269819004811
33.19602,8.328631926832646,0.0966126289702466
33.200612,8.350754416803078,0.0960828719888065
33.205192,8.372099657040009,0.0955554677831952
33.209792,8.394833070581168,0.0950041589407864
33.21438,8.415112550207677,0.0944599029700673
33.218972,8.432815911205388,0.0939322584440466
33.223568,8.451008011059681,0.0933839342652995
33.228156,8.465846742551674,0.092845712286527
33.232752,8.476066117091282,0.0923389059102324
33.237331999999995,8.48370937300209,0.0918427188013066
33.24192,8.493518051950636,0.0913228382742137
33.246516,8.498707373946793,0.090831959388717
33.251107999999995,8.506961553428333,0.0903112903165052
33.255703999999994,8.515826656480598,0.0897638063532823
33.260292,8.519050783418685,0.0892551184129531
33.264892,8.521619845337415,0.0887414141919945
33.269479999999994,8.527253764741527,0.0881975083910136
33.274076,8.531455369392777,0.0876494185099512
33.278668,8.535001909024674,0.0870961812880309
33.283264,8.53969225253251,0.0865297026495353
33.287852,8.545159845773847,0.0859650407707281
33.292444,8.559333272614744,0.0853369786275589
33.29704,8.572607265007992,0.0847138793496848
33.301635999999995,8.581916965468213,0.0841241419730694
33.306224,8.591881730947788,0.0835421597388287
33.310824,8.598126573922627,0.0829819244875488
33.315416,8.605803731650328,0.0824329772851878
33.320015999999995,8.61785587690212,0.0818735929601627
33.324604,8.633994498801083,0.0812805746834048
33.329187999999995,8.652831424042992,0.0806801544786634
33.333776,8.669869480389606,0.0800901541656326
33.338372,8.692670697564543,0.0794668463705672
33.342963999999995,8.716615718615422,0.078835237557988
33.347552,8.738761870771006,0.0782111605755596
33.352135999999994,8.762829076536027,0.0775747792043884
33.356728,8.787429162606266,0.0769541782012157
33.36132,8.813828117571793,0.0763318707867425
33.365908,8.839738333680742,0.0757343619050753
33.3705,8.865648549789691,0.0751396343726089
33.375111999999994,8.892458200346287,0.0745469842988909
33.3797,8.922454893102408,0.0739310624696941
33.384304,8.94938672837315,0.0733427435898346
33.388895999999995,8.978239617253333,0.0727469413040799
33.3935,9.011056798066544,0.072129026116312
33.398092,9.046816651650987,0.0714987634597628
33.402688,9.085396993292523,0.0708588831031669
33.407284,9.11948016269582,0.0702321767771115
33.411876,9.14984340959438,0.0696231907534464
33.41648,9.178940667902854,0.0690357323770284
33.42106,9.204073634278302,0.0684734610970433
33.42566,9.23100546954904,0.0679108071063605
33.430248,9.254994632048549,0.0673681142054913
33.434847999999995,9.279638859567411,0.066838692323425
33.439436,9.305060336819778,0.0663126733856885
33.444044,9.33150343323394,0.0657817391271247
33.448636,9.359334702952328,0.0652342849035816
33.453232,9.38818759183251,0.064686110959168
33.45782,9.415485981245688,0.0641339344635005
33.462408,9.442906555373012,0.063579789378536
33.466995999999995,9.467506641443247,0.063037604074334
33.471591999999994,9.487120816418662,0.0625238831912134
33.476184,9.50824534941245,0.0619883939959784
33.480784,9.527693198225087,0.0614531408987192
33.485372,9.543176755104698,0.0609383937344523
33.48996,9.553385890012567,0.0604280095748513
33.494547999999995,9.562695590472792,0.0599206118489507
33.499148,9.574947963704249,0.0594004914917161
33.503736,9.589487944687582,0.0588616763305906
33.508336,9.600674557308617,0.0583181292722152
33.512932,9.61337152794803,0.0577507716312886
33.517523999999995,9.619528088025618,0.0571985401612422
33.522124,9.622864160046111,0.0566527712262126
33.526708,9.616717148733544,0.0561321199600868
33.531304,9.61081450684927,0.0556018803873679
33.535892,9.603890245803198,0.0550768410700863
33.540484,9.590181204767012,0.0545735953878543
33.545096,9.566989080397768,0.0540929281166206
33.549684,9.538933229647846,0.0536253291371563
