Time,Force,Position
34.618004,9.803640065750274,0.1444310579383796
34.622592,9.9265133272774,0.1437403245407295
34.62718,10.033997680665518,0.1430603164788056
34.631768,10.130468113438717,0.1423491352291481
34.63636,10.21482496316969,0.141662048852122
34.640952,10.28760111016365,0.1410012223600649
34.64554,10.355214780268271,0.1403071777729253
34.650132,10.406305977989687,0.1397261609852088
34.65472,10.450235601946808,0.1391530475300664
34.659312,10.484960413816047,0.138616178635586
34.663904,10.517020824159236,0.1380453117398812
34.668492,10.543351975490989,0.1374771158068449
34.6731,10.560889010325925,0.1369502383270846
34.677688,10.569143189807464,0.1364859224880884
34.682296,10.57207880586863,0.1360365601152171
34.686876,10.570473108242933,0.1355982834145061
34.691468,10.559995250854902,0.1352310362530264
34.696072,10.539867983971035,0.1349369919457287
34.70066,10.515610098991369,0.1346652096607752
34.705252,10.495560875373018,0.13433679270891
34.709832,10.480331236686718,0.1339271701713547
34.714432,10.459294295723463,0.133549139734735
34.71902,10.440911516654529,0.133120584725627
34.723624,10.424405649746404,0.1326451281565024
34.728212,10.404912968618415,0.1321726942668053
34.732812,10.38374360330928,0.1317081338829106
34.737408,10.35092573162935,0.1313629203112734
34.742,10.32566988967304,0.1309440636881625
34.746596,10.303112351059672,0.1305029297352945
34.751188,10.27928882385622,0.1300820955916187
34.755788,10.2544878189396,0.129699998172575
34.76038,10.23165200908105,0.1293252014279527
34.764984,10.214623501499457,0.1289194344505092
34.76958,10.202625046461309,0.1284850992084441
34.774168,10.191570167319435,0.1280706210896436
34.778756,10.18182541821628,0.1276610485702281
34.78334,10.176455656637218,0.1272192453441039
34.787936,10.17762630561998,0.1267154602512194
34.792524,10.1794520196221,0.1262140794859402
34.79712,10.182587863662931,0.1257216383558562
34.801712,10.181803557219364,0.125301518546265
34.8063,10.183639510853222,0.1248939618524021
34.810892,10.18245474845033,0.1245507736967766
34.81548,10.177349835563035,0.1242784673766349
34.820076,10.176908421076757,0.1239961145190899
34.824668,10.182518678295716,0.1236779652185385
34.82926,10.20006595276239,0.1232634511253354
34.833868,10.214304000315394,0.1228961634738019
34.838456,10.226376624830666,0.1225576559380551
34.843044,10.24306860629832,0.122182499458231
34.84764,10.26168164137542,0.1217901886245687
34.852236,10.282337914776104,0.1213760532471473
34.856832,10.299929330691407,0.1209960730023211
34.861424,10.319075246073716,0.1206160586753482
34.86602,10.33989784563717,0.1202290625877598
34.870608,10.364851063296433,0.1198276730623729
34.875212,10.391358780422696,0.1194246055754136
34.879804,10.421997115644764,0.1190095701238121
34.8844,10.457010438390924,0.1185720730251043
34.888988,10.491124326689434,0.1181450562607713
34.893592,10.527281453311534,0.117697449030014
34.898184,10.56266133020013,0.1172522140616375
34.902768,10.600206630126465,0.1167815398754393
34.907364,10.639917353090524,0.1162859619805557
34.91196,10.680894064644674,0.1157765361559365
34.916548,10.717251419246438,0.1153039846499529
34.92114,10.745802374696288,0.1149023499648336
34.925728,10.772310091822554,0.1145210906634255
34.930324,10.803437165901205,0.1141096722619836
34.934912,10.83714035860865,0.1136915161775209
34.9395,10.872886789639685,0.1132569011288002
34.944088,10.90748941679478,0.1128385781340156
34.94868,10.949654073673496,0.1123668758121852
34.953272,10.98707718888568,0.1119323605153427
34.95786,11.024622488812009,0.1114953984987916
34.962456,11.057015551480744,0.1110826814821399
34.967044,11.09247347163486,0.1106446804431769
34.97164,11.125355273160176,0.11022240446465
34.976228,11.152063218266104,0.1098326400337858
34.980816,11.173130187257852,0.1094819024300544
34.985412,11.19456371039204,0.1091197278753191
34.99,11.214564918773368,0.1087542529275695
34.9946,11.23468831186884,0.1083859612737918
34.999192,11.255711139411964,0.1080149269471393
35.003784,11.271215175555051,0.1076789140025544
35.008376,11.28864026530758,0.1073296777843531
35.012968,11.30835296281199,0.1069523435324552
35.017564,11.333051571411218,0.1065348338835436
35.022152,11.355296246095795,0.1061262451943244
35.026752,11.36650333798031,0.1057822355953553
35.03134,11.373091072912436,0.1054666679028873
35.03594,11.381189165862938,0.1051257312756023
35.040524,11.380537283765255,0.1048226042318639
35.045124,11.382173009419452,0.104492949122013
35.04972,11.382376420320789,0.1041597108008567
35.054316,11.385644688707506,0.103800333037619
35.0589,11.387358457627217,0.1034435258948561
35.063496,11.38547448875634,0.1031043607624152
35.0681,11.38641100794255,0.1027475008412028
35.072696,11.39425449183302,0.1023394963229047
35.077284,11.401975791009349,0.1019372260003092
35.081884,11.415338066299856,0.1015030286186667
35.086464,11.43008851489459,0.101050239810709
35.091052,11.442262844860528,0.1006068008494901
35.09564,11.456358228435908,0.1001511209706672
35.100236,11.469676362277788,0.0996965786199594
35.104832,11.487203157480984,0.0992075030703465
35.10942,11.50137658432188,0.098727993372624
35.114016,11.51465057671513,0.098253956287517
35.118604,11.53855145631738,0.0977127452339926
35.123196,11.563596139795568,0.0971593826532605
35.127788,11.585820335216669,0.0966228805169303
35.132376,11.615484375647242,0.0960501984901222
35.136984,11.649357077439136,0.0954470509746722
35.141568,11.687849136183416,0.0948258644924329
35.146172,11.724664510746544,0.0942103184770911
35.15076,11.756616158928995,0.093626050215942
35.155364,11.790855414863326,0.0930195935689387
35.15996,11.824561790492448,0.0924062716793787
35.164548,11.85454824361683,0.0918140097945802
35.169144,11.883879631721856,0.0912195861252588
35.173736,11.9067927939792,0.0906548405434473
35.178336,11.92586384901766,0.0901129113055094
35.18292,11.94530145819856,0.0895597035072193
35.187512,11.963306752626606,0.089001590744326
35.192088,11.977958678692346,0.0884476736548169
35.196688,11.987746878377411,0.0879231324377301
35.201284,11.997535078062477,0.0873989581032115
35.205884,12.006423843299892,0.0868784191753414
35.210476,12.01171487074672,0.0863726526183726
35.215068,12.018027517355335,0.0858605757486258
35.219668,12.026261217573404,0.0853389916326975
35.224256,12.027710137801346,0.0848541617655091
35.228852,12.020453224429728,0.0844142234384731
35.233448,12.004979216315135,0.0840027893751522
35.238036,11.990404642648192,0.0835882701674291
35.242628,11.980038730342567,0.0831431576891537
35.247224,11.966974514694,0.0827051847207171
35.251808,11.95648641767423,0.082263666866816
35.256396,11.947019939816254,0.0818156115956034
35.260988,11.935632408348836,0.0813759701367415
35.265576,11.930008037709742,0.0809102268312939
35.270164,11.926426905394235,0.0804317352661253
35.274756,11.924400272545736,0.0799566086280055
35.279336,11.925071943040178,0.0794747810478395
35.283924,11.936248316029474,0.0789511001449051
35.288516,11.954209469008887,0.0783994676720626
35.293104,11.97499111004539,0.0778396611000226
35.297692,11.997815989405478,0.0772697949832064
35.302288,12.01859763044198,0.0767124458216098
35.306888,12.037458217869045,0.0761636167640164
35.31148,12.060160912514988,0.0756028797291553
35.316072,12.085928464646312,0.075025093933659
35.320668,12.120524035091345,0.0744092838857314
35.325256,12.158717343326964,0.0737846505032868
35.329856,12.196011217114936,0.0731638990870801
35.334444,12.23126185257932,0.072557022371459
35.339044,12.268066987510712,0.0719542010630061
35.343628,12.301396569365656,0.0713574006104373
35.348228,12.33304946703945,0.0707618385959892
35.352824,12.365601799160894,0.0701649682002878
35.35742,12.39239097045401,0.0695914335959026
35.362004,12.419057957032985,0.0690235995996672
35.3666,12.442127205821366,0.0684628633159817
35.371188,12.460210543514926,0.0679246605004661
35.375784,12.469343678180632,0.0674291111948684
35.380372,12.468871544799134,0.0669671931103768
35.384956,12.460837381694017,0.0665266416894897
35.389548,12.449205480798303,0.0660912846111504
35.394128,12.440394067959682,0.0656481351894753
35.398712,12.433625893444647,0.0651948339799865
35.403288,12.418274070044202,0.0647672811579296
35.407884,12.403410985500336,0.0643254387867421
35.41246,12.380619317090414,0.0639142992807077
35.417048,12.359993071718224,0.0634899030733442
35.421656,12.33948901106018,0.0630611335846721
35.426244,12.318984950402134,0.0626315483628561
35.430852,12.297337085868152,0.0622090175734699
35.43544,12.27544485190588,0.0617921103583729
35.44004,12.255229302124755,0.0613759004424582
35.444632,12.23448087203842,0.060948930907176
35.449232,12.216430745295032,0.0605181513440967
35.453824,12.195560130494547,0.0600924970024621
35.458416,12.17493388512236,0.0596577477596994
35.463012,12.157494681949697,0.0592046778242849
35.467596,12.136579925700588,0.0587486058443105
35.472196,12.121183960851514,0.0582828770837925
35.476776,12.111428972116617,0.0578035295921224
35.48138,12.10310629813458,0.0573322774895082
35.485968,12.089264832752509,0.0568676379844044
35.490568,12.073380129046852,0.0564108265712038
35.49516,12.061215347845934,0.0559459331820374
35.499756,12.045252600874758,0.0555140336438053
35.50434,12.032110341960676,0.0550752355172795
35.508936,12.015903225561209,0.0546484738690772
35.513532,11.996509066962217,0.0542358533719717
35.518132,11.974050050877844,0.0538336764986292
35.522724,11.952857023383554,0.0534191629514165
35.527324,11.931419626460976,0.0530103700807721
35.531912,11.90679518733887,0.0526159332744515
35.536508,11.881315455217743,0.0522450326335347
35.541084,11.853015235039532,0.0518774651818933
35.545684,11.822305222395295,0.051526009030081
35.550276,11.791883720627975,0.0511903503389392
