Time,Force,Position
33.9741,5.988964734464032,0.1564155650853156
33.9787,6.06918460025586,0.1562804794153902
33.983292,6.138346403984144,0.1560587250989816
33.987883999999994,6.193918168468717,0.1558341411934251
33.992472,6.240763620090251,0.1555002091504852
33.997068,6.277494585544519,0.1551137001906922
34.001656,6.300924022631994,0.1547522812320771
34.006248,6.3107295186588654,0.1544926283609667
34.010828,6.311696756740291,0.1542800281376178
34.015412,6.310576615049503,0.1540698004913628
34.02,6.305003442569103,0.1539780228296794
34.024592,6.307158625975096,0.1537803894804139
34.029176,6.317286534695775,0.1534604217092629
34.033756,6.335753722873575,0.152996288438716
34.038352,6.35691921439432,0.1524900352853977
34.042939999999994,6.3780847059150645,0.1519799226162493
34.047528,6.400682512188668,0.1514665619830249
34.052119999999995,6.425123328806194,0.1509689571370393
34.056708,6.4527953290718765,0.1504409772484177
34.061304,6.479201340747473,0.1499571169980572
34.065892,6.503564114099483,0.1495248785382338
34.07048,6.531768994670376,0.1490194820057172
34.075076,6.55433289912709,0.1486182463774216
34.079668,6.578940041907391,0.1481754556950541
34.084264,6.601381761649959,0.1477903443680868
34.088852,6.621902427783086,0.1474435640609149
34.093452,6.648308439458682,0.1469865651557398
34.098036,6.676757689457865,0.1464888341921046
34.102636,6.704840385314611,0.1460182895474702
34.107223999999995,6.736643003676096,0.1454931499256119
34.111824,6.773964413437612,0.1448865667125266
34.116416,6.807810270122682,0.1443312414303449
34.121012,6.838058389017163,0.1438339853212943
34.125604,6.861888282063961,0.143438860369424
34.130199999999995,6.884285860357901,0.1430480304560885
34.134788,6.912158088603245,0.142538663497654
34.139384,6.940641240419319,0.1419944187246536
34.14396,6.973577423025002,0.1413577447865559
34.148556,7.005614171183039,0.1407378943858243
34.153147999999995,7.036340789302364,0.140112264731354
34.157732,7.066412342402328,0.1394863147312742
34.162312,7.095828830482938,0.1388625097656272
34.1669,7.1281879913347845,0.138188611301926
34.171492,7.160791521614922,0.1375080609834068
34.17608,7.191185487408697,0.1368323200515399
34.180671999999994,7.221823822630764,0.1361434679891441
34.185252,7.248742235348094,0.1355148297985739
34.18984,7.273573268293207,0.1348864338862382
34.194432,7.295417487018459,0.1342641441536029
34.199023999999994,7.313008902933761,0.1336868125675226
34.20362,7.32401576683861,0.1331623686800524
34.208216,7.333223761848163,0.1326585317663706
34.212807999999995,7.339611268800629,0.1321924989447753
34.2174,7.347386949057323,0.1316868291384242
34.221996,7.359126921247047,0.1311218537411062
34.226596,7.365880982341948,0.1306416147055506
34.231176,7.374556097046291,0.1301380030431075
34.235775999999994,7.374769747579364,0.1297480349286647
34.240364,7.377393190578465,0.129305631503228
34.244964,7.382959306348797,0.1288212670916233
34.249556,7.38942485656678,0.1283286499981404
34.254155999999995,7.396134776213054,0.1278246787014365
34.258748,7.404232869163557,0.1272870091118227
34.263344,7.41040990850462,0.1267774347968074
34.26792,7.419163066474479,0.1262471532565488
34.272512,7.428038409158486,0.1257112142111512
34.277092,7.43781318629014,0.1251678923736668
34.281687999999995,7.4479986590128595,0.1246432780286269
34.286276,7.462681303973817,0.1240741837773377
34.290859999999995,7.47634232977298,0.1235199180896283
34.295448,7.494622712524531,0.1229156301860925
34.300044,7.516989571923254,0.1222508169190905
34.304635999999995,7.545363961578594,0.1215013241518572
34.309224,7.574393416253289,0.1207607501643422
34.31382,7.592673799004838,0.1201619206517734
34.318408,7.611198551184678,0.1195493115521746
34.323,7.626780630593284,0.1189807636745441
34.327588,7.646082632506627,0.1183687596218988
34.332176,7.661420342486943,0.1178150945052968
34.336792,7.671772141372434,0.1173308758474356
34.34138,7.681102321096135,0.1168632178683859
34.345976,7.688267077782102,0.116433186629162
34.350564,7.693022042002044,0.1160546726534347
34.355152,7.70047530956493,0.1156540146266017
34.359756,7.707806392413672,0.1152616299779124
34.364344,7.713871486672327,0.1148969232703602
34.368948,7.71915933119748,0.1145348453850926
34.37354,7.72342555656084,0.1141869942509862
34.378144,7.727569597210053,0.1138480386044017
34.382735999999994,7.738254048421093,0.113444852831992
34.387324,7.748571945489697,0.1130644184802123
34.391904,7.757379484539924,0.1127256330690226
34.396508,7.7638994158382735,0.1124293111792516
34.4011,7.769397727974829,0.1121473144203418
34.405696,7.786544546482178,0.1117350016109406
34.41028,7.806267483618324,0.1113096298417623
34.414868,7.825868236040324,0.1108916134768092
34.419456,7.847267857357622,0.1104622110490631
34.424048,7.871365782017862,0.1100140750020259
34.428639999999994,7.900449617772923,0.1095073938834665
34.433224,7.9296556382421315,0.1089960374898922
34.437804,7.960782712320779,0.1084663368078634
34.4424,7.993297959703659,0.1079079678394309
34.446984,8.01939498123886,0.1074038115332383
34.451567999999995,8.0448369377547,0.106896500092845
34.456156,8.076286424527162,0.1063242391655845
34.460744,8.111455833804357,0.1057265404510781
34.465336,8.148912850833428,0.1050939125528972
34.469924,8.184693183681352,0.1044725519257904
34.4745,8.215731974862745,0.1039017686696897
34.479104,8.244849712434695,0.1033524513729342
34.483692,8.27445618886323,0.102782856532286
34.48828,8.305328653881848,0.1021942232210541
34.492872,8.339510345814139,0.1015640584264015
34.497464,8.369849930527545,0.1009771443955045
34.502056,8.399534450221598,0.1003892038852449
34.506643999999994,8.43060714321988,0.0997759105117284
34.51124,8.456405414246419,0.0991904660632375
34.51582,8.479627566644163,0.0986183137341756
34.520424,8.500151415698964,0.0980654427586557
34.525012,8.520919634182052,0.0975029714187871
34.529612,8.541032787645788,0.096936937794357
34.534208,8.558325453052433,0.0963933668424923
34.538799999999995,8.580726214268045,0.0957953635059485
34.543384,8.601572476016655,0.0951971563627643
34.547979999999995,8.616244881345873,0.0946335947667213
34.552568,8.622700191932113,0.094121072147802
34.55716,8.628622622213143,0.0935987862228623
34.561747999999994,8.633767802760675,0.0930761774873235
34.56634,8.637480668555346,0.0925462360441417
34.57092,8.63808453541601,0.0920114697929357
34.57552,8.637256087523813,0.091470421300994
34.580108,8.632174836821667,0.0909415091688744
34.5847,8.621696979433636,0.0904401000134183
34.589292,8.610686241740394,0.0899271541359235
34.59388,8.598121004580149,0.0894119538850701
34.598479999999995,8.581835844915162,0.0889182627710823
34.603068,8.573479269116236,0.0883580079350892
34.607664,8.563812563278594,0.0877823852074881
34.612248,8.555167476602747,0.087196913128444
34.616828,8.547011128783485,0.086590183602311
34.621416,8.53627866233542,0.0859884795943224
34.626003999999995,8.52297007725856,0.0853892427389626
34.630592,8.505941569676962,0.0848098340544239
34.635188,8.49071193099066,0.0842214102327429
34.639764,8.47421630371427,0.0836502009655847
34.644364,8.460785533923262,0.0830472270599386
34.648944,8.447110394703966,0.082455161689271
34.653544,8.43085913685587,0.0818657145524246
34.658131999999995,8.417428367064865,0.081259247726086
34.662732,8.406818085330947,0.0806337416805488
34.667316,8.395963434168738,0.0800182006378524
34.671907999999995,8.385641663311741,0.0794127517113565
34.676503999999994,8.378551076102896,0.0788091631017769
34.6811,8.370438869732263,0.0782142598070238
34.685688,8.364003347542777,0.0776187665034541
34.690279999999994,8.358589444515083,0.0770120500869322
34.694868,8.344103153745394,0.0764768927693835
34.699464,8.330804808300273,0.075960500032154
34.704052,8.31534103981742,0.0754653656462777
34.708636,8.29926634776384,0.0749969439867572
34.713224,8.288588262396146,0.0745108221777405
34.717811999999995,8.28690452150493,0.0739964727959736
34.722396,8.289473583423662,0.0734790755891814
34.726976,8.293719329523542,0.0729637471071117
34.731572,8.303483867023457,0.0724280889227514
34.736163999999995,8.315457969009733,0.0719067023914792
34.740739999999995,8.328087136015366,0.0713954780964138
34.745332,8.348689028335682,0.0708695309443327
34.74992,8.366103878456475,0.0703733609661876
34.754507999999994,8.387527161958923,0.0698899154497552
34.759111999999995,8.410260575500084,0.069424382222628
34.7637,8.438512780441279,0.0689431164894994
34.768296,8.46598773564897,0.0684615941038307
34.772872,8.494772820895372,0.0679983540948297
34.777472,8.521270298389899,0.0675618753490001
34.782052,8.55099895953258,0.0671346454789027
34.786652,8.591110138455969,0.0666672109801573
34.791244,8.634941239884093,0.0661900583854666
34.79584,8.68543493658819,0.0656889007735012
34.800432,8.737727502187585,0.0651881726635825
34.805024,8.787976829463393,0.064707338169848
34.809611999999994,8.837448907005696,0.0642323814144182
34.814208,8.88896422287159,0.063751121328534
34.818796,8.939457919575688,0.0632812034253983
34.823392,8.988152747384492,0.062819909645131
34.82798,9.036070325459791,0.0623580493971236
34.832572,9.083865718820944,0.061904322847999
34.83716,9.12499851690613,0.0614784547017679
34.841752,9.16985123749605,0.061044332012241
34.846343999999995,9.210328970561877,0.0606154796279429
34.850932,9.250273823322493,0.0601759776353972
34.855524,9.28841980718781,0.0597444044559693
34.860104,9.325421987177192,0.0593249553884933
34.864688,9.360991852413717,0.0588953762507116
34.869271999999995,9.398072075668614,0.0584429297112718
34.873852,9.431554561132918,0.0579962101740567
34.878443999999995,9.454532344102372,0.0575860740845532
34.883036,9.473257324261876,0.0571735603672339
34.887632,9.4855640785737,0.0567748285916782
34.892228,9.493251475933135,0.0563854241992745
34.89682,9.495420081892544,0.0560047338875
34.901416,9.489371593108972,0.0556359706851261
34.905992,9.47780431292537,0.0552770316298367
34.910591999999994,9.462883664379468,0.054910848529403
34.915172,9.445142527776474,0.0545505769224239
34.919771999999995,9.424580903116391,0.0541954134238829
34.924364,9.396701618160982,0.053847271039174
34.92896,9.368167268186212,0.0534882678300272
34.933544,9.336035180420856,0.0531305902227097
34.938128,9.300060985436614,0.0527814939813494
34.942727999999995,9.25910087935755,0.0524509353038635
34.947323999999995,9.208657689945428,0.0521407255505175
34.951912,9.157315066085657,0.051828773713029
34.956503999999995,9.103929203902297,0.0515240388711325
34.961096,9.047111930091118,0.051245818358087
