Time,Force,Position
36.163648,6.60531745483996,0.1545580071459573
36.16824,6.745097039234536,0.1538909559004487
36.172844,6.8689106937362645,0.1532088779407366
36.17743599999999,6.972872169677635,0.1525477103037621
36.182028,7.061478639296887,0.1518272950698929
36.186616,7.134441591717098,0.1510228358405837
36.191208,7.183510030378405,0.1503779760621748
36.1958,7.212614345396944,0.1498867050537564
36.200392,7.235534564364356,0.1493547185687723
36.204984,7.2467960373292355,0.1489032960768758
36.209576,7.254205163443492,0.148392230422042
36.214164,7.254164204916537,0.147867500709314
36.218752,7.249127095663021,0.1473067106447324
36.22333999999999,7.231043067102743,0.14686280145428
36.227936,7.207718518387612,0.1463962112918267
36.23252,7.176988026479895,0.1459552031736319
36.2371,7.140283906132454,0.1455345711222703
36.241696,7.098383407078787,0.1451281575386158
36.246276,7.051941594338253,0.1447388217458726
36.250856,7.000303402891497,0.144366976070073
36.25546799999999,6.951563742767345,0.1438941057347398
36.260056,6.900492333442689,0.1434295332941026
36.264664,6.847211359631671,0.1429668128705701
36.269252,6.794296939963091,0.1424746234047886
36.27384,6.739583651399214,0.1420014146347581
36.278432,6.6842594392646095,0.1415598893005733
36.28301999999999,6.63126697633051,0.1410992193852241
36.287624,6.580894773473836,0.1406459819615884
36.292216,6.53056671206579,0.1402283832631389
36.296812,6.488089191258284,0.1397101465799348
36.3014,6.442835323842316,0.1392741040867297
36.306,6.40482107345616,0.1387782167879797
36.310588,6.369060529004994,0.1383171134898585
36.31518,6.345036773821876,0.1377377791882844
36.31977199999999,6.324166159021397,0.1371822452467054
36.324364,6.313233464593673,0.1365342096535528
36.32896,6.305209541120293,0.1359283211590457
36.333552,6.300993823048906,0.135353675219032
36.33814,6.301852298969598,0.1347752201275264
36.342736,6.314203194730049,0.1341007241536203
36.347328,6.3265201886736095,0.1335252914811815
36.35192,6.341990322999807,0.1329813866618344
36.356508,6.364455704927526,0.1324070317019534
36.361096,6.390729292257238,0.1318684667832743
36.365684,6.4204003893978765,0.1313445077785649
36.370284,6.456167299692387,0.1308062941344576
36.374872,6.497619327549705,0.130235821041221
36.379456,6.541935984912741,0.1296715886598723
36.384048,6.589650152086705,0.129127066912722
36.38864,6.637164091281006,0.1286510154188246
36.393224,6.688319909714527,0.1281735064511895
36.397808,6.741807477348553,0.1277032469094123
36.402388,6.79979221722082,0.1271887645212269
36.406996,6.858920760969027,0.1266626579076258
36.411584,6.921769227221969,0.1260950668714609
36.416184,6.982574455151325,0.1255783344841445
36.420776,7.047221790299564,0.1250166805191709
36.425364,7.116199971523267,0.1243873022289033
36.429972,7.182968588260612,0.1237646279708627
36.434564,7.246506021349799,0.1231734436067299
36.439156,7.309999312990359,0.1225428560033678
36.443748,7.371649594286996,0.1218961541783244
36.448344,7.428514192468474,0.1212774581430552
36.452936,7.485823388057907,0.1206006796944499
36.45753199999999,7.544110061360504,0.1198774696586502
36.462116,7.599243594280464,0.1191367725525735
36.466716,7.651390312980562,0.1184095610712607
36.4713,7.701938390765028,0.1176544191914675
36.475892,7.746635024823913,0.1168939197847395
36.480488,7.790099572109603,0.1160856455674431
36.48508399999999,7.833231467069746,0.1152202734128168
36.489688,7.867080506676489,0.1144148370419838
36.49428,7.894467178986924,0.1136388722536424
36.498872,7.913103876249172,0.1129280850028512
36.503464,7.928220878986345,0.112209411678088
36.508056,7.93994037191259,0.1114739658331414
36.51264,7.943765182789668,0.1107570692651579
36.517228,7.9345872158086115,0.110123319471458
36.521812,7.921400815445899,0.109497321313868
36.526404,7.90277366694867,0.1088749769887893
36.530984,7.883325127269311,0.1082137144761732
36.53558399999999,7.861911392531882,0.1075325918092139
36.540164,7.839964777489242,0.1068366621758053
36.544756,7.811844306027213,0.1061798398203698
36.549352,7.778571597307589,0.1055483337949755
36.553932,7.73900284745443,0.1049591169968657
36.55852,7.691994252591797,0.1044325471988008
36.563116,7.638567431881483,0.1039543664560805
36.567704,7.586939480066462,0.1034567413042779
36.5723,7.529303997994826,0.1030266838217796
36.576892,7.466682604828368,0.1026503223947355
36.581484,7.40970218777609,0.1022144830662519
36.586072,7.353743389885604,0.1017588616395985
36.590672,7.304325002556945,0.1012388421318968
36.59526,7.251475203600468,0.1007727735359698
36.599864,7.195849058035529,0.1003674750748449
36.604452,7.143864791709811,0.0999707068964032
36.60903999999999,7.099486696556341,0.0995370196679938
36.613632,7.056540916155729,0.0991056489975153
36.618224,7.017237014994338,0.0986841841271243
36.622824,6.977732885853283,0.098312853351379
36.62742,6.939949582342005,0.0979725876182728
36.63202,6.905641831907174,0.0976102243750675
36.636616,6.877796448768651,0.0972359989650184
36.641208,6.853837314297638,0.0968620098706059
36.645808,6.8314768207422585,0.0965271593056859
36.65039599999999,6.816067433339771,0.0961538163348815
36.654984,6.80801984768124,0.0957632410924474
36.659572,6.804757945137869,0.0953708107417798
36.664164,6.80959095262333,0.094922167447751
36.66876,6.822152315995183,0.0944396270316232
36.673352,6.833858386368016,0.0940081071635747
36.677936,6.849983585713573,0.0935984520549915
36.682524,6.8654978614884,0.0932258238833134
36.68711999999999,6.887308178396762,0.0928139274789433
36.691708,6.916313970886308,0.0923576718228063
36.696292,6.9469964475570025,0.0919002812339654
36.700904,6.97898905426641,0.0914616047781162
36.705492,7.016011713519268,0.0910117193999977
36.710088,7.052667818629689,0.0905831030998977
36.714668,7.094720530425997,0.0901269870941834
36.71926,7.140493164727042,0.089648875214365
36.72386,7.185777060171505,0.0892045553600466
36.728452,7.229384271434818,0.0887698367730575
36.733048,7.27466816687928,0.088337181120319
36.737636,7.327636276761509,0.087841671761153
36.742236,7.383669244129118,0.0873210131999225
36.746824,7.4430114384104,0.0867643022758455
36.751416,7.498100829881732,0.0862251406513356
36.75599999999999,7.552823667210628,0.0857131697439052
36.760604,7.605092570624872,0.0852100918997975
36.765196,7.65274211708673,0.0847333020895382
36.769792,7.69446217655749,0.0842712511275625
36.774376,7.737981104923547,0.0838052955091258
36.778968,7.780844968270248,0.0833387698581241
36.783556,7.821377082416441,0.0828733614164243
36.788152,7.858433643486188,0.0824202199019475
36.79274,7.896467682269099,0.0819253251940774
36.797324,7.936012079070389,0.0814050563295635
36.801916,7.977066833890054,0.0808543535308668
36.806504,8.012192101718622,0.0803176415932578
36.811096,8.038200840356565,0.0798240435786669
36.815684,8.060734025918062,0.0793406414437029
36.820276,8.083511580907851,0.0788489096565321
36.824864,8.10125908335419,0.078362801779922
36.82946,8.115120337133018,0.0778705801699673
36.834048,8.12268554977831,0.0774039939676349
36.838636,8.120112614071187,0.0769851301817819
36.843228,8.11676242863056,0.076562847924992
36.84782,8.106827691179479,0.0761370382006408
36.852408,8.094316835099598,0.0757144489825405
36.857004,8.087158444256977,0.0752352223779853
36.861592,8.081921107023799,0.0747422469550311
36.866188,8.06997703306602,0.0742500477472932
36.87078,8.052391982994061,0.073786040026205
36.875376,8.03018757596972,0.0733405483181088
36.879964,8.00924915753546,0.0728729729488049
36.884564,7.982058839416297,0.0724607168346961
36.889144,7.946529241840009,0.0720831514397808
36.89374,7.907401906473133,0.0717138733271444
36.89833599999999,7.869951255287403,0.0713423415467154
36.902936,7.838385949644146,0.0709285475407054
36.90752,7.806820644000887,0.0705122760054698
36.912116,7.7685927430816575,0.0701285038930328
36.916712,7.732818776077079,0.0697457882233281
36.921308,7.694635016606477,0.0693939513508028
36.925896,7.657883571888735,0.0690517036610821
36.930492,7.625873668837523,0.0686817336241255
36.93508,7.594396646091519,0.0683244748486538
36.939676,7.568971295050762,0.0679593447806814
36.944264,7.542935020439276,0.0676212855217938
36.948852,7.514488953361766,0.0673156269879654
36.95343999999999,7.4896406240748465,0.0670002002182449
36.958036,7.468678543455439,0.0667002217659761
36.962628,7.452213635074269,0.0663876852814999
36.967212,7.440123714217194,0.0660686280457258
36.971808,7.4290995539705404,0.065779948584073
36.976396,7.424860173714004,0.0654528431304161
36.98099199999999,7.42781626903865,0.0651087368703257
36.985576,7.435924601620892,0.0647648458145228
36.99016399999999,7.441867511165402,0.0644420350249866
36.99476,7.45206322351986,0.0641242574385423
36.999344,7.4661010430932,0.0637887157411261
37.003932,7.493341868504339,0.0634021422158953
37.008524,7.521604313077271,0.0630105098898817
37.013116,7.554363929888442,0.0626125907712574
37.01772,7.588145165861407,0.0622083229322964
37.022308,7.625157585482528,0.0618178495787278
37.026908,7.666012112322529,0.0614129052305056
37.03149199999999,7.707766073610179,0.0610120579343114
37.036088,7.753850880973295,0.0605740674091068
37.04068,7.804921599431232,0.0601117527795339
37.045272,7.854437818422165,0.0596478549376217
37.049868,7.906241645164976,0.0591631412169035
37.054464,7.95828984133608,0.0586722222051284
37.059052,8.00866135332603,0.0581812743385324
37.063636,8.05694548554377,0.057668079800865
37.068228,8.101631879970915,0.0571646222766527
37.07281999999999,8.144397220788619,0.056673736945851
37.077412,8.184708627691672,0.0561797708657606
37.082,8.228329261508396,0.0556581190586889
37.086588,8.264632235029792,0.0551527002018846
37.091184,8.2988919702276,0.0546631944345106
37.095772,8.318804895711672,0.054224680957233
37.100352,8.335897333138655,0.0537944243757373
37.104944,8.347470979165605,0.0533743737420135
37.109536,8.35749012572555,0.0529452752757287
37.114128,8.360435981418458,0.0525154401161653
37.118716,8.355941992101892,0.0521001168726916
37.123296,8.344130342489997,0.0516934641341396
37.127888,8.326433347335632,0.0513095273518846
37.132468,8.300030518581709,0.0509546924041508
37.137056,8.263778052352288,0.0506369959662794
37.14165199999999,8.220862990846895,0.0503352089838098
37.146252,8.171040964637237,0.0500593788429916
37.150844,8.117132461780406,0.0498031773719532
37.155436,8.06220233976178,0.0495482730385195
37.160028,8.002041937220042,0.0493236194903771
37.164608,7.931621201611741,0.0491142609674959
37.169208,7.854948566318533,0.0489418548553922
37.173796,7.770469531873413,0.0487935947305259
37.178396,7.681004586333471,0.0486656158698234
