Time,Force,Position
35.8254,3.684583462635348,0.1527556305571073
35.829988,3.8363851642532216,0.1526210075834321
35.83458,3.975251891646735,0.1524120726551868
35.839168,4.100694905959311,0.1522425429060346
35.843772,4.210915338295651,0.1521366155815054
35.848364000000004,4.308367122570409,0.1520631226707507
35.852964,4.396115116268966,0.1518821089149997
35.857547999999994,4.475469449430035,0.1516222055893988
35.862144,4.541322026244646,0.1515150865887477
35.866724000000005,4.598903127235913,0.1513435252235936
35.871331999999995,4.652054859622721,0.1509860163749753
35.875924,4.698078920062123,0.1505124747909174
35.880520000000004,4.733133201335239,0.1500526930571469
35.885116,4.755951714851983,0.1496550674709204
35.889712,4.774463044478412,0.1490995203010301
35.894304000000005,4.786145452666092,0.1486733407327796
35.89889599999999,4.7992262737897455,0.1483757563620058
35.903492,4.813539181686593,0.1481580875795514
35.90808799999999,4.831616153536806,0.1479170444384196
35.912679999999995,4.864616956854595,0.1474019675101991
35.917280000000005,4.891243675773331,0.1470872712229212
35.921868,4.918691785874198,0.1468348949538756
35.926464,4.954889871023252,0.1464438304422864
35.931051999999994,4.997017443163407,0.1459735727899163
35.93563999999999,5.050426967531918,0.1452789811976315
35.940231999999995,5.106412610529229,0.144544136548274
35.944816,5.169838098536013,0.1436827635586499
35.949408000000005,5.238782377942829,0.1427379633425819
35.953996000000004,5.308503907083147,0.1417875553649036
35.95858,5.377981066795174,0.1408757425215096
35.963168,5.448357660954849,0.1399795952918616
35.967755999999994,5.519755874276317,0.1390741062589013
35.972352,5.594218945083168,0.1381204914902415
35.97694,5.671991242803688,0.1370913747733255
35.981528,5.744122564410029,0.1361945581049417
35.986124000000004,5.816986994301247,0.1352520608917244
35.99071599999999,5.890340163049046,0.1342828549439052
35.995307999999994,5.9631604514916345,0.1333055857621493
35.99989599999999,6.035814413771449,0.1323033951701564
36.004492,6.099718401003076,0.1314350583624958
36.00908,6.166765288985603,0.1304430610816392
36.013679999999994,6.227716363814256,0.1294832307422792
36.01826,6.278118594699427,0.1286731472096021
36.022859999999994,6.320503958821282,0.1279259705059851
36.027444,6.348498371780772,0.127385216494261
36.03204,6.372850905501042,0.1268457242490925
36.036632,6.3862438996867645,0.1264188748112279
36.041224,6.388799539052085,0.1260892560428735
36.045812,6.387546973015413,0.1257196501509477
36.050408,6.379176974663075,0.1253874749262293
36.05499999999999,6.364466793728573,0.125089942862603
36.059592,6.344438049373704,0.124804698521644
36.064184,6.31692531856073,0.1245785252973407
36.068772,6.282050786003801,0.124400904218749
36.07336,6.242879309188295,0.1242139076826505
36.077952,6.197001095648187,0.124082092294842
36.082548,6.143516710935834,0.1240195161513226
36.087136,6.08663481641255,0.1239331243133191
36.091736,6.023945619612314,0.1238875929940274
36.096324,5.962233900525242,0.123768252160351
36.10092,5.897823878095227,0.1236734678957579
36.105504,5.834557659541151,0.1235443706054361
36.110092,5.774600667900746,0.1233346048666715
36.1147,5.716686914583929,0.1230794760362744
36.119292,5.666579560419023,0.1226851148076336
36.12388,5.618515444577704,0.1222439844197028
36.12847599999999,5.572005828203389,0.1217922449808
36.133064000000005,5.529093949619666,0.1212890185127014
36.13765599999999,5.489413254684097,0.1207592294762389
36.142252,5.453208112824974,0.1201868306796865
36.146844,5.413693744052178,0.1196891454941237
36.15142,5.375122951175659,0.1192280332775961
36.156024,5.335819050014266,0.1188191726055899
36.1606,5.299257593644445,0.1184244539121201
36.1652,5.266460201227989,0.1180221671081148
36.169792,5.2416355341262175,0.1175176847484275
36.17438,5.223761973177338,0.1169325584424571
36.17896,5.20953029146768,0.1163512271478569
36.18355199999999,5.2027825962161245,0.1157103076817891
36.18814,5.194935238537257,0.1151518240211384
36.192736,5.186232587859372,0.1146573941854393
36.197324,5.181171816420705,0.1141721769491991
36.20191199999999,5.176932436164168,0.113740335755271
36.206500000000005,5.179033238489796,0.1132874202961003
36.2111,5.181711062569261,0.1129099104875407
36.215688,5.18766421174551,0.1125735931430303
36.220272,5.2020007818275085,0.1121809162655943
36.224868,5.2238213383676095,0.1117476053086623
36.229456,5.24928377414693,0.1113344507080431
36.234048,5.280186958060766,0.1109188957858482
36.23864,5.321761170632231,0.1103945668274759
36.243228,5.372329727680173,0.1097831496432654
36.247832,5.434468747833393,0.1090641692438368
36.25242,5.501882189958354,0.1083057771474614
36.257024,5.573304065464972,0.1075459430751787
36.261616,5.643626278544278,0.1068788991385375
36.266204,5.716158056109944,0.1062314636083141
36.270796,5.788856159838384,0.1056298268188808
36.275384,5.862331513300328,0.1050492072054685
36.27998,5.944023961505248,0.1043927864212057
36.28456799999999,6.031357385824345,0.1036717206422606
36.28916,6.1185686254292975,0.1029714606475093
36.293748,6.207700918643692,0.1022536797619913
36.298348,6.290292801296259,0.1016196883066877
36.302932,6.370430750034174,0.1009982688224271
36.307532,6.448481318999874,0.1003702575324316
36.312128,6.519214227670245,0.0998245673442417
36.31672,6.579686803274053,0.0993929612196789
36.321316,6.633330457439116,0.0990037604753686
36.325912,6.683865112670169,0.098621531967732
36.330508,6.728225911481832,0.0982914473814135
36.335104,6.7640811046736005,0.0980128107135973
36.339692,6.787832954454882,0.0978082597420586
36.34428799999999,6.806554751692714,0.0976262761330982
36.348876,6.820735235243678,0.0974366768202403
36.353464,6.836381935364389,0.0971638560463853
36.358052,6.847487321798233,0.096882396124416
36.362644,6.854540133401792,0.0965609017781373
36.36724,6.852065720223663,0.0962897002072218
36.371824,6.839164647816195,0.0960748543261452
36.376412,6.821600077007714,0.0958547346776285
36.381,6.795652085293484,0.0956612347820808
36.38559599999999,6.76618439905418,0.0954400934499797
36.39018,6.73524025661339,0.0951644524370239
36.394768,6.698488811895646,0.0949024003073816
36.39936,6.658994922386331,0.0946108535582735
36.403952,6.615859153637796,0.094297682070857
36.40854,6.574722481764222,0.0939098439760686
36.413136,6.531131875975994,0.0935227964395318
36.41772399999999,6.481611783196669,0.09315476144268
36.42232,6.432458244559781,0.092760653819098
36.42691599999999,6.380362033151656,0.0923963748581275
36.431512,6.330064690638828,0.0920147717260271
36.436092,6.277435598925495,0.0916245119648456
36.440696,6.221208769421568,0.0912541186033886
36.44527599999999,6.155376671870435,0.0909796050515426
36.449868,6.09097688907216,0.090709247375636
36.454464,6.030052659350333,0.0904128398080302
36.459056,5.972726167419097,0.0900870487701451
36.46364799999999,5.9173207290973,0.0897354997594068
36.468244,5.8622038016524245,0.0894114407131124
36.472836,5.814404534502877,0.0890240979994424
36.47743199999999,5.764972724620807,0.0886847108381038
36.482024,5.715585056187365,0.0883899710136712
36.48662,5.6751917322304015,0.0880287563899102
36.491208,5.6374186683508665,0.0877024888771815
36.495796,5.605575091462429,0.0873534195318379
36.500384,5.576718328793852,0.0870170576466867
36.50498399999999,5.558654779497051,0.0866077373078699
36.509576,5.550240639696085,0.0861491189848341
36.51416,5.540438326590887,0.0857263742001367
36.518756,5.536932054619225,0.0852615228934175
36.523336,5.538700204619303,0.0847711469690827
36.527928,5.548973960239279,0.084260009951498
36.532520000000005,5.564033398974414,0.0837533673340214
36.537108,5.586821193595941,0.0832166948728742
36.54172,5.614106160455708,0.0826605340819395
36.546308,5.643356322373544,0.0821423321157253
36.550920000000005,5.678658155996624,0.0816095115926285
36.555504,5.719522922468364,0.0810911636563408
36.560096,5.763863242016551,0.080564411104787
36.564692,5.81233417966054,0.0800492063451357
36.56927999999999,5.8689000273333605,0.0794965140151033
36.573876,5.935726208072743,0.0788785804593225
36.57845999999999,6.004229072993276,0.0782770503443042
36.583052,6.075552425970897,0.0776642053428976
36.587644,6.150229147310819,0.0770608022903101
36.592244,6.227604171993685,0.0764553343132167
36.59683199999999,6.302935958352964,0.075892327102024
36.60143599999999,6.372626768598065,0.0753766366364516
36.606028,6.448857989404992,0.0748260568261891
36.610624,6.525866459945421,0.0742894830138497
36.61520399999999,6.602752745771704,0.0737716159769064
36.6198,6.67334299046445,0.073288360559246
36.624408,6.748141896518519,0.0727671562449538
36.629000000000005,6.825350595038612,0.0722160032613852
36.63359199999999,6.896141067711023,0.0717026658187948
36.638184,6.965499225630576,0.0711822921247065
36.642764,7.030482396026035,0.0706799756655308
36.647356,7.09644304413466,0.0701373230069813
36.651944,7.161992996652219,0.0695809649019686
36.656536,7.219570223855095,0.0690504910801139
36.661128000000005,7.269052541029138,0.0685502893506179
36.66571999999999,7.306353471527176,0.0681150307888871
36.670316,7.337358360891679,0.0677025043233724
36.674904,7.358347286617911,0.0673237788137796
36.679496,7.372629475619542,0.0669427702887151
36.684088,7.380737808201784,0.0665741644739998
36.688676,7.378830177145755,0.0662374269836229
36.69327199999999,7.377411284946308,0.0658751860040485
36.697864,7.36928565602226,0.065507889480174
36.702456,7.355108355392969,0.0651433907839321
36.707044,7.332958329448993,0.0647909698393462
36.711632,7.3112970423616,0.0644119236687643
36.716228,7.281418660531232,0.0640569053267958
36.720828,7.239358892024858,0.0637501083663471
36.72542,7.193823570442037,0.0634413673819763
36.730012,7.1439132613351255,0.0631329591331955
36.734612,7.08872853025647,0.0628255720462745
36.7392,7.021240227787667,0.0625693608093612
36.743804,6.94618989559524,0.0623425770568888
36.748392,6.870240128955169,0.0621129736121034
36.752996,6.794779101171679,0.0618513175854835
36.757588,6.724792723339594,0.0615226711793398
36.762192,6.652885291898065,0.0611993211985049
36.76677599999999,6.585841586837215,0.0608420221792433
36.771368,6.518553512348074,0.0604912489139819
36.77596,6.451509807287222,0.0601202327775325
36.780552,6.392272501378283,0.0596966558935165
36.785152,6.331891391593404,0.0592823968037454
36.78975199999999,6.268733935200063,0.0589185542886412
36.794344,6.209951466330818,0.0585490658290401
36.798936,6.156565604147459,0.0581654920003989
36.803524,6.102813187821663,0.0577970386497889
36.808108,6.0526585092864575,0.0574178204508451
36.812696,6.01378578297961,0.056990923921346
36.817292,5.983007966701593,0.0565497312841222
36.821884,5.955583518785876,0.0561139345917731
36.826464,5.937031230632491,0.0556714688781165
36.831056,5.931193209460323,0.0552040641448856
36.835644,5.930751794974041,0.0547263218505775
36.840236,5.936484236907148,0.0542481032727327
36.844824,5.943282439450679,0.0538080363721744
36.849412,5.949103164281043,0.0534251352958515
36.85400799999999,5.959665430777937,0.0530231413891175
36.85859599999999,5.975746488674865,0.0526126507569859
36.863184,5.994281480486444,0.0522131001391652
36.86778,6.017724340127329,0.0518390946997093
36.872372,6.0395346570356905,0.0515099447731949
36.876968000000005,6.0648205270204985,0.051187046520541
36.881548,6.095991742547777,0.0508316659068395
36.88614,6.126019154199115,0.0504929538349726
36.890728,6.156823815583956,0.0501632651726728
36.895324,6.185096499788626,0.0498742294892039
36.899912,6.211858825974923,0.0496211199418426
36.904512,6.235311925247544,0.0494065965884027
36.909096000000005,6.255045102015431,0.0492023373284117
36.913684,6.273756659621523,0.0490056976075108
36.918272,6.284784002789849,0.0488389553929875
36.92286,6.286328262625115,0.0487020845637987
36.927448,6.284929849689146,0.0485790263481331
36.93204,6.276335961171993,0.0484568234359547
