Time,Force,Position
38.082028,7.612225635596617,0.1433296355033871
38.08662,7.710539078713743,0.1423470431152828
38.0912,7.784825583726079,0.141375025646273
38.0958,7.839748649034639,0.1403652491965638
38.100396,7.870811102401185,0.139375792585217
38.104992,7.880833431882803,0.1383620226634597
38.109584,7.874489375512248,0.1374131070997469
38.114180000000005,7.869777861874214,0.1364166516308686
38.11878,7.868253390435705,0.135362065071162
38.123372,7.863253365920752,0.134344925573229
38.127964000000006,7.8542890494727695,0.1333821404056037
38.132556,7.847367971348374,0.1323830781110345
38.137148,7.839014578471121,0.1313889621744553
38.141732000000005,7.831682804755661,0.1303767349818723
38.146316,7.824761726631265,0.1293842170944674
38.150912000000005,7.814697747755971,0.128478087898059
38.15550399999999,7.801857422272215,0.1276386114696451
38.1601,7.795846018227207,0.1267446718661104
38.16469599999999,7.800872196982263,0.1257285734512399
38.169276,7.801567529661855,0.1247926657481807
38.173860000000005,7.802917927360803,0.1238604839178814
38.178444,7.809664931745638,0.1228769912630569
38.183032,7.818665642065461,0.1219320192115873
38.187628,7.831919155195234,0.1209631145108239
38.192216,7.84893673227837,0.1199915724947991
38.196816,7.86779731970543,0.11904384481852
38.201408,7.88273775664809,0.1181848046134444
38.205996,7.895146216410581,0.1173843635596298
38.210592000000005,7.904612003401836,0.1166210819752599
38.215168000000006,7.913833420964801,0.1158716341096084
38.219768,7.930372498823094,0.1150554822647261
38.224356,7.949199184433263,0.1142026099428318
38.228948,7.96393939339626,0.1134064344963186
38.233532,7.9797012215210525,0.1125991660223918
38.23813199999999,7.992642561588755,0.1118221349489343
38.242728,8.014656289398456,0.1109356700339357
38.247312,8.041000863283617,0.1099829349965372
38.251908,8.061704461054603,0.1090894993856685
38.25650399999999,8.075745463549618,0.1082701181371763
38.261104,8.091052454634715,0.107427639742796
38.2657,8.10443839211037,0.1066039882393324
38.270288,8.116025460690734,0.1057994246973641
38.274884,8.124503530337085,0.1049967903216838
38.279472,8.127584993297551,0.1042347892239448
38.28406,8.132176814276391,0.1034414225196044
38.28864,8.134436886054727,0.10264934059144
38.293232,8.14217160778447,0.1017805657020273
38.297824000000006,8.150927948676001,0.1009013781931257
38.302404,8.162138223482186,0.1000162212277159
38.30700399999999,8.171549629393075,0.0991413830976952
38.311592000000005,8.17916216640867,0.0982850401396315
38.316188,8.187674137871914,0.0974294927781235
38.320784,8.197329913211094,0.0965541293341931
38.325372,8.206330623530917,0.0956749760860859
38.329976,8.21389901909788,0.0947855946685534
38.334564,8.212761581065285,0.0939755654697014
38.33915999999999,8.208681470261455,0.0931914357822163
38.343752,8.206888967209505,0.0923724088635148
38.34833999999999,8.204563583852343,0.0915380503351395
38.352944,8.200439331599883,0.0907131482941365
38.357536,8.20015718656631,0.0898577460929644
38.362132,8.19603293431385,0.0890305442910008
38.36672,8.193707550956688,0.0881922350084209
38.371324,8.19408047094247,0.0873395777105947
38.375908,8.190733468423515,0.086512398840672
38.38050799999999,8.190329138675793,0.0856621235144572
38.385096,8.186982136156837,0.0848385512852908
38.389692,8.18400168778032,0.0839997587096168
38.394276000000005,8.18073272852688,0.0831375986627734
38.39886799999999,8.180284257330532,0.0822573177860662
38.40346,8.176360233057737,0.0813863786105797
38.408056,8.168471916851914,0.0805479476556465
38.412652,8.163526273417325,0.079688275748416
38.417252000000005,8.158991325573805,0.0788479463212326
38.42184399999999,8.159730799702027,0.077993248516745
38.426436,8.16508963078263,0.0771161217721436
38.431024,8.175845068549124,0.0762228884605389
38.43561199999999,8.18701120190668,0.0753507443960327
38.4402,8.201530703626537,0.0744789770205903
38.44479199999999,8.221691181460573,0.0735853522196185
38.449388,8.244672147351697,0.0726883304770325
38.45398,8.273049719928709,0.0717773099589441
38.458572,8.303348346115165,0.0708611931553226
38.46316399999999,8.330826484244527,0.0699594680419422
38.467756,8.358837502679103,0.0690727639891262
38.472336,8.383783663628297,0.0682129844005303
38.476924,8.406031521234548,0.0673593995389143
38.481528,8.42713557496486,0.0665222603018885
38.48612,8.449549758733884,0.0657067178718879
38.490708,8.467999650569881,0.0649142958426006
38.495296,8.48608298826344,0.0641357813030586
38.499884,8.506331748994734,0.063339614471653
38.504488,8.525558890564232,0.0625553627557981
38.50908,8.542864978524289,0.0617803678576498
38.513672,8.55248685204658,0.0610377968695826
38.518256,8.556223380026402,0.0603237069924717
38.522856,8.552153508854312,0.0596467620162322
38.527444,8.546162584072782,0.0589770597990142
38.532048,8.537106801805871,0.0583267152072444
38.536636,8.518978631796964,0.057728378290385
38.541228,8.491900258760205,0.0571752988848633
38.545812,8.458037105733329,0.0566477311310688
38.550404,8.424462463583374,0.056144758350638
38.554996,8.391176332310339,0.0556629045197465
38.559592,8.357523646894867,0.055194323864486
38.56417999999999,8.325836156537463,0.0547525028378978
38.56878,8.299711599028718,0.0543341774282609
38.573368,8.274774986844543,0.0539388778318764
38.577964,8.249227451089638,0.0535690072013591
38.582544,8.229853771754126,0.0531984428847541
38.587136,8.214488525800267,0.0528442853362643
38.591736,8.197246367685596,0.0525304543082729
38.596332,8.1801705357337,0.0522461690404605
38.600928,8.166570256858247,0.0519645736768026
38.605516,8.165317690821574,0.0516874691402084
38.610108,8.17191566538544,0.0514167294449928
38.614696,8.189429038035227,0.0511377629628398
38.619288,8.213771332123759,0.0508732679720478
38.623884,8.242244244308093,0.0506233021086766
38.628472,8.27868988180711,0.0503759895138083
38.633068,8.321065006297228,0.0501415472946726
38.63765599999999,8.37255665997797,0.0499016058592377
38.642252,8.420861271459184,0.0496838036211027
38.646848000000006,8.472641436016845,0.0494710482352389
38.651436,8.525853915327366,0.0492737584274597
38.65604,8.579310764066177,0.0490683735172501
