Time,Force,Position
35.992296,3.1016549803301947,0.1837582614470987
35.996891999999995,3.3028987314618754,0.1808543650540622
36.001476,3.5011012872933263,0.1780918790186134
36.006076,3.684491956739609,0.1762082566785707
36.010667999999995,3.861243693095069,0.1742592643427865
36.01526,4.03016855103514,0.1721840715199435
36.019852,4.189223292236235,0.1701690781882383
36.024443999999995,4.333666375031825,0.1683600737541194
36.02904,4.464030679727119,0.1667939925481532
36.03364,4.58836697490232,0.1650169513840299
36.038228,4.697969426957869,0.163394875329552
36.042824,4.796147262807437,0.1617944605940643
36.047412,4.879791483517016,0.1602572135936394
36.052,4.95045658855361,0.1587439531899367
36.056588,5.008919827650724,0.1572260533380665
36.06118,5.053015777770621,0.155797527890508
36.065772,5.067542336200543,0.1549599881154701
36.070376,5.078471156839877,0.1542175712991599
36.074968,5.091198846374505,0.1534445503942324
36.079548,5.100573167546832,0.1527285215133787
36.084144,5.106349750928571,0.1520879885237627
36.088724,5.113225996737618,0.1513530990523034
36.0933,5.108043040584806,0.1508944760167647
36.097896,5.100772704659779,0.1504355754175667
36.102484,5.090271185086596,0.1500188667736745
36.10708,5.079769665513415,0.1496018950793563
36.111676,5.068368711492585,0.1492024860978736
36.116264,5.0618314838524325,0.148680626914573
36.12086,5.054517006478775,0.1481638607997096
36.125436,5.043604791314526,0.1477181293537005
36.130036,5.033836380026216,0.1472302410399846
36.134628,5.024723033757261,0.1467458300062761
36.139228,5.015776013651082,0.1463059133369083
36.143816,5.007239689135968,0.1458901363116113
36.148416,4.997193006602476,0.1455442527691314
36.153,4.989478073269493,0.1451773636119514
36.157596,4.986138127460602,0.1447332225836658
36.162176,4.981654377775771,0.1443284962960571
36.166768,4.972839782015477,0.1440560391573035
36.171356,4.9692996082269225,0.1436926700648133
36.175952,4.966170130029433,0.1433522320782828
36.18054,4.959487055489982,0.1431368504832548
36.185128,4.961143260407651,0.1427451972546652
36.189712,4.965131214525828,0.1423321330524869
36.194304,4.969529864235069,0.1419447490125692
36.198896,4.970497102316493,0.1416732670391563
36.203472,4.971219970969626,0.1414236399234312
36.208056,4.969533047156735,0.141262536446314
36.212644,4.973242730029732,0.1410017773824511
36.217224,4.978384727655588,0.1407386976004247
36.22182,4.985980659196098,0.1404468025822222
36.226408,4.990145179108789,0.1402684828440718
36.230996,4.999706305707368,0.1399932855152281
36.235588,5.010044682039448,0.1397138465691104
36.240168,5.02512460003806,0.1393333481180975
36.24476,5.033419738046554,0.1391068331370451
36.24934,5.043147190807908,0.1388841814338407
36.253936,5.051853024407466,0.1386880306181392
36.258524,5.06374590020655,0.138401849998298
36.263124,5.071796668786754,0.1382039485724744
36.267716,5.088553270966514,0.1378208338056506
36.272316,5.108374730631656,0.1373600229752841
36.276912,5.127418940563297,0.1369135352720095
36.281504,5.14862857353267,0.1364111524987367
36.28608,5.171226379806273,0.1358575020574012
36.290676,5.197255597707693,0.1351987525287183
36.295272,5.224306434770908,0.1345190818952961
36.299864,5.250702206814765,0.1338335586257626
36.304452,5.27157918745859,0.1332511173066566
36.30904,5.293844341406645,0.1326183258523628
36.313628,5.317375483944786,0.1319496948240703
36.31822,5.346747830576767,0.1311076737212722
36.322808,5.371212309379444,0.1303226107252371
36.327392,5.397842211219855,0.1294925578705243
36.331988,5.422795428879116,0.1286908030357935
36.336576,5.4566988495662265,0.1277031481530258
36.34116,5.4837733488145926,0.1267951345352584
36.345744,5.512113836653042,0.1258467420317437
36.350332,5.539554890043845,0.124917792318046
36.354928,5.5635203903582005,0.1240249373219782
36.359516,5.58094548011073,0.1232578447945093
36.364104,5.597715504843903,0.1224890348743255
36.368692,5.609866172624693,0.1217918440501005
36.373284,5.621239590671978,0.1211042293110214
36.37788,5.632368639290972,0.1204395904049066
36.382464,5.644397122357615,0.1197697944863385
36.387056,5.656792159566695,0.1190780476757602
36.391644,5.6721298695470095,0.1183378394031628
36.396248,5.6923313059080005,0.1175181700330271
36.400836,5.712410557554845,0.1167141715229372
36.405436,5.729547136430456,0.1159651301809389
36.41002,5.740187446192867,0.1153627719106376
36.414616,5.752382255422283,0.114758962590975
36.419208,5.7589360885375225,0.1142376718253055
36.4238,5.766633725528699,0.1136932526779167
36.4284,5.772410308910435,0.1131851626561639
36.433,5.782806249244556,0.1126174188476966
36.437592,5.7947566890456805,0.1120507352855045
36.442184,5.8077287480086,0.1114690097137082
36.446764,5.825564533352196,0.1108122421372542
36.451348,5.842500884248143,0.1101661838450486
36.455936,5.855350758496916,0.1095893424054204
36.460532,5.873186543840512,0.1089318765797178
36.465124,5.8900007100223135,0.1082964332035172
36.469704,5.906281995898903,0.1076489190427632
36.474288,5.918843359270756,0.1070492606816
36.478868,5.9285842345855215,0.1064869026805572
36.483456,5.93677061043328,0.1059302565537878
36.488052,5.9377615106998585,0.1054440046303967
36.49264,5.939896214842374,0.1049358418929085
36.497228,5.943296907574975,0.1043945936260946
36.501812,5.952050065544835,0.103753149473759
36.506404,5.959126539333545,0.1031220981187452
36.511008,5.966325197836402,0.1024775209576735
36.515596,5.967638510796788,0.1019159771590127
36.520204,5.966253520414231,0.1013812651682404
36.524792,5.963969095584025,0.1008562270864869
36.529392,5.958209117677375,0.1003556845235218
36.53398,5.948607032551841,0.0999024023406916
36.538584,5.937738958836222,0.0994817535369712
36.543172,5.925971450672956,0.0990671281809656
36.547772,5.918534788585153,0.0985692823831842
36.552364,5.908033269011972,0.0981198357960336
36.556956,5.894711261381701,0.0976999098830879
36.561536,5.88024544987549,0.097302736688118
36.566132,5.869499560874017,0.0968663406202017
36.57072,5.858509302444252,0.0964438351170435
36.575316,5.8488291740532015,0.0960395169612326
36.579904,5.847366140405128,0.0955602624504563
36.584488,5.84398205314761,0.0951055129449209
36.589076,5.842274650071245,0.0946465073428575
36.593672,5.837624574223644,0.0942252956107229
36.598264,5.832730128947752,0.093818981953255
36.602848,5.833354475071891,0.0933646348462888
36.60744,5.838065297843205,0.0928493600040738
36.61202,5.839833447843285,0.0923671649237256
36.616612,5.839558359519777,0.0919136363241778
36.6212,5.842103759253359,0.0914321833261939
36.62578,5.850290135101119,0.090896256141163
36.630376,5.86064193398661,0.0903269763100297
36.634964,5.876634708986281,0.0897080980922473
36.639552,5.895858667634107,0.0890956287767363
36.644148,5.915737691301289,0.0884931151123341
36.64874,5.940602626063294,0.0878311666634901
36.653332,5.968288048882387,0.0871480728771427
36.657912,5.995074037253833,0.0864785721190191
36.662512,6.0301993050824,0.0857520175387174
36.6671,6.062748454282169,0.0850388869144038
36.671692,6.090556061815408,0.0843763048173546
36.676284,6.118363669348648,0.0837175041878127
36.680876,6.145149657720092,0.0830781999404457
36.685464,6.1715690919491015,0.0824613009346488
36.690056,6.201830633396991,0.0818142077332684
36.694656,6.230293305949586,0.081185474853701
36.69924,6.259166674093248,0.0805851976505003
36.703832,6.2938032030652336,0.0799352943427014
36.708424,6.332404023970245,0.0792482527953815
36.713016,6.373947517646493,0.0785451296852157
36.7176,6.413037077408088,0.0778507316336592
36.72218,6.450205583560242,0.0771796507134676
36.726764,6.483409797779368,0.0765548245310232
36.731356,6.5131384589220485,0.0759465912240804
36.735944,6.542334239759517,0.0753224167408315
36.740544,6.568342978397462,0.0747421715840162
36.745124,6.591531228978315,0.0741837655964174
36.749716,6.612798425949729,0.0736420706334599
36.754312,6.625071278444663,0.0731416657170493
36.7589,6.638365750101391,0.072631755902171
36.763512,6.650638602596325,0.0721310043195672
36.768092,6.659968782320024,0.071653270878342
36.77268,6.6646796050913375,0.0711980657016473
36.777268,6.67167803561453,0.0707095604226976
36.78186,6.672258240290041,0.0702510162374442
36.786464,6.670917391356113,0.0698062772254207
36.79104,6.667366977935822,0.0693432734163044
36.79564,6.662550575925446,0.068905860922044
36.800232,6.654791501143838,0.0684915459043304
36.804828,6.63742715831502,0.0681384985642972
36.809412,6.616753588572531,0.0678257363242207
36.814012,6.592115726897014,0.0675423746764543
36.818596,6.562081258535611,0.0672731703559552
36.823192,6.530125736564765,0.0670139203196668
36.827784,6.498947464327421,0.0667566023882871
36.83238,6.469035180680163,0.0664739142526856
36.836968,6.438101277871111,0.0661985178550034
36.84156,6.404224702290824,0.0659422141072691
36.846148,6.371003191729894,0.0656942116513087
36.85074,6.338681115616611,0.0654414627988072
36.85532,6.310201146722211,0.0651635302583419
36.859916,6.2835200467231065,0.064878663942827
36.864504,6.264400976447622,0.0645529451791191
36.869096,6.242217048686756,0.0642532490819265
36.87368,6.22260923955469,0.0639511335783157
36.878268,6.204678114603774,0.0636507935411253
36.88286,6.190999792462804,0.0633530095019585
36.887444,6.176544220588333,0.0630503294590694
36.892028,6.162865898447364,0.0627516393166401
36.89664,6.1557279868682215,0.0624229561751314
36.901228,6.155008301136759,0.0620740688010561
36.905816,6.16287226429071,0.0616814495897299
36.910408,6.180752191082933,0.0612615177088875
36.914996,6.203129290113395,0.0608347214884993
36.919604,6.227183073325008,0.0604141127211297
36.924196,6.250625932965892,0.0600291554771355
36.9288,6.280609203168602,0.0596228162816651
36.933388,6.320075556704373,0.059177091427185
36.93798,6.363017463316592,0.0587331912588885
36.94256,6.401872893281634,0.0583231848112899
36.94716,6.441383388266034,0.0579312071894367
36.951744,6.4846138057551705,0.0575305277727116
36.956344,6.522858312149485,0.0571680081725221
36.96094,6.563678937172597,0.0568088970054652
36.965532,6.60924110386224,0.0564349006054177
36.970112,6.654148205532527,0.0560527629686016
36.974708,6.697134253593372,0.0556843639621617
36.979304,6.738976497778279,0.0553314312791483
36.983896,6.781718176410833,0.0549798617527824
36.988484,6.822294432005656,0.0546511954066203
36.99308,6.858495700076383,0.0543247941829981
36.997668,6.88803437287114,0.0540281093508007
37.002252,6.910011015942277,0.0537591818705615
