Time,Force,Position
38.37432,7.540193650227465,0.1425410891311304
38.378912,7.654808858484659,0.1412127846196933
38.3835,7.747929105817235,0.1398157594575204
38.388088,7.810682232462858,0.1384694416719687
38.392692,7.85169602875557,0.1370568155661492
38.397284,7.868150006638284,0.1356128174023019
38.401884,7.863319491207776,0.1341448793779026
38.406464,7.84559814300154,0.1326979422341927
38.411064,7.825300676166508,0.1312660388929752
38.415652,7.805736317616349,0.1297867116618762
38.420248,7.782452036561452,0.1283361803104222
38.42484,7.764564362192444,0.1268158559078701
38.429428,7.742990667135587,0.125261230294455
38.434016,7.712056073459814,0.12381129821698
38.438604,7.674781297201878,0.1223832370898165
38.443192,7.638405955391589,0.1209351254763193
38.44778,7.609059762999711,0.1193735169322088
38.452364,7.576360202245532,0.1178284056156593
38.456952,7.545870205977713,0.1162770486332841
38.461544,7.517301263319337,0.1146937184291204
38.466148,7.48758851678502,0.1131329279531485
38.470724,7.461106953898859,0.1115553903152406
38.475308,7.441742823328362,0.1099635111200774
38.4799,7.426431267588148,0.1083857119408657
38.48448,7.414517221658863,0.1068259525507754
38.489072,7.409720608045243,0.1052518001791831
38.493664,7.413673969479809,0.1036252780101007
38.498252,7.419881036849365,0.1020506977816287
38.50286,7.426831452135534,0.1005534515653761
38.507448,7.434481073889689,0.0991010966129716
38.512036,7.4528458657501,0.0976226083265435
38.516632,7.472276418220932,0.0961756520982816
38.521228,7.493061242179106,0.0947883140458733
38.525824,7.524272725366617,0.0933577167059059
38.530416,7.558637348936765,0.0919725411330598
38.53502,7.598564905355575,0.0905999195445623
38.5396,7.639846733261725,0.089294640601869
38.5442,7.685547690140598,0.0880199787331172
38.548788,7.7320700382016,0.0867953155903431
38.553384,7.780557581320671,0.0856010412921365
38.557968,7.829211450602517,0.0844510360300185
38.562568,7.876887842171198,0.0833585793944925
38.567152,7.918434518769118,0.0823393286614784
38.571744,7.967953920681724,0.0813053208223016
38.57634,8.01722895316604,0.0802922838495616
38.580928,8.063972008470184,0.079332250948116
38.585516,8.107405836860655,0.0784268463894536
38.590108,8.147896992479895,0.077550486959275
38.594688,8.195295112803395,0.0766322607426237
38.59928,8.247068220650991,0.0757139006658347
38.603868,8.293977602117911,0.0748408461918382
38.60846,8.341419863890042,0.0739889487446157
38.613052,8.389517190681527,0.0731535309907987
38.617644,8.432628606378191,0.072365605751109
38.62224,8.473163903446057,0.0715836746381553
38.626828,8.508180409113889,0.0708299536062222
38.631416,8.541398045886428,0.0700875651323089
38.636008,8.567953087382994,0.0693803200899839
38.640596,8.587967718317733,0.0686985899816628
38.645188,8.608226718680765,0.0680110361893794
38.649776,8.622722558215472,0.0673517385466299
38.654376,8.637584951892617,0.0666791452548811
38.658968,8.655145648912704,0.0660019223732742
38.66356,8.661180024276142,0.0653833514212319
38.668152,8.664926791887703,0.0647894552272404
38.672744,8.66711906003226,0.0641888832502609
38.677336,8.66636865540558,0.0636044583856833
38.681924,8.664596631617108,0.0630259189349248
38.686524,8.655795458410228,0.062492194791927
38.691112,8.63967662490802,0.061976076533769
38.695716,8.619960053615218,0.0614634758362258
38.7003,8.593580887046445,0.0609732580324032
38.7049,8.560905679344136,0.0604903031210328
38.709488,8.523366745261152,0.0600259501664407
38.714084,8.48660506091167,0.059562379338091
38.718676,8.44641196493437,0.0591292329581205
38.723268,8.403031826757545,0.0587173149369073
38.727872,8.36439323024725,0.0582860641282358
38.732468,8.333072294032283,0.0578375082807701
38.737056,8.29639889258006,0.057428122161267
38.741652,8.26512209781372,0.0570096082888211
38.74624,8.232212760314857,0.0566214678988246
38.750828,8.195216946168824,0.0562558770917348
38.755416,8.16206323924167,0.0558726678935105
38.76,8.130586216495669,0.055491105200676
38.764592,8.10017495436009,0.0551372697101282
38.76918,8.06837551892028,0.0548025317149392
