Time,Force,Position
4.239456000000001,3.684229963243385,0.1579824236851583
4.244036,3.692369014720844,0.1578225943788041
4.248632000000001,3.692447057986362,0.157731041097675
4.253220000000001,3.6874509072598007,0.1576715234136283
4.257820000000001,3.6878072217704982,0.1573865119167314
4.262411999999999,3.690739654909995,0.1570374170519999
4.267004,3.6954709569447863,0.1566354213353252
4.271596000000001,3.7011016934272263,0.1562098850986731
4.276192,3.703911941852577,0.1558679392905202
4.2807960000000005,3.7067221902779273,0.1555239231385621
4.285388000000001,3.7101875037226337,0.1551874301970611
4.28998,3.712509013291401,0.1549043741442434
4.29458,3.719327695098408,0.1544927355771617
4.2991600000000005,3.727167996067209,0.1540441451510382
4.303744,3.738972588969038,0.1534560862491641
4.308332,3.749633377994927,0.152926881044607
4.31292,3.7613157861826103,0.1523579103239837
4.317512000000001,3.7742641829603785,0.1517200130170808
4.322100000000001,3.783737026661701,0.1511741336137268
4.326684,3.792310435915376,0.1506519638045272
4.331272,3.808035179301605,0.1498635729094324
4.335856,3.817097327411862,0.1492966407393378
4.340464000000001,3.825260041074472,0.148756109395158
4.345056,3.833544939451227,0.1482029010286532
4.349648,3.8364332311420952,0.1477901341535074
4.354240000000001,3.8427529344607807,0.1472299486385874
4.358828000000001,3.8490726377794666,0.146670570896318
4.36342,3.852694037755208,0.1461784566076042
4.368,3.865920705778157,0.145391339767089
4.372596,3.8804133623911903,0.1445392759476094
4.377184,3.891186096499487,0.1437925212219951
4.381784,3.904002068931371,0.142968764473817
4.386372,3.9101554460872823,0.1423446531307967
4.390972,3.91222234659602,0.1418653842543672
4.39556,3.910324955171729,0.1415211866730926
4.40016,3.90920481348094,0.1411693220725945
4.501148000000001,3.7404936060739473,0.1408032047312425
4.505739999999999,3.733820771166236,0.1407545554377857
4.51032,3.727925185992028,0.1406976887549746
4.514916,3.722151785531965,0.1406279575885121
4.519504,3.72316316506202,0.1403422578604965
4.524104,3.7232751101444266,0.140080351241532
4.528692,3.7313156390928905,0.1395633676054939
4.533296,3.732937942193673,0.1392159072154646
4.53788,3.742366644446368,0.1386309410468147
4.542472,3.749097043356119,0.1381156689196585
4.547052000000001,3.755949626980015,0.1375878915203058
4.551636,3.767421567556296,0.1369476693653223
4.556224,3.779137877560869,0.1362856875770141
4.56082,3.7897103836895023,0.1356751690174612
4.565412,3.80154887840822,0.1350083090872243
4.569996,3.808523646746263,0.1344865148729645
4.574576,3.8254702372739486,0.1336819631110371
4.579155999999999,3.85124484611534,0.1326446411629932
4.583748,3.885603103842143,0.1313800209944307
4.588336,3.917507427654295,0.1301354895852046
4.59292,3.946713448123503,0.1289572897480053
4.597508,3.976452348897922,0.1278184500101736
4.602096,4.006191249672342,0.1266822403925021
4.6067,4.043614364884526,0.125363271900235
4.611288,4.07936079591556,0.1240959003094088
4.615895999999999,4.114740672804158,0.1228712062245601
4.620488,4.14243633525499,0.1218560140736798
4.625088,4.17270811633462,0.1208033929880834
4.629684000000001,4.197993986319427,0.119897076654686
4.6342680000000005,4.222502606570734,0.1189967065599835
4.638864,4.2458674229461,0.1181362639993636
4.6434560000000005,4.265390132102584,0.1173712884283209
4.648048000000001,4.282991787649626,0.1166524162061076
4.652635999999999,4.298794574301373,0.1159621109735542
4.657228,4.3144751762389735,0.1152914782902762
4.661808000000001,4.332199016500161,0.1145684362580384
4.6664080000000006,4.342771522628795,0.1140513386844767
4.671004,4.345659814319663,0.113702908930559
4.675604,4.343684379629855,0.1134608419845918
4.680187999999999,4.344407248282991,0.1131754764439189
4.6847840000000005,4.346029551383774,0.1128759340259135
4.6893720000000005,4.3440541166939655,0.1126322400686351
4.693963999999999,4.343100301165951,0.1123636580918756
4.69854,4.33728275925726,0.1121989754085576
4.703124000000001,4.331098663206131,0.1120682133010869
4.707712000000001,4.324259502135647,0.1119274182141673
4.712312000000001,4.318564144941101,0.1117497813741354
4.716900000000001,4.309271049955964,0.1116242974943419
4.721476000000001,4.302387747436852,0.111414380772212
4.726072,4.2964038793653865,0.1111905617882055
4.730656,4.2927076190458,0.1108950461309984
4.735248,4.29052171674459,0.1105291548331547
4.739832,4.290623422195258,0.1100928766859004
4.74442,4.293667800417161,0.1095958225200386
4.749016000000001,4.294013875296121,0.1091359778033066
4.7536000000000005,4.293216146299141,0.1087126125647806
4.7581880000000005,4.290086668101655,0.1082899502239746
4.762784,4.28605775545652,0.1078759498333211
4.767367999999999,4.286770384477916,0.1073777074504021
4.771972,4.290547870984693,0.1068134658468762
4.776552000000001,4.293425923043823,0.1062610256756183
4.781148,4.298347213426539,0.1056602329014799
4.785736,4.302369069361607,0.1050739146596314
4.790336,4.303814806667877,0.1045088651790436
4.794924,4.303583859792998,0.1039567676955613
4.799524,4.303230728203974,0.103414202283477
4.804107999999999,4.304432096081953,0.1028714138933663
4.8087,4.308453952017021,0.1022787114223024
4.813292000000001,4.308922211610127,0.1018009062902891
4.817883999999999,4.31082278595609,0.1013364111130317
4.822468000000001,4.313500610035556,0.1008761786602547
4.82706,4.316589129706088,0.1004517421234824
4.831652,4.31714567219645,0.1001168955075281
4.836236,4.317580029972665,0.0997950531450218
4.840824,4.320590506377678,0.0994517362877771
4.845408000000001,4.323723167496837,0.099097890621749
4.85,4.328288143368855,0.0987532265564629
4.854596000000001,4.338494095355052,0.098323206044453
4.859184000000001,4.344857940122365,0.0979609635576451
4.863772000000001,4.346890938814214,0.0977083614995977
4.868360000000001,4.350722806401358,0.0974359191384182
4.872952,4.353410870112563,0.097195479547238
4.87754,4.356098933823767,0.0969555756899145
4.882148000000001,4.363406354487357,0.0966552657499296
4.886736000000001,4.369569971275007,0.0963850679079678
4.891328,4.37957569528154,0.0960560837319086
4.89592,4.389825788716364,0.0957085914304248
4.900500000000001,4.400975316598838,0.0953538936084735
4.905100000000001,4.416333505842631,0.0949076240789998
4.90968,4.428216142009977,0.0944890690609017
4.914288000000001,4.436256670958441,0.0941311164160585
4.918864000000001,4.438778408506872,0.0938375573445265
4.923464000000001,4.444609372968975,0.0934630740039772
4.928052000000001,4.448641468535782,0.0931081191620354
4.932656,4.454061737406819,0.09270512279161
4.937244,4.458582571830209,0.0923111202420965
4.941844,4.464247210129538,0.0918863880856373
4.946428000000001,4.4652924914764816,0.0915184090399503
4.95102,4.466582142251717,0.091128137683658
4.955616000000001,4.468360531883535,0.0906938301211563
4.960208,4.470138921515353,0.0902620002050804
4.964808,4.474982168632553,0.0897748546282193
4.9694,4.480069785178043,0.08926816901655
4.973988,4.479394240895208,0.0888415232997691
4.978580000000001,4.482027923526045,0.0883371946085361
4.98316,4.481186053080438,0.0878579161289966
4.98776,4.473803772073004,0.0874516760919946
4.992348,4.465644241332067,0.0870432062615062
4.996936,4.45388697280054,0.0866652060542226
5.001528,4.445194561754392,0.0862314890922706
5.0061160000000005,4.4395670081936265,0.085742584965458
5.010708000000001,4.439946984889475,0.0851520103697969
5.015288,4.437384288814088,0.0846068526901728
5.019876,4.433922158291055,0.0840662681791737
5.0244800000000005,4.426373551120847,0.0835969927618232
5.0290680000000005,4.417803324788845,0.0831428536192629
5.033672000000001,4.408578033437487,0.0826736156335272
5.038259999999999,4.403194849305011,0.0821548010759309
5.042860000000001,4.399732718781976,0.0816119259060464
5.047456,4.396270588258943,0.0810673510626904
5.052044,4.389332904659464,0.0805374497039127
5.056636000000001,4.377531494679308,0.0800709372536107
5.061216,4.366507334432655,0.0796081119978281
5.065816,4.363533942766203,0.0790217053766517
5.070404,4.35839512806202,0.0784791263780953
5.075004,4.351090890320103,0.0779758598185252
5.079587999999999,4.35122649758766,0.0773987910041995
5.084188000000001,4.351484289569363,0.0768124778434476
5.08878,4.3555841887699485,0.0761835549835641
5.093376000000001,4.356863599913446,0.0755825757431202
5.097964000000001,4.356099772733355,0.0750144424262794
5.10256,4.357912064182063,0.0744477345377603
5.1071480000000005,4.358702736468977,0.0738935059899621
5.111739999999999,4.362436081527125,0.0733034655392071
5.116332,4.36629161129942,0.0726989119403323
5.120915999999999,4.373211998557095,0.0720484398935564
5.125508,4.382708504443568,0.0713972384694387
5.130096,4.388240718397013,0.0707976679142988
5.134684,4.392629128474518,0.0702259489863532
5.139276000000001,4.402536329952056,0.0696243706124828
5.143867999999999,4.419883376439069,0.0689746746490216
5.14846,4.443237953182696,0.0682545480933119
5.15306,4.462750422707441,0.067570216321899
5.157640000000001,4.47486718867134,0.0670066815132235
5.162232,4.48698395463524,0.06644235515502
5.166828000000001,4.504863881427463,0.0658279556448482
5.171416000000001,4.52262162350554,0.0652314992089073
5.176019999999999,4.541156615317119,0.0646463228751078
5.180607999999999,4.554705696033877,0.0641185704571008
5.1852,4.570830895379434,0.0635916951974341
5.189784,4.587733344458492,0.0630715527072846
5.194376,4.600915871032813,0.0625810196644228
5.198972,4.617285439806659,0.0620450025918811
5.20356,4.633532823866361,0.0615240846305254
5.20816,4.65656498791618,0.0609544850065056
5.212744000000001,4.677676098356557,0.0604034855432704
5.217344000000001,4.697765589635141,0.0598704012968468
5.221932000000001,4.72079775368496,0.0593129264461558
5.226528,4.741009429677689,0.0587698121976835
5.231112,4.753781260660944,0.0582675709762641
5.235704,4.7606677461017295,0.057819710793948
5.240288,4.76436718934299,0.0574177583164587
5.244876,4.772030924517278,0.0569813031109681
5.249468,4.7842698751953225,0.0564652034349643
5.254060000000001,4.796508825873368,0.0559485277441181
5.258648000000001,4.805927288494323,0.055450791961539
5.26324,4.811992382752978,0.0549423471009857
5.267816,4.814992619526252,0.054464346501445
5.272404,4.819791725194823,0.0539805189066589
5.2769960000000005,4.82189252752045,0.0535002116871969
5.281575999999999,4.82141721121728,0.053012028088048
5.286168,4.816977602981081,0.0525521346056539
5.290756,4.8094731372595,0.0521217458664332
5.295344,4.799025998766686,0.0517112405469101
5.299936000000001,4.777829788350725,0.0513717067045641
5.304524000000001,4.754590339611178,0.0510480815733516
5.309112000000001,4.724932665023948,0.0507342241343764
5.313704,4.6914328832178365,0.0504380235103235
