Time,Force,Position
5.472052000000005,3.622293928906882,0.1535176226790935
5.476684000000006,3.636939489129278,0.1532986740011643
5.4998800000000045,3.616754658243372,0.1531301540981321
5.504512000000005,3.6149455497163374,0.1529303704965043
5.5091600000000085,3.616079113960538,0.1526308453397402
5.513788000000005,3.621587665728832,0.152225405730544
5.518420000000006,3.6270962174971255,0.1518232909689214
5.523060000000001,3.635180887894218,0.1513665883708815
5.527687999999998,3.642899004148873,0.150954062636157
5.532331999999997,3.6535597931747623,0.1504336793494482
5.53697600000001,3.664875647220008,0.1499263296148698
5.541612000000001,3.6731266437798737,0.1495287796846912
5.546248000000006,3.683176509235036,0.1490810571469761
5.550892000000005,3.6980901010708735,0.1484692524005276
5.5555240000000055,3.7131258776208567,0.1478550458240458
5.560156000000006,3.737278183361464,0.14698406893181
5.564796000000001,3.763718096853951,0.146020553055826
5.569423999999998,3.7881147720228494,0.1451425333228425
5.574060000000003,3.815331935248838,0.1441856759360145
5.578688,3.844347967370121,0.1431934288958175
5.583331999999999,3.875285053100847,0.1421426179112737
5.587972000000008,3.901602781879187,0.1412351105612493
5.592607999999999,3.928164880085818,0.1402922188868387
5.597260000000006,3.954604793578304,0.1393984556624622
5.601892000000007,3.972461058185377,0.1387563471036751
5.606520000000003,3.986963954430149,0.1381773220595776
5.611156000000008,4.002366285122569,0.1375853062033417
5.615796000000003,4.013149258862605,0.137107920202171
5.620432000000008,4.024054417316786,0.1366177122931806
5.625064000000009,4.035614640790324,0.1361330653870616
5.629704000000004,4.043454941759125,0.1357440924953915
5.634343999999999,4.061022695489277,0.1350828864484853
5.638984000000008,4.081533121990665,0.1343466567271025
5.643619999999999,4.101676994349615,0.1336621664702061
5.648251999999999,4.116057705880243,0.1331283248947299
5.652888000000004,4.126962864334424,0.1326661536432393
5.657516000000001,4.137379283932023,0.1322622478574734
5.66216,4.147917888243767,0.1318461825181582
5.666800000000009,4.159722481145595,0.1313840658406306
5.67143200000001,4.169606020437983,0.1309728607614546
5.676076000000009,4.1767912563874265,0.130613872050655
5.680704000000006,4.1855309918038754,0.1302444448056561
5.685344000000001,4.196969030563268,0.1298245855272215
5.6899760000000015,4.202888277922627,0.129524114753316
5.694603999999998,4.213426882234371,0.1291212517198759
5.699235999999999,4.228462658784355,0.1286382928192296
5.703879999999998,4.237979643934305,0.128268296081255
5.708523999999997,4.251993801322495,0.1278106012183686
5.713155999999998,4.266785208444187,0.1273500200366832
5.717792000000003,4.284274918908823,0.1268430796146007
5.722440000000006,4.305484551878195,0.1262564966877312
5.727072000000007,4.317743981819717,0.12591533683351
5.731712000000002,4.323751512076333,0.1257566104054946
5.736339999999998,4.327182923704151,0.1256358908556606
5.7409880000000015,4.333312638674912,0.1254625780978275
5.745624000000007,4.341119037826823,0.1252700019855362
5.75027200000001,4.347248752797584,0.1250999628121453
5.754908,4.355543890806077,0.1248643481173648
5.759540000000001,4.360651986615045,0.1247266652633544
5.764176000000006,4.364205582957008,0.1245965728222349
5.768808000000007,4.369558048194268,0.1244340479505193
5.773440000000008,4.375277067573964,0.1242374766466344
5.778072000000009,4.376376730001274,0.1241314064323079
5.782716000000008,4.379153076609735,0.1240048666019606
5.787348000000009,4.382173792646488,0.1238557410819902
5.791983999999999,4.379797901997353,0.1238008687978463
5.796611999999996,4.381141933852955,0.1236711759798404
5.801243999999997,4.384895758174582,0.1234553824572426
5.805884000000006,4.387095083029204,0.1232470432534214
5.810516000000007,4.384919420359733,0.1231030204239942
5.815151999999998,4.382088692670905,0.1229514763983603
5.819788000000003,4.381667757448101,0.1227123797784375
5.824415999999999,4.385822037729054,0.122320133795972
5.8290640000000025,4.3939406099430345,0.1218375169020344
5.8337080000000014,4.40446897462304,0.1212693590399875
5.838340000000002,4.413320655121895,0.1207230668164931
5.842984000000001,4.42163945531554,0.1201575786489193
5.847611999999998,4.424972344414361,0.1197092688124893
5.852252000000007,4.42789453792212,0.1192296120671507
5.856884000000008,4.432737785039318,0.1187089629560748
5.861519999999999,4.436803782423015,0.1181907492977355
5.866163999999998,4.43727204201612,0.1177280800761116
5.870807999999997,4.439905724646957,0.1171986903888067
5.875436000000008,4.441884342258438,0.1166599002304456
5.880071999999998,4.441286841241123,0.1161523316243864
5.884712000000008,4.437991036880863,0.1156817872403766
5.889344000000008,4.435839036396541,0.1151746062109542
5.893976000000009,4.42894549424569,0.11476407826118
5.898616000000004,4.42229632152313,0.1143288689162043
5.903244000000001,4.415891518228861,0.1138674837111095
5.907880000000006,4.406788411591648,0.1134469804728596
5.9125080000000025,4.396663685792642,0.1130507285755762
5.917156000000006,4.385517340831843,0.1126790068693063
5.9217960000000005,4.368607835042719,0.1124217180839936
5.9264320000000055,4.348511287054071,0.1122492450093818
5.931080000000009,4.325594251008332,0.1121283333980057
5.935712000000009,4.3032100952678025,0.1120262088716612
5.940340000000006,4.284790231460304,0.1118345719551204
5.944975999999997,4.265881628796221,0.1116880017478025
5.949604000000008,4.24775027586564,0.1115370748667938
5.954232000000005,4.231295607116209,0.1113699401394938
5.958876000000004,4.218560860871516,0.1111369001385507
5.963504,4.2084022332556215,0.1108751622714114
5.968136000000001,4.198243605639726,0.1106121504935994
5.972784000000004,4.1895172927766895,0.1103567243366459
5.977420000000009,4.189663139675986,0.1099831559694506
5.982051999999996,4.188787367413488,0.1096351312036073
5.986692000000005,4.18934390990385,0.1092963818204934
5.991320000000002,4.192232201594718,0.1089556760924826
5.995959999999997,4.198718231076177,0.1085667264416779
6.000588000000008,4.204593336986909,0.1082313546124969
6.005232000000007,4.210224073469348,0.1079177403994408
6.009867999999997,4.214588821361703,0.1076510715764648
6.014504000000002,4.221529687882856,0.1073561530358717
6.019136000000003,4.234355899946478,0.1069431932900355
6.023764,4.248980980905396,0.1065008564243144
6.028396000000001,4.261685008254872,0.1060933949482808
6.03303600000001,4.273245231728411,0.1057248104671791
6.037664000000007,4.285827074363742,0.1053313266322096
6.042296000000007,4.29738729783728,0.1049644344345137
6.046936000000002,4.30829245629146,0.1045895340159242
6.051563999999999,4.319075430031496,0.1042302724631314
6.056200000000004,4.329980588485677,0.1038658244749136
6.060844000000003,4.341662996673361,0.1035011486559347
6.065480000000008,4.352690339841687,0.1031252174016901
6.070112000000009,4.357299457162333,0.102844286622657
6.074748,4.363707443378276,0.1025430672739643
6.0793800000000005,4.368683114841358,0.1022315358487195
6.084028000000004,4.37030541794214,0.1019428603227201
6.0886640000000085,4.371927721042924,0.1016574274429282
6.0933160000000015,4.380823542990408,0.1012139298114954
6.0979600000000005,4.393028591851564,0.1006880515535443
6.10260000000001,4.410341736521686,0.1000639701233761
6.107228000000006,4.4252009472771565,0.099445252216516
6.111856000000003,4.4353186163660965,0.0989054616757721
6.116484,4.446702274045122,0.0983244590920685
6.121120000000005,4.461150789209528,0.0976817851408667
6.12576,4.475843673802225,0.0970198703131696
6.130396000000005,4.490780927823213,0.0963387980859021
6.1350280000000055,4.505840366558346,0.095648721356126
6.139651999999998,4.521799239741129,0.0949541519832211
6.144295999999997,4.535959244028614,0.0942804733225819
6.148944,4.546399325811364,0.0936565876501013
6.153592000000003,4.557083777022405,0.0930133904030602
6.158215999999996,4.568667662681093,0.092361359070305
6.162863999999999,4.583682959967598,0.0916208072497689
6.167500000000004,4.593301650568217,0.0909324006007578
6.172144000000003,4.6017765372928965,0.0902709061760567
6.176780000000008,4.608863250713346,0.0896542175574484
6.181412000000009,4.612885106648414,0.08909840610665
6.18604400000001,4.611021617041012,0.0886423726623945
6.190691999999999,4.605193835500582,0.0882515866500116
6.195323999999999,4.591559654808242,0.0879784921739881
6.199960000000004,4.581767581334783,0.0876499057311905
6.204599999999999,4.572752757594827,0.0873226979918125
6.209236000000004,4.564392998874228,0.0870079921208079
6.213880000000003,4.555011620991835,0.0867113520360312
6.218508,4.547306927290591,0.0864098281791657
6.223144000000005,4.5387027991417,0.086114833913276
6.227784,4.529321421259307,0.0858160900556341
6.232416000000001,4.518796239500975,0.0855449351153728
6.2370480000000015,4.5082710577426415,0.0852723993376777
6.241687999999996,4.499544744879605,0.0849838991807329
6.246316000000007,4.491840051178363,0.0846777588049496
6.250956000000002,4.486422965228998,0.0843178941390577
6.255595999999997,4.480517140423051,0.083998982624575
6.260227999999998,4.482051160626578,0.0836076284861382
6.264884000000009,4.485628419153692,0.0831822851255085
6.269512000000006,4.496234827099214,0.0826539969728846
6.274135999999999,4.510272646672553,0.0820508325804135
6.278784000000002,4.524188281531749,0.0814562311139709
6.283411999999998,4.542723273343328,0.0808243645411574
6.288048000000003,4.566121991535583,0.0801287155476709
6.292692000000002,4.590175774747197,0.0794557271827067
6.297319999999999,4.615373361834749,0.078761489915532
6.301956000000004,4.641714752798239,0.0780511729931122
6.306600000000003,4.671898250980613,0.0773101414543345
6.311232000000004,4.697462392210601,0.0766072404263193
6.315864000000005,4.725602652069388,0.0759026928621111
6.320496000000006,4.753498542499884,0.0752170185896091
6.325128000000007,4.780739367911023,0.0745188563364308
6.329768000000001,4.811455746398607,0.0738146158720758
6.334395999999998,4.842294309600337,0.0731048271562625
6.339039999999997,4.871989068926128,0.0724254551644106
6.343676000000002,4.901195089395336,0.0717957893159109
6.348315999999997,4.92745843709331,0.0711991095972521
6.352972000000008,4.947958623962959,0.0706638778741693
6.357604000000009,4.971157114175551,0.0701220287602473
6.362232000000006,4.988470258845673,0.0696481594372088
6.366867999999997,5.003373611049773,0.0692328292965207
6.371508000000006,5.018521332682164,0.0687991050916923
6.376140000000007,5.030848566257466,0.0683907537532147
6.380784000000006,5.043297984546912,0.0679773971363874
6.385424,5.0540707186552085,0.067565742128197
6.390056000000001,5.064066203030003,0.067151620956981
6.394688000000002,5.07087464520527,0.066784818349959
6.399324000000007,5.071020492104567,0.0664691730161187
6.403956000000008,5.076929499832186,0.0661083738162501
6.408600000000007,5.080262388931009,0.065749936372833
6.413228000000004,5.084861266619916,0.0653624482570462
6.417876000000007,5.093302251527706,0.0649487969812247
6.422511999999998,5.099655856663281,0.0645048131716467
6.427143999999998,5.106009461798855,0.0640620959222676
6.43180000000001,5.113384686096225,0.0636101399120752
6.436428000000007,5.118061607050651,0.0631675361713974
6.441056000000003,5.124126701309305,0.0626868528576073
6.445695999999998,5.133256653053342,0.0621736124273218
6.450336000000007,5.136989998111491,0.0616760877699983
6.454971999999998,5.145587069550315,0.0611437804692636
6.459615999999997,5.151485837646197,0.060615880633844
6.464244000000008,5.16404720101805,0.0600549539855812
6.468879999999999,5.174032445761106,0.0594904054301395
6.473523999999998,5.181974452180574,0.0589482161900195
6.478155999999999,5.190815893047691,0.0584066705759161
6.482787999999999,5.198635714753014,0.0578760855225221
6.487436000000002,5.206944275314919,0.0573113743717669
6.492068000000003,5.2144755861433225,0.0567336443768993
6.496712000000002,5.2154664864099,0.0561844511801072
6.501356000000001,5.218256255571774,0.055633131264123
6.505988000000002,5.220024405571853,0.0550918308863226
6.510643999999999,5.214885590867669,0.0546013363002796
6.515271999999996,5.205415930088019,0.0541628361858361
6.519900000000007,5.194147400413074,0.0537248096734194
6.524532000000008,5.180180567395186,0.0532886968251383
6.529172000000003,5.162738181300851,0.0528429337532989
6.533804000000004,5.14799409854946,0.0523938940337219
6.5384480000000025,5.129407908579186,0.0519623859263312
6.543084000000008,5.1094335453046815,0.0515600069321912
6.547716000000008,5.0857392595254405,0.0511683445554536
6.552360000000007,5.063066592907993,0.0507632414779485
6.556992000000008,5.02682436631031,0.0504313477027753
6.561627999999999,4.992258823893777,0.0501021250716318
6.566264000000004,4.955772227867803,0.0497785010330276
6.570896000000005,4.915443524622947,0.0494702117853478
6.57553200000001,4.8729493983403565,0.049184613182482
6.580163999999996,4.826368795410594,0.0489294205816637
