Time,Force,Position
4.561008,3.3431702114145136,0.1671046343276818
4.56554,3.410743613858902,0.1666765983257161
4.57008,3.467757932728069,0.1663649318840608
4.574624,3.522919001621573,0.1657294148416148
4.57916,3.5692757143865235,0.1650449196462852
4.583704,3.6013534210715155,0.1645755433875885
4.588224,3.6276135858478153,0.1639956226489419
4.592748,3.6437253626399593,0.1635479402502656
4.5972800000000005,3.6548409887055424,0.1630713554307768
4.601804,3.661948181389469,0.1626899830025694
4.606332,3.672608970415359,0.1621223826362749
4.61086,3.68044927138416,0.1616565129759686
4.615408,3.6930311140194902,0.1610216916621742
4.619944,3.700460719397226,0.1605267234059396
4.624496,3.711365877851406,0.1599441223715205
4.629028,3.7207165368385833,0.1593814281487747
4.633568,3.725447838873375,0.158967988761926
4.6381120000000005,3.727236468136931,0.1586673742431101
4.642656,3.729802347133991,0.1583545223820797
4.647188,3.73236822613105,0.1580420814006665
4.651712,3.735056289842255,0.1577134318479059
4.656244,3.738888157429399,0.1573274154913067
4.660772,3.741165525549538,0.1569635370949977
4.665312,3.7398451558790864,0.1567089560509475
4.669856,3.740978720123287,0.1564077269901359
4.674388,3.74877487964346,0.1558745933857232
4.678928,3.7559159741442754,0.1553408690932602
4.683452,3.764200872521031,0.1547553969776969
4.6879800000000005,3.767499859802963,0.1543575718800295
4.692508,3.766179490132511,0.1541033618228691
4.697032,3.7620386324049706,0.1539420504960707
4.7060960000000005,3.7476272019791272,0.153862156319155
4.715196,3.733504282430203,0.1538258905716237
4.71972,3.7279752513984312,0.1537469251041561
4.724252,3.725266708423749,0.1535769638444701
4.728772,3.726278087953804,0.1532919910508518
4.733304,3.727167282769712,0.153021721339612
4.737844,3.72727922785212,0.1527616597932751
4.7424,3.729967291563325,0.1524423423532644
4.74694,3.73151155139859,0.1521765011264301
4.751464,3.7346103107008606,0.1518885219393056
4.755996,3.740285188631929,0.1515420924365465
4.760544,3.739175286572879,0.1514274208522494
4.7651,3.7374103194944728,0.1513089223031586
4.787748,3.720256444277058,0.1512166256931746
4.792284,3.7192687269321545,0.1510849174488984
4.796832,3.7221231168061326,0.1508206420437994
4.801364,3.7244446263749,0.1505404315616319
4.805892,3.7266439512295215,0.1502754959336943
4.8104320000000005,3.727821656922351,0.1500513173380201
4.8149560000000005,3.731819850672269,0.1497419015771202
4.819484,3.731975937203304,0.1495597514279046
4.8240240000000005,3.736096315667367,0.1492432914733249
4.828568,3.7408717591507874,0.1489313072530134
4.833096,3.745769387348353,0.1486102028078584
4.8376280000000005,3.754753492193093,0.1481464073594215
4.842164,3.766147389503856,0.1475747393205451
4.846688,3.775742417919324,0.1470519815184641
4.851228,3.791467161305553,0.1463116076699525
4.855752,3.806048100815843,0.1456262626676361
4.86028,3.81960742116434,0.14498074249166
4.8648240000000005,3.838763576178386,0.1441079537805555
4.8693800000000005,3.8636828920207575,0.1430752699201562
4.873916,3.8942431839773066,0.1418892197001297
4.87844,3.930566636762181,0.1405477042784389
4.8829720000000005,3.9644802970810296,0.1393302360146861
4.8874960000000005,3.992630796571555,0.1382718891726374
4.892036,4.017838623290846,0.1373042415682024
4.8965760000000005,4.041125396400695,0.1363860818189748
4.901136,4.064412169510544,0.1354700735555053
4.90566,4.082713031525571,0.1347145082020271
4.910184,4.104978185473626,0.1338452748398742
4.914716,4.121480178593358,0.1331453322142782
4.919252,4.140924844484324,0.1323686962468653
4.923796,4.159470075927642,0.1316227695452819
4.9283280000000005,4.173928830723787,0.1310123411931878
4.932856,4.186755042787409,0.1305050364333013
4.937396,4.1976602012415904,0.1300449629045627
4.9419200000000005,4.208198805553335,0.1296308338369237
4.946452,4.218981779293371,0.1291934028545854
4.95098,4.228865318585759,0.1287735100951622
4.955516,4.236583434840413,0.12843390306355
4.960044,4.240581628590331,0.1281803645495986
4.9646,4.243802572606746,0.1279356968683421
4.96914,4.2461240821755135,0.1277122041671707
4.973664,4.249955949762658,0.1274153383840966
4.978192,4.261594216501713,0.1269352854890033
4.982728,4.27683022103136,0.1263935555247646
4.987256,4.296929951941682,0.1257424578659587
4.991784,4.316130248404358,0.1251063151541931
4.99634,4.336963087599554,0.1243792565469745
5.00088,4.353054385128221,0.123758512719295
5.005404,4.374009409037564,0.1230295698913041
5.009932,4.390345075994521,0.1223928830375593
5.0144720000000005,4.405781308503831,0.1217754988703879
5.019,4.422239160174934,0.1211302765735643
5.023528,4.4363652626455305,0.1204942868231588
5.028084,4.456376710658597,0.1197286963873215
5.032624,4.472912605595218,0.1190130657875182
5.03716,4.487527446922397,0.1183375987292806
5.041688,4.5053293304491016,0.1175779373970755
5.046212,4.519655660899362,0.1168640327171928
5.0507480000000005,4.529118264968946,0.1162495405824842
5.055276,4.533961512086145,0.1157203500697061
5.059832,4.532386533355663,0.1153045279808466
5.064368,4.524804024368565,0.1150319374229867
5.068892,4.510681104819643,0.1148831136235984
5.073424,4.494104251356066,0.1147525168283556
5.07796,4.474051844816045,0.1146630275795211
5.0825000000000005,4.456287046027901,0.1144972872117486
5.087028,4.441220550582701,0.1142874830610973
5.091584,4.42729785901344,0.1140401198745276
5.096124,4.406057507148851,0.1139109875392784
5.1006480000000005,4.388004197483789,0.1136931631413552
5.10518,4.367252584475782,0.1135145241189308
5.109712,4.346867525610212,0.1132991171420887
5.114272,4.326360282030498,0.1130945340259756
5.118804,4.299312627888956,0.1130028832452248
5.123332,4.274063842642712,0.1128831140586948
5.136928,4.187123817572873,0.1128666162257957
5.141452,4.165350585403074,0.1126999407796787
5.14598,4.1483188948998055,0.1124400688751806
5.15052,4.13284170386354,0.112175753346861
5.155064,4.125293096693332,0.111729541920997
5.1596,4.122241661761363,0.1112143697733828
5.164124,4.121888530172338,0.1106605015157287
5.168652,4.12219046360267,0.1101166890157474
5.173184,4.122003658176419,0.1096229710272631
5.177704,4.120550864160082,0.1091804256391912
5.1822360000000005,4.119875319877248,0.1087364198075796
5.186788,4.1245963822803,0.1082130229293546
5.191328,4.128950890540916,0.1077287442537447
5.195852,4.134082648535034,0.1072385149666411
5.200384,4.137948417939068,0.1067960026081695
5.204908,4.1468000984379225,0.106248174038541
5.209428,4.158350082279721,0.1056606116621476
5.213968,4.170799500569168,0.1050644063713403
5.218516,4.190033698848732,0.1043410582570286
5.22306,4.213476558489617,0.1035088800807903
5.2275920000000005,4.237574483149857,0.1026938299288861
5.232132,4.2591404306299285,0.1019813414286382
5.23666,4.2766199014628254,0.1013641215227714
5.24118,4.298308033657042,0.100647275714278
5.245704,4.319751796422968,0.0999713474384623
5.250252,4.339518875007743,0.0993133537759608
5.254796,4.355566031087782,0.0987121984176847
5.259328,4.370591568006026,0.0981327410699881
5.263868,4.381897182419533,0.0976040498465786
5.268404,4.388949994023093,0.0971034489610111
5.272932,4.397146609502592,0.0965734620209897
5.277452,4.404565975248588,0.0960457002986809
5.282004,4.406344364880408,0.0955974096011426
5.286548,4.414008100054694,0.0950477344078284
5.291076,4.4247366927143625,0.0944384641163066
5.295604,4.432522612602796,0.0938876151296859
5.30014,4.442229586100671,0.0933115501376915
5.30466,4.449238256255602,0.0927636153190378
5.3092,4.44880708140106,0.0923121330609927
5.313748,4.44633266822293,0.0919006582940718
5.3182920000000005,4.44524642834903,0.091440781149476
5.32282,4.446569980941156,0.0909135753275859
5.32736,4.448260087675718,0.0903507435626135
5.331896,4.444964283315457,0.0898726530691258
5.336444,4.433329199498076,0.0894895175824207
5.340972,4.422593550128341,0.0890976208905215
5.345528,4.412635150492108,0.0887057956456244
5.350064,4.403043304998313,0.0882801520931736
5.354588,4.397782305579984,0.0877557554169514
5.359116,4.396896293685748,0.0871982865645241
5.36364,4.391923805144337,0.0867145944962221
5.368184,4.387850751050575,0.086223918494689
5.372712,4.391584096108724,0.0856146730096558
5.377268,4.388532661176755,0.0851051179341064
5.38182,4.379840250130608,0.0846611532809665
5.38636,4.37396832714155,0.0841861841967682
5.390888,4.3644986663619,0.0837401445016086
5.395424,4.357971678353487,0.0832503944803801
5.399968,4.359006720068692,0.0826733008414324
5.404508,4.361063380945691,0.0820785831610864
5.40904,4.357112511566074,0.0815757675899958
5.413564,4.35226220773881,0.0810828135057207
5.418088,4.350354576682781,0.0805494087089677
5.42262,4.354087921740929,0.0799580526851439
5.427144,4.365261111808552,0.0792911282844758
5.431672,4.374635432980879,0.0786393533206503
5.4362,4.384376308295643,0.0779556411687352
5.440756,4.3947722486297645,0.0772874995352847
5.445296,4.402880581212007,0.0766756440287712
5.44982,4.410211664060747,0.0760624163057149
5.454348,4.423550277166103,0.075366053502782
5.458884,4.436111640537956,0.0746700639840772
5.46342,4.445852515852722,0.0740085855425655
5.467948,4.460457117548162,0.0732919521442982
5.472504,4.480580510643636,0.0725340513562922
5.47704,4.494818558196638,0.0718489836222735
5.481564,4.512898712968525,0.0711286486913692
5.486096,4.529179998845116,0.070422419082575
5.490616,4.542396427236327,0.0697703913545397
5.495144,4.555368486199245,0.0691397385578847
5.499676,4.57320427154284,0.0684552372041876
5.504228,4.587853014686908,0.0678245475871207
5.508772,4.601235769240892,0.0672319142886993
5.513296,4.6138412740613735,0.0666429079899471
5.517824,4.627468398043648,0.0660498890591286
5.522352,4.640973337311779,0.0654660283135193
5.526876,4.655133341599265,0.0648990380782355
5.5314,4.669293345886751,0.0643337968869691
5.535928,4.688194891840767,0.0637398186254419
5.540464,4.707096437794784,0.0631490325481983
5.5450040000000005,4.723954745425213,0.0625917284924834
5.549536,4.742367552522647,0.0620523188636934
5.554072,4.762334859087085,0.0615309804035313
5.558596,4.779359492880289,0.0610395466014782
5.5631200000000005,4.793563638616404,0.0605676452853432
5.5676440000000005,4.809033772942603,0.0600624122788605
5.572192,4.8193958114598345,0.059615350295048
5.57672,4.833355587767658,0.0591638572454192
5.581248,4.844617060732537,0.0587192875129376
5.585792,4.8571445222875,0.058248289222325
5.590328,4.8678731149471695,0.0577832191890191
5.594852,4.877580088445044,0.0573248228835257
5.599388,4.8871648772287735,0.056876334722149
5.603924,4.89290755879362,0.0564545819211626
5.608448,4.89210982979664,0.0560626970174392
5.612992,4.8924559046756,0.0556511543625423
5.61752,4.890103676211616,0.055242156131154
5.622044,4.886074763566483,0.0548257186747279
5.626568,4.873584386750081,0.054447300648724
5.631092,4.859172956324237,0.0540782296536548
5.63562,4.8378545611941295,0.0537595094140197
5.64016,4.811139559378136,0.053445124980434
5.644704,4.779027950876255,0.0531342244141769
5.6492320000000005,4.744095854317285,0.0528312638929721
5.653764,4.706343269701226,0.0525360707652715
5.6583,4.667446881209228,0.052255270493639
5.662824,4.627651058269582,0.051972034357329
5.667356,4.579804466749733,0.0517616712111716
