Time,Force,Position
5.88754,2.705002679457932,0.1756172304527439
5.892144,2.863266748372111,0.1732674742925859
5.896736000000001,3.015302579786534,0.1711867947555247
5.901328,3.1614767278436378,0.1689474190997405
5.905912000000001,3.290507240315065,0.1674401572471071
5.910508,3.413021004409817,0.1657836640482477
5.915104,3.5248874020320904,0.1641253469130945
5.919696,3.622019956534712,0.1626085011751797
5.924284,3.708505144564856,0.1610311316121723
5.928876000000001,3.781400293351287,0.1596167901851942
5.93346,3.843403706236949,0.1581394332024608
5.938048,3.8925943296124,0.1567593020293807
5.942632,3.924108437096964,0.15557887983101
5.947228000000001,3.9432984939279008,0.1543426816583911
5.951808,3.945589284601452,0.1532930112031226
5.956396,3.9373209916997824,0.1522928729185921
5.960979999999999,3.923157113623904,0.1512596412958528
5.96556,3.899544054031853,0.1503670624988612
5.970136,3.868813562124137,0.1495829676338376
5.974728000000001,3.835584994853141,0.1487537216231334
5.979308,3.795649690857545,0.1480588846718145
5.983896,3.7488854654232022,0.147511979457905
5.988488,3.695047949121824,0.1471415965385182
5.993080000000001,3.637734879743999,0.1468410172142283
5.997676,3.580543995080318,0.1465306361105945
6.002256000000001,3.521309872093052,0.1462744199819302
6.006844000000001,3.461997705840268,0.1461041294882749
6.011428,3.406693972969141,0.1458721973887848
6.016019999999999,3.353233250441937,0.1456569638736148
6.020612,3.298428496059132,0.1456118481012222
6.025204,3.250330478400926,0.1453930977879617
6.029804,3.2002333638677607,0.1453337863534592
6.034396000000001,3.1621174080309378,0.1449841965125438
6.038992,3.130507960939052,0.1446027290686812
6.043584000000001,3.106060087611459,0.1442033000890037
6.048172000000001,3.086564223561798,0.1438002381976056
6.0527560000000005,3.073574868257075,0.1433768506702964
6.0573440000000005,3.073632432259114,0.1427396505950468
6.06194,3.084038612224974,0.1419565880341943
6.066523999999999,3.097519889307953,0.1413273182485477
6.071108000000001,3.118407109583517,0.1406631671741167
6.075704,3.149398576394609,0.1398973099084043
6.080292,3.187140921378929,0.1390834669093222
6.084884000000001,3.23073471008883,0.1382604689853527
6.089464,3.2813237464002505,0.1373686618135085
6.09404,3.333389238913158,0.1365670233648752
6.098652,3.38868591507422,0.1357249901667603
6.103236000000001,3.4496677087980885,0.134821711349638
6.107828,3.5136363167418194,0.1339241207468119
6.112424000000001,3.584556030838442,0.1328841245236316
6.11702,3.6488572911077206,0.1321424452715411
6.121624000000001,3.7181886039204497,0.1313119036536409
6.126224000000001,3.780246397886479,0.1307760517660999
6.130815999999999,3.841649126833151,0.1302618525263309
6.135396,3.900720106579316,0.1297786536720447
6.139996,3.9604020098962094,0.1292489417469167
6.144584,4.01799653344089,0.1287377802098238
6.149184,4.069661569994471,0.1283486085886
6.153772,4.121038095671133,0.1279397320865097
6.158372,4.172981403469894,0.1274027099475265
6.1629640000000006,4.220383397581789,0.1268907519415721
6.16756,4.259401970787932,0.1264942592562591
6.172148,4.292857611145415,0.1261410059471248
6.176743999999999,4.320217438349027,0.1258158108717058
6.181343999999999,4.342258702132268,0.1255152753076688
6.185936,4.363722944161671,0.1251283274783829
6.190516000000001,4.3851430447424455,0.1246833321197955
6.1951,4.399323528293409,0.1243044309862539
6.199684,4.411005936481092,0.1238881061829542
6.204280000000001,4.414793662619608,0.1235235845516034
6.208868000000001,4.422745908670816,0.1229703346331779
6.21346,4.428322264072889,0.1223680424304912
6.218044000000001,4.4384296935300895,0.121549119941561
6.222624,4.442852005424485,0.1207767799342202
6.227216,4.4462085567084575,0.119965809629032
6.2318,4.4424918171253935,0.1192587668609107
6.236388,4.437220578075324,0.11856073209133
6.240984000000001,4.429984143967187,0.1178356492534175
6.245571999999999,4.4187392764773925,0.1171382616718582
6.250176,4.4049182903588,0.1164704448012521
6.254768,4.393507096706232,0.1157184680856557
6.259364,4.387448368290923,0.1148204803154966
6.263968,4.385598301236933,0.1138113304047323
6.268556,4.387468156687681,0.1127369405593941
6.273152,4.389215827424282,0.111667250525808
6.27774,4.39084131344674,0.1106118359082218
6.282336000000001,4.388624692250311,0.1096318389866338
6.286924000000001,4.392171231882208,0.108546912760072
6.291524000000001,4.394573967638167,0.1074978345196357
6.296104,4.400330071756425,0.1064172901934066
6.300704,4.40506455671289,0.1053667244425994
6.305300000000001,4.4084108683651255,0.1043734432335114
6.309892,4.407426333941894,0.1034947337436522
6.31448,4.411716221490403,0.102558817625248
6.319076000000001,4.416783358772416,0.1016240955083818
6.323664000000001,4.429290341063902,0.1005796461860902
6.328256,4.437833031422361,0.0996051003509962
6.332844,4.4489518404096176,0.0986124730303224
6.337428000000001,4.455739803321408,0.0977186886840992
6.342016000000001,4.4631828312525545,0.0968376581231446
6.346612,4.470914370060621,0.096010500862445
6.3512,4.475458866669161,0.0952623725582797
6.3558,4.480780613011204,0.0945235781552563
6.360392000000001,4.48573580521081,0.0938219129598058
6.364967999999999,4.495310354362801,0.0930677239417963
6.36956,4.502719480477059,0.0923620258942454
6.374148,4.51000642187717,0.0916624766780614
6.378736,4.512185267468315,0.0910644621901167
6.383331999999999,4.513997558917022,0.0904965896008572
6.387919999999999,4.514910415918082,0.08993774467702
6.392507999999999,4.517377772386147,0.0893865995902435
6.3971,4.518945694406564,0.0888415880790536
6.401688,4.524111354217571,0.0882648605553947
6.406295999999999,4.527233775704992,0.0877289222084487
6.410895999999999,4.532277250801854,0.0871714145660593
6.4155,4.532334814803893,0.0866952205502421
6.4200800000000005,4.536478855453107,0.0861448782614829
6.424671999999999,4.539234722798091,0.0856452430583177
6.429252,4.547753750971397,0.0850665162402321
6.433852,4.554351725535264,0.0845120696546993
6.438435999999999,4.558129212042041,0.0839918885177531
6.443035999999999,4.564727186605907,0.0834428169526173
6.447620000000001,4.569159738132041,0.0829422610379613
6.452216,4.573836659086465,0.0824251464569538
6.456811999999999,4.575570907269656,0.0819520577797671
6.461396000000001,4.58306831628117,0.0814138576089545
6.465987999999999,4.598127755016304,0.0808036539599
6.47058,4.615885497094382,0.0801755282539679
6.475168,4.635442108067755,0.0795362211572597
6.479756,4.660028771584578,0.0788988212404426
6.484344,4.684248880958965,0.0782980821855244
6.488936000000001,4.712599608429153,0.07770055401604
6.493528,4.734942805642726,0.0771831460474948
6.498108,4.759084871751595,0.0766592759009827
6.502700000000001,4.783637633451528,0.0761773420666887
6.50728,4.813831371265641,0.0756496293859045
6.511864000000001,4.8470119232996165,0.075156165171509
6.5164480000000005,4.881991344228887,0.0746564892161802
6.5210360000000005,4.918769634053454,0.0741565784360957
6.525644,4.963887203335143,0.0736067226733836
6.530232,5.01296906454986,0.0730186461097977
6.53482,5.062705990783933,0.0724571835641665
6.539424,5.114119601199157,0.0719014875768976
6.544008,5.167087711081386,0.0713663446816714
6.548612,5.219933636249469,0.0708430017138455
6.5532,5.271880126969903,0.0703407668935518
6.557792000000001,5.317041837700221,0.0699109205416266
6.562384,5.362081363716392,0.0694940182123635
6.566980000000001,5.408386878322648,0.0690554718137299
6.571568000000001,5.447619102061867,0.0686412964506602
6.576164,5.483742326867077,0.0682105716414842
6.580756000000001,5.517533802471781,0.0677700384391728
6.585352,5.560397665818481,0.0672375143519625
6.589944000000001,5.59966379137459,0.0667211523532603
6.59454,5.631856626063661,0.06622236830201
6.599136,5.661228972695643,0.0657488927725056
6.603728,5.684671832336527,0.0652748903080579
6.608328,5.706804561938698,0.0647791593287927
6.612924,5.72636117291207,0.0642895516604452
6.617512,5.738722308304261,0.0638290372117089
6.622104,5.746341902029922,0.0633989580313027
6.626692,5.751507561840928,0.062963916381595
6.63128,5.753319853289635,0.0625234164074063
6.635868,5.750634972500103,0.0620953739458518
6.640452,5.751381503338388,0.0616176992547908
6.645044,5.744566004453056,0.0611785621624847
6.649632,5.737095440548363,0.0607241771067571
6.654228,5.728070377176668,0.0602584908601057
6.658816,5.7153253913002375,0.0598078326498605
6.663404,5.704623643747392,0.0593350839328398
6.6679960000000005,5.693799711480402,0.0588668225521375
6.6725840000000005,5.682320714194054,0.0583838603418158
6.6771720000000006,5.662135883308149,0.0579535461578569
6.681768,5.643872106031684,0.0575104132242858
6.686363999999999,5.629861131565168,0.0570714155593263
6.6909600000000005,5.616993960974591,0.0566171523025975
6.6955480000000005,5.608746147336399,0.0561472430899868
6.700156,5.598332910660474,0.0557012191382138
6.704739999999999,5.586775870108609,0.0552706680510614
6.709344,5.5729312218048666,0.0548701218517619
6.713924,5.562273615700648,0.0544343873796411
6.71852,5.550350021006346,0.0540216201880799
6.723108,5.54022529520734,0.0536052169043279
6.727712,5.530100569408334,0.0531859926753831
6.732304000000001,5.515522812819716,0.0528243867511169
6.7369,5.505564413183486,0.0524479105017773
6.741492000000001,5.494340024957169,0.0520922112393135
6.746084,5.484792320912003,0.0517423940366964
6.750680000000001,5.477820735495633,0.0513974598226959
6.755264,5.471259845670329,0.0510820773711785
6.759852,5.465354020864382,0.050779954841068
6.764436,5.460636141383002,0.0505152801968175
6.769024,5.462458672463447,0.0502314599448689
6.773624,5.465058453277396,0.049955821276752
6.778212,5.467125353786134,0.0496573476068332
6.7828040000000005,5.464450712628341,0.0493757629369654
6.787395999999999,5.45666797566158,0.0491334076817358
