Time,Force,Position
4.859612,2.9319858701829427,0.1524255669928026
4.864212,3.0856644839616263,0.1516839978352369
4.868792000000001,3.233691881994393,0.1508772587468189
4.873388,3.3787222261755576,0.1499384440858747
4.877972,3.5149923556767964,0.1489534099737131
4.882564,3.63968178244102,0.1482119418963867
4.887152,3.757654232848904,0.1473738677985183
4.891744000000001,3.8680102724528016,0.1465191710368412
4.896332000000001,3.9675628590531855,0.1457869529808864
4.900924,4.052836439573612,0.1452351117781188
4.905512,4.127795305947108,0.1446884843795756
4.910096000000001,4.185654678183556,0.1443790457402239
4.914683999999999,4.232299901825426,0.1440841234058761
4.937628,4.288204318635543,0.1439953149141543
4.942204,4.286239123577474,0.143980178357727
4.9468,4.289215698165598,0.1437453494188588
4.951388,4.29419136962868,0.1433759469133492
4.955992,4.300144518804929,0.1429026585730335
4.96058,4.303721777332043,0.142387026451335
4.965168,4.295850757468027,0.1421054788611735
4.969760000000001,4.28907940003132,0.1417105336885551
4.97434,4.281242281984193,0.1412789448861006
4.978932,4.270418349717202,0.1408609915646249
4.98352,4.257262668249706,0.1404625503751701
4.98812,4.239199118952905,0.140126762481768
4.992708,4.224566981283921,0.1396574830314362
4.997312000000001,4.208502528862078,0.1391864810015785
5.001900000000001,4.194070619172757,0.1386182401841379
5.006500000000001,4.182947936397108,0.1379296861113368
5.011092,4.175134480535132,0.1371212930129216
5.015688000000001,4.172551305196267,0.1361369554227194
5.020264000000001,4.16559314233331,0.1352259862449914
5.024856,4.1587571641844985,0.1342994170340268
5.029456,4.156418358273927,0.1332778630763052
5.034048,4.152935748487415,0.1323002380079285
5.038636,4.146021727073086,0.1314587356268594
5.043224,4.136942282621024,0.1306875637717464
5.047812,4.130316772083615,0.1298893416897573
5.052404000000001,4.1238575877089785,0.1291466399780722
5.056992000000001,4.119607967820704,0.1283883687114493
5.061588,4.111926936304611,0.1277562484947381
5.066172,4.105556034827232,0.127138680718589
5.070748,4.102171947569715,0.1265137456555244
5.075332,4.096866806702757,0.125934335323975
5.079928000000001,4.099900945292921,0.1251736003868979
5.084516000000001,4.102446345026503,0.1244685718956363
5.0891280000000005,4.103847940884145,0.1237991017953727
5.093716000000001,4.107459101228148,0.1231288039095235
5.098304000000001,4.10829391496369,0.1225959454135762
5.102888,4.105452947643124,0.1222114191742948
5.107472,4.102001056751828,0.1218887624302933
5.112076,4.103701403118129,0.1214903425457706
5.116668000000001,4.106956248951434,0.1210853075979365
5.12126,4.109966725356448,0.1207100195803379
5.12584,4.115308950961968,0.1203265369042568
5.130436,4.121550611015135,0.1199298006091613
5.135016,4.130612759125393,0.1194755585773646
5.139616,4.137998223054501,0.1190438580465793
5.144204,4.144362067821814,0.1186383455262903
5.1488,4.158654496455185,0.1180473007577512
5.153392,4.179487335650381,0.117334039344328
5.157984000000001,4.197499686788489,0.1166767355085412
5.162584000000001,4.21179211542186,0.1160902770089603
5.167176,4.228660662684028,0.1154734084149981
5.171764,4.237722810794286,0.1150333478225189
5.176356,4.244863905295102,0.1146345585009328
5.180936000000001,4.261243713700687,0.1140807729907635
5.18552,4.279011695410503,0.1134758952830957
5.190104,4.294570112633958,0.1128611695604247
5.1946840000000005,4.311394518447499,0.1121928026467206
5.199272000000001,4.332305400908214,0.1114362036263383
5.203856,4.35256121834957,0.110675145818424
5.208444,4.373061405219221,0.1099001183162089
5.21304,4.392906527069513,0.1091262143125617
5.217628,4.41209658390045,0.1083516237432172
5.222232,4.431531010159676,0.1075632066346698
5.22682,4.451742686152406,0.1067837205494685
5.231408,4.471954362145136,0.1060084830179519
5.236000000000001,4.494453645889744,0.1051690499230504
5.24058,4.512988637701324,0.1044265124920361
5.245172,4.528703141455814,0.1037393905362156
5.249752000000001,4.548381937143332,0.1029807875752302
5.254348,4.571369959744523,0.1021389168027238
5.258928000000001,4.594602351774005,0.1012848690728844
5.263528000000001,4.625641142955398,0.100299430386342
5.268108,4.658845357174524,0.0992667776716456
5.272704000000001,4.68371029193653,0.0983636374525911
5.277308,4.707309238108449,0.0975127331040672
5.281892000000001,4.736549160394546,0.0965906602825828
5.286488,4.768731755451879,0.095627845365381
5.291080000000001,4.79617280884268,0.0947449145548628
5.29566,4.827333784738219,0.0938311743742003
5.300252,4.85927201036726,0.0929314201043108
5.30484,4.889289182386859,0.0920642506771915
5.309424,4.918406919958811,0.0912122790505093
5.3140160000000005,4.945603603921323,0.0903916038551704
5.3186,4.971245788416828,0.0895757772306743
5.323188,4.996887972912335,0.088764144428481
5.327764,5.021630722960194,0.0879674854431916
5.332348,5.044452419398611,0.0871985423528111
5.336944000000001,5.06661905081767,0.0864235201215299
5.341532000000001,5.087641878360791,0.0856830120096262
5.346132000000001,5.108420336475621,0.0849687812896719
5.350716,5.126256121819216,0.0842951992914932
5.355304,5.140127615229782,0.0836843123599063
5.359908000000001,5.155553608107354,0.0830861396087071
5.364496000000001,5.173022839308513,0.0824572945798146
5.369088,5.188693201614376,0.081842735072956
5.373664,5.201176521720711,0.0812883826680838
5.378264,5.2126382226652535,0.0807544667936719
5.38284,5.224877173343298,0.0802241798036476
5.387444,5.231597332621311,0.0797408107416154
5.392036000000001,5.2365186230040255,0.0792715272376517
5.396632,5.246059270339127,0.078770948182942
5.401224000000001,5.259442024893112,0.0782386571899894
5.405816,5.276544701951833,0.0776822577442465
5.410416,5.295324063191704,0.0771295362292785
5.415008,5.315002858879223,0.0765756561002544
5.419604,5.334437285138449,0.0760411709734462
5.424196,5.356692199454766,0.0754877102741257
5.428784,5.381767601828172,0.0749201499045113
5.433372,5.406187939182221,0.0743445711479364
5.437948,5.430486091822125,0.0737819436936121
5.4425360000000005,5.458259797538474,0.073212225464292
5.44712,5.48615568796897,0.0726370198021222
5.451700000000001,5.51057602532302,0.072074741469897
5.456284,5.532830939639336,0.0715450616392415
5.460868,5.555330223383945,0.0709997149639232
5.465456,5.579095495718637,0.0704294984288986
5.470064000000001,5.603882387215124,0.0698540898252536
5.474640000000001,5.630712517035197,0.0692605534208546
5.479232,5.65921933103642,0.0686682450209128
5.483824,5.686582341161705,0.0680965203424154
5.488412,5.708060005744519,0.0675814390866302
5.493008,5.722752890337216,0.0671246048759114
5.497604000000001,5.729639375778002,0.0667327419462216
5.502196,5.734604807609347,0.0663573117387233
5.506784,5.739692424154836,0.0659763504589054
5.511380000000001,5.746945463738061,0.0655685000859892
5.515956000000001,5.7534212535877804,0.0651590770617993
5.520556000000001,5.754011697895032,0.0647978852246421
5.525148,5.752558903878696,0.064456795843398
5.529732000000001,5.750206675414711,0.0641190471197036
5.534320000000001,5.747443751359662,0.0637550879904205
5.538916,5.745702446466407,0.0633819775598744
5.543516,5.74510494544909,0.0629912734965972
5.548112,5.749371170812449,0.0625676463142106
5.552704,5.7572351339664,0.0621379223355809
5.557296000000001,5.764976912406205,0.0617183747821471
5.56188,5.770675452522424,0.0613200527031959
5.566464,5.77330913515326,0.0609509881548128
5.571052,5.776964436945893,0.060573852282318
5.5756440000000005,5.782907346490402,0.0601645603158259
5.580236000000001,5.791137863786791,0.0597217294726379
5.584823999999999,5.803332673016207,0.0592495845015903
5.589416,5.826398738882915,0.0587028423419607
5.593992,5.850608608625563,0.0581431609827854
5.59858,5.87175362088283,0.057611203838395
5.603187999999999,5.88779053733113,0.0571241230104177
5.607772000000001,5.900762596294047,0.0566638599871066
5.6123840000000005,5.917576762475849,0.0561830697073758
5.616968,5.939254655038327,0.055676878965796
5.621568,5.958234244257862,0.0551735198206918
5.6261600000000005,5.975170595153809,0.0546897666758756
5.6307480000000005,5.990063707726169,0.0542245668695388
5.635339999999999,6.004712450870238,0.0537760611203768
5.639932,6.013720217900128,0.0533491459767507
5.644532,6.018763692996989,0.0529494483012789
5.649112000000001,6.02188611448441,0.0525591966283353
5.653708,6.024109101524182,0.0521695655988577
5.658296,6.023878154649304,0.0517651133075583
5.6629000000000005,6.020826719717335,0.0513695858310155
5.6674880000000005,6.013688808138192,0.0510042188497628
5.6720880000000005,6.00540709268311,0.0506531167969679
5.676680000000001,5.993283270009145,0.0503169366722918
5.681272,5.970410375412034,0.0500347576855346
5.685872,5.945616427205481,0.0497587335347432
5.690464,5.923765151770164,0.049466349488293
5.695068000000001,5.902036061048992,0.0491638991369729
5.699664,5.877608666984877,0.048858395526367
5.704252,5.845374873768851,0.0485880769953941
5.708848,5.804190877524974,0.0483685097876197
