Time,Force,Position
5.423115999999999,2.341803104528968,0.1806753209188044
5.427703999999999,2.473963095197882,0.1784973565403592
5.432295999999999,2.596463436739222,0.1767227022096755
5.436888,2.7147007358388757,0.175100262787733
5.441476,2.8269983083156927,0.1735010258062059
5.446064,2.934866512188049,0.1716081940343064
5.450643999999999,3.034873935828127,0.1699517759674531
5.455231999999999,3.1261211447882795,0.1684338723626495
5.459823999999999,3.210773562106238,0.1669516524852992
5.464407999999999,3.286010699724914,0.1655006174390103
5.469011999999999,3.353631426539604,0.1640762199835932
5.473604,3.4137579272644527,0.1626513838408262
5.47818,3.469455059384841,0.1610411168515052
5.482775999999999,3.512549869606421,0.1596590622990008
5.487352,3.544230303253758,0.1584982546810916
5.491952,3.571203097051455,0.1573570820609471
5.496544,3.599519922704754,0.1560778915133206
5.501144,3.628980552233992,0.1547738586312111
5.505732,3.6557428784202872,0.1535611605705615
5.510328,3.681072889853724,0.1523711048532216
5.514911999999999,3.7029273482107135,0.1512882764234221
5.519504,3.7228166115096335,0.1502161712191195
5.524099999999999,3.74397186339864,0.1490732799040448
5.528692,3.7598526933159047,0.1480853417221356
5.533275999999999,3.7761000773756055,0.1470723501375831
5.537868,3.7914480269876583,0.1460922364796817
5.542447999999999,3.804997107704416,0.1451688732594621
5.547039999999999,3.818546188421174,0.1442471199090967
5.55162,3.8264542930237537,0.1434948172557268
5.556211999999999,3.8371828856834234,0.1426588528873399
5.560803999999999,3.848688728076593,0.1418255488782317
5.565387999999999,3.861626885222623,0.141003705599919
5.569972,3.874565042368652,0.1401979336876236
5.574551999999999,3.893388545057151,0.1392227369183882
5.579136,3.914133101355092,0.1381884614530738
5.583732,3.9337338537770927,0.1372008939875579
5.58832,3.9455282070471833,0.1364500598379047
5.59292,3.953602637812536,0.1358016327262726
5.597515999999999,3.9657635452250632,0.1350271524551131
5.6021,3.975881214314004,0.1343170161673733
5.606696,3.983955645079357,0.1336676633406512
5.611272,3.989864652806977,0.1331006228573148
5.615876,3.993608237496865,0.1326116741911279
5.6204519999999984,3.995552953291457,0.132158939632498
5.625048,3.9943106268865223,0.1318217234370157
5.629636,3.995766603824532,0.1314286901196353
5.634236,3.997222580762541,0.1310363401374461
5.638815999999999,3.9998223615764896,0.1306002105723736
5.643407999999999,4.009084737666409,0.1299951085419124
5.647995999999999,4.0193687329181245,0.129366394247674
5.652591999999999,4.02707660954104,0.1287838326049947
5.657179999999999,4.028610629744567,0.1283148713044116
5.661764,4.024381489119769,0.1279918586155109
5.66634,4.01516643740015,0.1278094373140842
5.670928,4.006973004842324,0.1275957663633675
5.675512,4.000289930302875,0.1273002526755015
5.680111999999999,3.998714951572393,0.1268523096283297
5.684704,3.995341103946615,0.1264361558530595
5.689288,3.986081910778368,0.1261757585456483
5.693883999999999,3.980787009543148,0.1258070397360805
5.698459999999999,3.979334215526812,0.1253422741113539
5.70304,3.9790252253864153,0.1248340584400464
5.707635999999999,3.984068700483277,0.1241542900038593
5.712216,3.995896955570256,0.1233121999588668
5.716804,4.004371842294936,0.1224993603737793
5.721395999999999,4.007450122333728,0.121790290189937
5.725983999999999,4.010772771800812,0.1210576310073051
5.73058,4.014217605982042,0.1203181989403797
5.735156,4.010100410439651,0.1197459065050756
5.739756,4.001486042659021,0.119251811044252
5.744332,3.990706251840659,0.1188242689238181
5.748935999999999,3.984545817974681,0.1183011191171772
5.753515999999999,3.9849257946705294,0.1176394218155782
5.758111999999999,3.984406336918731,0.116989746270116
5.762703999999999,3.982865260005138,0.1163711149253533
5.767296,3.984799736167992,0.1157102503106936
5.771896,3.9875114620643473,0.1150533146905929
5.776487999999999,3.994720360198941,0.1143215037435994
5.781067999999999,4.006792984714212,0.113478545905804
5.785651999999999,4.016045121172395,0.1126983060897125
5.790232,4.025052888202285,0.1119486930368647
5.794824,4.034060655232175,0.1112020470817733
5.799403999999999,4.038493206758308,0.1106139239704883
5.803996,4.039738716084916,0.1101223447160329
5.808591999999999,4.0492013201544985,0.1095005541277283
5.813179999999999,4.063038911748175,0.1088258009431327
5.817772,4.080474241132445,0.1081125084819349
5.82236,4.097787385802568,0.1074197171677446
5.826948,4.1206193218727245,0.1066386690490119
5.831539999999999,4.147826245466973,0.1058091395031202
5.836127999999999,4.179119645708396,0.104881568479911
5.840739999999999,4.210413045949819,0.1039666082342404
5.845315999999999,4.236964904524712,0.1031423199531615
5.849903999999999,4.267358870318488,0.1022511215513054
5.8545,4.298774455274057,0.101344789576576
5.859091999999999,4.324426879401303,0.1005526048270209
5.863683999999999,4.348158249919106,0.0998032686667678
5.868264,4.374055043474643,0.0990177767628735
5.872859999999999,4.396764794830653,0.098313891881081
5.87744,4.423849533710756,0.097579033092787
5.88204,4.449379773123855,0.0968463349069841
5.886623999999999,4.474910012536954,0.0961186225397567
5.891216,4.501051175520781,0.0953347590421678
5.895804,4.52719233850461,0.0945586897468326
5.900395999999999,4.552800621183227,0.0937825053222744
5.904999999999999,4.574811166071252,0.0930468199087711
5.909595999999999,4.590036930969161,0.0924218119255051
5.914183999999999,4.603341642257627,0.0918278134486597
5.918768,4.614969669364943,0.0912461448402625
5.923356,4.625043197005255,0.0906661968063651
5.92794,4.63499453993142,0.0901017569254503
5.932532,4.645845317305235,0.0895352311288794
5.937107999999999,4.66258144022152,0.0888857413298882
5.941692,4.681238616747245,0.0882237987964553
5.946271999999999,4.6989963588253225,0.0875742476345427
5.950863999999999,4.718675154512841,0.0868984298600718
5.955459999999999,4.739375569362154,0.0862099125559277
5.960047999999999,4.754312823383143,0.0856009846126716
5.964656,4.772559304317802,0.0849261390023236
5.969244,4.78667516715666,0.084264744145473
5.973847999999999,4.8046331372144016,0.083564320872736
5.978439999999999,4.824389976167438,0.082857224164124
5.983027999999999,4.845823499301623,0.0821508415914229
5.987632,4.866357587988162,0.0814546150024044
5.992232,4.8837046344751744,0.0808226780774565
5.996827999999999,4.905793222628716,0.0801471278388313
6.001412,4.930946668267639,0.0794231682909233
6.006015999999999,4.959042786677798,0.0786687758555588
6.010596,4.988160524249751,0.077906143211697
6.015187999999998,5.019976565164646,0.0771379444716494
6.019772,5.052692040527189,0.0763741418356169
6.024372,5.082587027832643,0.075640566521588
6.028963999999998,5.106352300167335,0.0749972242573246
6.033555999999999,5.123577161940202,0.0744107875949458
6.038148,5.14439976150366,0.0738128551314785
6.0427399999999984,5.165222361067118,0.0732169206635615
6.047336,5.185145526182928,0.0726297347567693
6.051927999999998,5.206867560194034,0.0720330342880285
6.056515999999999,5.228467409490994,0.0714544424491241
6.061107999999999,5.249578519931372,0.0709111940060277
6.0657,5.266480969010431,0.0704321132567507
6.070295999999999,5.282483983641841,0.0699621885170036
6.074879999999999,5.30130748633034,0.0694795975368301
6.079476,5.321274792894779,0.068979911179255
6.084067999999999,5.340220480297424,0.0684926076497413
6.088655999999999,5.357122929376482,0.0680352281212918
6.093252,5.375824247350836,0.0675749885982646
6.097828,5.38941746951622,0.0671732136267819
6.102416,5.402766322253315,0.0667911777697096
6.106999999999999,5.412273067771528,0.066441131722125
6.111587999999999,5.419858759680298,0.0661076244572951
6.116195999999999,5.429243320484364,0.0657689301175499
6.120783999999999,5.442059292916248,0.0653730820743641
6.125371999999999,5.458717372567015,0.0649497282930129
6.129968,5.469856660817747,0.0645544468762168
6.134559999999999,5.484960241001509,0.0641291638202361
6.139156,5.501862690080566,0.0637021551486165
6.143735999999999,5.517865704711976,0.0632782430281876
6.148323999999999,5.531581111591507,0.0628936112613803
6.152911999999999,5.548239191242274,0.0624878956841346
6.157511999999999,5.570005366702008,0.0620353391071193
6.162103999999999,5.588828869390508,0.0616060174511608
6.166699999999999,5.602788645698331,0.0612148591609175
6.171291999999999,5.616626237292008,0.0608346902285313
6.175884,5.634428120818713,0.0604262438723476
6.180484,5.651574939326062,0.0600071096443593
6.185067999999999,5.668066692814056,0.0595793095688756
6.189655999999999,5.688889292377513,0.0590987454827609
6.194251999999999,5.708035207759821,0.0586159181436421
6.198832,5.731145415075157,0.0581081626780291
6.203424,5.755399426266432,0.0575871790483265
6.208012,5.77707731882891,0.0570644286571741
6.212603999999999,5.797611407515449,0.0565619690715272
6.217196,5.815202823430753,0.056079719018965
6.221788,5.832016989612555,0.0555889240546423
6.226376,5.841146941356591,0.05513934111738
6.230964,5.847700774471829,0.054687780922471
6.235555999999999,5.854621161729505,0.0542137764665435
6.240143999999999,5.858432550053171,0.0537115135841826
6.244731999999999,5.856725146976803,0.0532212720486882
6.249324,5.844390856691437,0.0527831281572766
6.253912,5.834221989443802,0.0523192672513639
6.258515999999998,5.822498622729165,0.0518387602088262
6.263107999999999,5.803335411005053,0.051374121671427
