Time,Force,Position
8.05242,2.1613979043569698,0.1843611027462916
8.056947999999998,2.257617601858532,0.1816875389608959
8.061475999999999,2.3517838214047684,0.1787981184290489
8.066016,2.442386204977302,0.1761885909647803
8.070559999999999,2.5252941344803324,0.1740874502177384
8.075092,2.5983421868761254,0.1725921210762797
8.079619999999998,2.664228665507625,0.1714023422718001
8.084159999999999,2.7188670937276576,0.17078102088094
8.088683999999999,2.7690422515263395,0.1702122321962314
8.093215999999998,2.815164834494737,0.1697236203091355
8.097752,2.8604660262810047,0.1691448130035603
8.102295999999999,2.895584928266227,0.1689443565785988
8.106836,2.9316813079646127,0.1685816008008917
8.111363999999998,2.968266426519582,0.1681731322091796
8.115903999999999,3.00628385982741,0.167794664305418
8.120427999999999,3.0478209876603115,0.1673933331529891
8.12496,3.102116523923058,0.1666336649612474
8.129484,3.164595253111891,0.1657991557204873
8.134035999999998,3.2389770977315475,0.1647364083043534
8.13858,3.313613551411234,0.1639500223271754
8.143108,3.39553376356936,0.1631248321632085
8.147644,3.478153182195471,0.1624214588882718
8.152171999999998,3.567357152832036,0.1616481092001418
8.156711999999999,3.6579934382214594,0.1609068135373363
8.161247999999999,3.754437025887836,0.1600874550210181
8.16578,3.8566879158311647,0.1591690355892211
8.170312,3.961270554974999,0.158242229208079
8.174855999999998,4.072393604680661,0.1571529159933127
8.179388,4.183927349977386,0.1561460330404473
8.183912,4.293662226378817,0.155219251859644
8.188443999999999,4.404008026350977,0.1542493614535526
8.192967999999999,4.523792768207568,0.1529593700286901
8.197496,4.642633934167884,0.1516623564078258
8.202027999999999,4.757055971155478,0.150439518986267
8.206584,4.866037260008559,0.1493235937731306
8.21112,4.9735420926601535,0.1481752916030944
8.215644,5.070453939919637,0.1472444570453352
8.220175999999999,5.161758712881831,0.1463631135373058
8.224699999999999,5.242714869880205,0.145625784300159
8.229223999999999,5.320351560333167,0.1448069660322998
8.233763999999999,5.388661253984104,0.1440823173421759
8.23832,5.452141123071255,0.1433552657065973
8.242859999999999,5.50232970342335,0.1428270327893245
8.247399999999999,5.546666840049864,0.1423281735987805
8.251931999999998,5.578856491817265,0.1419742124008256
8.256455999999998,5.6028629506585785,0.1416666890748639
8.260988,5.619830020449743,0.1413635019084194
8.265516,5.623872355648291,0.1412028000968682
8.270071999999999,5.619853682634895,0.1410694571263517
8.274612,5.607774001409561,0.1409635130078103
8.292727999999999,5.478156227552565,0.1408702919114889
8.29726,5.433133307011476,0.1407814058494554
8.301815999999999,5.3832805619066,0.1406732924895074
8.306351999999999,5.330152491704943,0.1405389730197961
8.310875999999999,5.270562054206976,0.1404639785138591
8.31542,5.209372975793377,0.140342641477624
8.319944,5.145441452588206,0.1402064806846935
8.324471999999998,5.082853961238637,0.1399493456644605
8.329004,5.020344513154588,0.1396144729626287
8.333559999999999,4.957135858602553,0.1392163127747047
8.338095999999998,4.888119901773566,0.138890142213085
8.342619999999998,4.823679160448333,0.1383996149885134
8.347152,4.760748777141478,0.1378211142428337
8.351676,4.700516697177567,0.1371782081948724
8.3562,4.645925593327834,0.1364018588821447
8.360731999999999,4.591334489478103,0.1356143722776215
8.365279999999998,4.541118373152464,0.1347414253730242
8.369827999999998,4.491723648008955,0.1339113274572347
8.374351999999998,4.443272498761723,0.1331172928146932
8.378884,4.4017724556673805,0.1321965749403315
8.383408,4.363792107098114,0.1312741683379632
8.387932,4.322302303635514,0.1305368162611998
8.392456,4.284454379412132,0.1297851962260251
8.396999999999998,4.25024833442797,0.1290220944184564
8.401544,4.220827972558968,0.1282085842591457
8.406071999999998,4.196603989396188,0.1273778500083722
8.410608,4.175655331330192,0.1265751808469232
8.415132,4.158637063380335,0.1258129374527932
8.419656,4.142728697489527,0.1251517381008153
8.42418,4.137046762848393,0.1244200842896699
8.428707999999999,4.1454333666758165,0.1235323905187102
8.433247999999999,4.158161056210444,0.1227328494200497
8.437776,4.170366105071599,0.1221234737167384
8.442307999999999,4.184702675153598,0.1215979291495209
8.446836,4.201948016189943,0.1211545136381779
8.45136,4.227865289008956,0.1206645425139965
8.455884,4.259511820839404,0.120202462632025
8.460408,4.298275784985518,0.1197095528053389
8.464948,4.3468554847902405,0.1191393460747985
8.469499999999998,4.394746217758717,0.1187197299889988
8.474044,4.447422633842353,0.1182843917719006
8.478575999999999,4.514123446945917,0.1176722739217667
8.483103999999999,4.583444520126908,0.1171112410979083
8.487632,4.65526366867118,0.116600447903264
8.492156,4.733545184511758,0.1160720982927446
8.496683999999998,4.814935699286346,0.1155551052600005
8.501235999999999,4.903932385233182,0.1149863322454752
8.50578,4.99117434373335,0.114504411180053
8.510307999999998,5.083690724205261,0.1139672455108689
8.51484,5.176084919963024,0.1134714199612859
8.519364,5.266924616253784,0.1130152800216548
8.5239,5.358130866686981,0.1125484958440879
8.528428,5.456977190109316,0.1119114107340577
8.532979999999998,5.555412817940587,0.1112555474012004
8.537524,5.651394511857204,0.1106177912192546
8.542051999999998,5.74516664128746,0.1099973028116853
8.546584,5.83517470676435,0.1093867897395115
8.551108,5.91961983939258,0.108808344421181
8.555632,5.997846974152792,0.1082543567453415
8.560163999999999,6.070755545492635,0.1076962781307318
8.564703999999999,6.137201749536169,0.1071716159854688
8.569247999999998,6.190889545149859,0.1067487433736199
8.573832,6.2381149734672405,0.1063504000821208
8.578415999999999,6.28038839250669,0.1059248109019964
8.583008,6.314644944782826,0.105531606299545
8.587596,6.344848922228677,0.1051102388313516
8.592187999999998,6.363682664548915,0.1047327932285019
8.596775999999998,6.378830386181305,0.1042919045793371
8.601363999999998,6.387227229640468,0.1038424364917665
8.605967999999999,6.386707771888669,0.1034219600140832
8.610555999999999,6.37612820904997,0.1030525797571731
8.615148,6.357409594733812,0.1027084654303685
8.619727999999999,6.327487071454814,0.1024347801730293
8.624308,6.290202746431859,0.1021832774837484
8.628912,6.249765281026268,0.1018810215060847
8.633503999999999,6.202987633038514,0.1015819366950681
8.638107999999999,6.150647052202099,0.1012863232204083
8.642684,6.093642972964672,0.1009846401747364
8.647283999999999,6.030953776164438,0.1006918966511652
8.651876,5.968997687649077,0.100343938188236
8.656476,5.9056092843808585,0.0999816148680173
8.661064,5.843731239131015,0.0995624909623625
8.665664,5.780665248556605,0.0991114285080276
8.670247999999999,5.716822008248691,0.0986518305835937
8.67484,5.648237226274247,0.098244880866887
8.679447999999999,5.5725011101672495,0.0979503910827779
8.684043999999998,5.4976644285079,0.0976397660097914
8.688643999999998,5.425526050191494,0.0972916495001988
8.693235999999999,5.351877313856711,0.0969879488494681
8.697816,5.277862023379492,0.0967072907792098
8.702399999999999,5.20809953571222,0.0963958414807411
8.70698,5.137848309188365,0.0961182704315517
8.71158,5.0713611466178765,0.0958492598010894
8.716168,5.012602339933781,0.0955243423865862
8.720759999999999,4.956463793327111,0.0952326007895753
8.725356,4.904744375693162,0.0949597713070614
8.729944,4.858587890907875,0.0946795178636862
8.734535999999999,4.819548838438253,0.0943943225277247
8.739116,4.788526652731945,0.0940971443107189
8.743696,4.762945215160152,0.0938045816906007
8.748296,4.742027275989372,0.0935175510889622
8.752871999999998,4.725528465791314,0.0932555994328327
8.757459999999998,4.717945956804216,0.0929814021863537
8.762056,4.71760306484693,0.0927031416508098
8.766651999999999,4.727686832118981,0.0923595100605428
8.771247999999998,4.749585431924599,0.0919060615189801
8.775827999999999,4.780522517655323,0.0914400127437064
8.780432,4.814857113196977,0.0910270320912384
8.785011999999998,4.860762171843907,0.0905380903576796
8.789611999999998,4.918115508881968,0.0899816053182884
8.794199999999998,4.978333475425746,0.0894568057429014
8.798803999999999,5.047301417017711,0.0888805662396086
8.803396,5.122565399743211,0.0882667679173344
8.807991999999999,5.198362262773921,0.087687453880725
8.812579999999999,5.278534113328727,0.0870939449235366
8.817163999999998,5.360504832778826,0.0864948820676187
8.82176,5.449793212524256,0.0858587737191557
8.826343999999999,5.539981026717332,0.0852307828044317
8.830924,5.633888763415144,0.0845910193684734
8.835507999999999,5.725875446503517,0.0839855517678103
8.840084,5.819783183201332,0.0833727935839088
8.844667999999999,5.912791485451496,0.0827754633870663
8.84926,6.003590223215301,0.0821821062895553
8.853843999999999,6.092956646226247,0.0815912360895458
8.858427999999998,6.1780702664272455,0.0810225651310041
8.863012,6.258686714390005,0.0804956342379679
8.867591999999998,6.333618044789957,0.0799789706133216
8.872191999999998,6.407483614579488,0.0794370128159877
8.876776,6.4712110360166,0.0789731053404362
8.881376,6.526843547424883,0.0785596203523827
8.885967999999998,6.5787119948798,0.0781273707174277
8.890555999999998,6.625794759219558,0.0776925608095513
8.895164,6.666048602120571,0.0772770674373437
8.899764,6.706013934144665,0.0768371986789688
8.904355999999998,6.74029414860595,0.0763956665276919
8.908935999999999,6.771465364133228,0.0759455197448803
8.913531999999998,6.7902888668217285,0.0755409129963207
8.918111999999999,6.804326686395068,0.0751271189487805
8.922707999999998,6.805117358681981,0.0747552778781423
8.927299999999999,6.800100728691942,0.074380384539167
8.931895999999998,6.791197850034394,0.0739907352116811
8.936475999999999,6.7754660499381,0.0736070030083148
8.941059999999998,6.75368257813656,0.0732327690296399
8.945651999999999,6.725969619343925,0.0728604067453701
8.950247999999998,6.698867584122016,0.0724519513660952
8.954835999999998,6.667512746090161,0.0720437270346437
8.95942,6.632437985553567,0.0716519622389572
8.964008,6.592866052778734,0.0712733285268445
8.968596,6.554926662736424,0.0708472370326229
8.97318,6.516454392388901,0.0704007399381745
8.977768,6.4788815564890285,0.0699472797253314
8.98236,6.439143297551422,0.0695165685249139
8.986947999999998,6.400304473061465,0.0690788782621158
8.991539999999999,6.3587673452285625,0.0686468125885868
8.996123999999998,6.318007467129163,0.0682143415290485
9.000711999999998,6.2776141431722,0.0677564026855393
9.005308,6.242617425901125,0.0672780355898375
9.009896,6.211340631134786,0.0667795900260619
9.014487999999998,6.190446354149156,0.0662211909780148
9.01908,6.17507086856356,0.0656375290561354
9.023668,6.155853275759078,0.065071948047869
9.02826,6.1432982782305725,0.0644648101375696
9.032836,6.1340966490643645,0.0638592160309421
9.037436,6.1313132457458375,0.0632309619919007
9.042027999999998,6.129062722732523,0.0626233759870459
9.04662,6.130409937509798,0.0620051522537141
9.051212,6.134455455630017,0.0613773906275159
9.055812,6.139278223483737,0.0607513033634085
9.060391999999998,6.140913949137932,0.0601557949359901
9.064988,6.143449109239774,0.0595569713646644
9.069572,6.145862084627471,0.0589644846593236
9.074164,6.154937655291139,0.0583412416864217
9.078752,6.16196998763122,0.0577329634771592
9.083344,6.16683689693357,0.0571468036980996
9.087924,6.176323163188304,0.0565505917176234
9.092512,6.18405470199637,0.0560039828696291
9.0971,6.188843568033204,0.0554757584867795
9.101692,6.190445391870511,0.0549812651715159
9.106284,6.18579531602291,0.0545432547605591
9.11086,6.180778686032871,0.0541275727843344
9.115452,6.182713162195725,0.0537167689931222
9.120036,6.18403671478785,0.0533424256908205
9.124624,6.184216463504034,0.0529825874750246
9.129224,6.178266497249458,0.0526694286440973
9.133807999999998,6.170928357690652,0.0523849423283678
9.138404,6.163101479275262,0.0521277852999689
9.142995999999998,6.155152416145729,0.0518765820463436
9.14758,6.147736233321405,0.0516441887201528
9.152188,6.144817222735321,0.0514075158413392
9.15678,6.144474330778034,0.0511764910407571
9.161383999999998,6.1465853727354,0.0509581290544615
