Time,Force,Position
7.737895999999999,2.2200409146010407,0.172435525808647
7.742495999999999,2.3272611101641063,0.1721075824375428
7.74708,2.429607339714756,0.1715954339717734
7.751676,2.533253459672381,0.170855386310468
7.765452,2.792560684808564,0.1704826228963555
7.770044,2.872834931680756,0.1702317952165123
7.774623999999999,2.947502104255659,0.1700750417210321
7.779216,3.015907137513916,0.1700243040332762
7.783804,3.078949465903176,0.170009688234777
7.788396,3.138794512461171,0.1698979866894934
7.792987999999999,3.196996776654905,0.1696561018111198
7.797563999999999,3.2517573895890832,0.169319281687588
7.802160000000001,3.3091280229689484,0.168735976202466
7.806748000000001,3.369275002957275,0.1679916410341883
7.811328,3.431465221269188,0.1671910928665705
7.815924000000001,3.4992964156952797,0.1662082990249548
7.820512000000001,3.57138041293132,0.1651396299273208
7.825108,3.6473506588348696,0.164045127943465
7.829700000000001,3.7265520883865744,0.1628916314068607
7.834300000000001,3.8080411256901576,0.1616436105954913
7.838896,3.892717205193267,0.1602916985986764
7.843484,3.966722256038748,0.159293766462433
7.848076000000001,4.048123010445075,0.1580117253212929
7.852656,4.129479623402774,0.1566498736378265
7.857248,4.21005898662697,0.1553440919522486
7.861828000000001,4.286507731755365,0.1541745604364906
7.866428000000001,4.363933954596924,0.1529353220618701
7.871016000000001,4.43837336321862,0.1517460717463637
7.875616000000001,4.5148118687152765,0.1504801418658338
7.880208,4.587364125544421,0.1492981141142036
7.884804000000001,4.6553750686866975,0.1481919889094103
7.889379999999999,4.725140739275642,0.1470059758579549
7.893976,4.789343477015925,0.1459292108370207
7.898572,4.849659966088699,0.1449280256806399
7.903164,4.902203957826451,0.1440123709941687
7.907752,4.948163397553749,0.1432065360115857
7.912348,4.989703708308324,0.142436656705551
7.91694,5.027846509251971,0.141675191121499
7.921528,5.063491234832337,0.1408950294091077
7.926119999999999,5.09447246201169,0.1401599425757989
7.930712,5.119768571628236,0.1394985734954373
7.935304,5.148862647015037,0.138690610845843
7.939883999999999,5.16728569374421,0.1380779922749485
7.944483999999999,5.18554241431061,0.1374221502785467
7.949064,5.196803887275489,0.1368171108218871
7.953656,5.207121784344092,0.136175559443236
7.958252,5.2143306824786855,0.1355634604147055
7.96284,5.217897701374061,0.1349548393284422
7.967435999999999,5.210671506897662,0.1345348573595387
7.972023999999999,5.20213518238255,0.1341041068162954
7.976611999999999,5.190367674219283,0.1337027027217023
7.981208,5.171893429331417,0.1333816394322818
7.985799999999999,5.153252858280776,0.1330115687062677
7.990396,5.128560615524892,0.1327255507278078
7.994984,5.105012176644948,0.1324010926559259
7.999584,5.081952476621585,0.1320327351867734
8.004172,5.055417223521777,0.1317125119028906
8.008768,5.025406417345523,0.1314388244047905
8.013356,4.993474557559828,0.1312028936590726
8.017956,4.963219381955283,0.1309439775170353
8.022548,4.928877729703564,0.1307912370831983
8.02714,4.890571785518817,0.1307275832955827
8.031724,4.855208514105303,0.1305979005732736
8.03632,4.815880950758762,0.130562363184794
8.050104,4.69900816277819,0.1305391706312273
8.0547,4.6637331742619335,0.1305157710863184
8.059288,4.633732607717418,0.1304107720493581
8.06388,4.601444433421024,0.1303816567673609
8.068468,4.5726318122010765,0.1302967113396954
8.073064,4.547827624362785,0.1301753843583449
8.077656,4.523189762687268,0.1301001493481679
8.082244,4.502804703821699,0.1299692441590468
8.086828,4.486305893623641,0.129813221344762
8.091416,4.471772278483652,0.1296758245876619
8.096008,4.463045965620616,0.1294737889255496
8.1006,4.458083716710945,0.1292607736117857
8.105188,4.45545321700178,0.129034558819651
8.109796,4.4533555975978265,0.1288266984333416
8.114384,4.465116049051027,0.1283615175952731
8.118988,4.479086064990589,0.1278920217963103
8.123576,4.4968201448835154,0.1274155648771213
8.128168,4.523182015110484,0.1268255415783177
8.13276,4.55600625263376,0.1261937848233185
8.137352,4.592838923538694,0.1255271712532164
8.141956,4.628161236425251,0.1249270932891425
8.146544,4.663894244902875,0.1243689389921599
8.151136,4.704779490638092,0.1237609868404338
8.155716,4.751716408078554,0.123076504107202
8.160316,4.798697466967645,0.122459245059172
8.164904,4.848376829199679,0.1218150071010066
8.169504,4.897445267860984,0.1212248712174502
8.174096,4.94986707488459,0.120610584855518
8.178688,5.000367828298754,0.1200426527612761
8.183276,5.050990766427064,0.1194727802512747
8.187872,5.100714270107726,0.1189276953948254
8.19246,5.151337208236036,0.1183786361795046
8.197052,5.2067016880308765,0.1177645497211321
8.20164,5.259367864482772,0.1171859390423167
8.206224,5.305249260944553,0.1167571386372429
8.210812,5.354972764625215,0.1162687721532503
8.215404,5.403386138267163,0.1157734504289189
8.219996,5.448812697689249,0.1152944330194694
8.224588,5.488187585406091,0.114883298245027
8.22918,5.528539950836098,0.114406245047956
8.233768,5.572323727893924,0.1138431503286207
8.23836,5.615041744341328,0.1132575332289439
8.242948,5.650031404902338,0.1127474341657593
8.247536,5.682034251243485,0.1122419344204038
8.252132,5.712438456668999,0.1116893116671125
8.25672,5.741654716769947,0.1111254610425007
8.261308,5.772337193440642,0.110462245454151
8.265896,5.798111802282032,0.1098270846862352
8.270484,5.821799031351208,0.1091778387851214
8.275076,5.844664869238253,0.10848560647793
8.279672,5.8663427618007296,0.1077747144079823
8.284264,5.884378775123988,0.1070543028383967
8.28884,5.891621575075472,0.1064453499726687
8.29344,5.904216840264216,0.1057349871235869
8.298028,5.912026422337799,0.1050348275342032
8.302628,5.915827571029727,0.1043504009853934
8.307212,5.920361828006528,0.1036202131099084
8.311804,5.919499478297443,0.1029406615794565
8.316396,5.919248052159085,0.1022183072095071
8.320992,5.913477834620695,0.1015537839225279
8.325596,5.904476433434151,0.1008979129012888
8.330188,5.891510740314579,0.1002980107208036
8.33478,5.879444481642654,0.0996857784429294
8.339372000000001,5.8636583004659935,0.0991113926492247
8.34396,5.846972684841683,0.0985420542455493
8.348548,5.824523908389049,0.0980438803909504
8.353136,5.798765905022742,0.0976084605280124
8.357732,5.776072759141817,0.0971216346530268
8.362324,5.756077916603835,0.0966093646151717
8.366916,5.734450531333331,0.0961522820171205
8.371512,5.711923711615181,0.095700101605644
8.3761,5.689807587488094,0.0952706621311877
8.380684,5.674231873922835,0.0947688499241414
8.385268,5.6516270109391655,0.0943672549513008
8.38986,5.6318426360125855,0.0939312312525529
8.394452,5.61361276055301,0.0934958646011277
8.399032,5.594527592094416,0.093117988423296
8.403619999999998,5.580839030321707,0.0926957997715473
8.408216000000001,5.568460598587712,0.0922920603236337
8.412795999999998,5.563155457720754,0.0918415539953115
8.417395999999998,5.559282631606656,0.0914012340772392
8.421984,5.556064870511912,0.0909675520585528
8.426584,5.553502174436527,0.090541975697275
8.43116,5.555314465885234,0.0900890807291906
8.43576,5.563178429039186,0.0896095622082593
8.440344000000001,5.576072444736588,0.089114051168688
8.444936,5.592319828796289,0.0886099253724929
8.449516000000001,5.605380170656463,0.0881602975413404
8.454108,5.618196143088346,0.0877305989114963
8.458696000000002,5.632688799701379,0.0872973087005418
8.463288,5.648491586353126,0.0868861932967729
8.467868000000001,5.668791545243112,0.0864480843538056
8.47246,5.689746569152455,0.0860251458820737
8.477044000000001,5.716220384461829,0.0855573881439965
8.48164,5.742083276200477,0.0851306702987746
8.486220000000001,5.764881310453744,0.0847466677576775
8.490799999999998,5.786902094973508,0.0843624936648587
8.495396000000001,5.805735837293746,0.0840304385900152
8.499972000000001,5.824447394899838,0.0837088327368004
8.504551999999999,5.83956121471534,0.0834141376621855
8.509151999999998,5.855330099550197,0.0831314923032874
8.513736,5.87710651464167,0.0827795319052627
8.518348000000001,5.904646090561467,0.0823771188406246
8.522936,5.936027773700147,0.0819464425916747
8.527524000000001,5.962912284600588,0.081548143948387
8.53212,5.9882422960340245,0.0811468956784905
8.53672,6.014716111343399,0.0807313204699223
8.541312,6.046708718052807,0.0802836170420879
8.545892,6.077801890314566,0.0798434097382608
8.550492,6.107218378395176,0.0794063686403316
8.555076000000001,6.136634866475787,0.0789719378465132
8.559676000000001,6.163597420641745,0.0785428947766462
8.564264,6.189660540360056,0.0781222316104909
8.568864,6.218011267830244,0.0776719995454964
8.573444,6.2514700911094,0.0771698070726117
8.57804,6.2900370101975245,0.0766147317217521
8.582628000000001,6.325783441228559,0.0760775885531478
8.587224,6.36471691445912,0.0755026962616888
8.591807999999999,6.404139126546262,0.0749046199196716
8.596404000000001,6.442539719471612,0.0743192887149129
8.600992,6.482206300987047,0.0737147200994183
8.605576000000001,6.517131340835952,0.0731503102344844
8.610164,6.546659773998968,0.072614933057687
8.614748,6.569647796600159,0.0721225711353818
8.619332000000002,6.588793711982467,0.0716558547155797
8.62392,6.605241324021832,0.0711982174312551
8.628516,6.615515079641807,0.0707579385989424
8.633092,6.619492794128248,0.0703420740616808
8.637680000000001,6.623837062757125,0.0699063636656778
8.642283999999998,6.628425700814293,0.0694563657402606
8.646872,6.632725827994541,0.0689766069533345
8.651480000000001,6.631384979060612,0.0685266735948058
8.656068,6.627712380926176,0.0680647181265194
8.660672,6.616233383639829,0.0676602016091645
8.665263999999999,6.599357779667597,0.06727256977725
8.669852,6.579906057066563,0.0668861785353418
8.674448,6.56159813834147,0.0664807790425645
8.679039999999999,6.540469731559288,0.0660893415582279
8.683632000000001,6.5133337945204905,0.0657442092957224
8.68822,6.486320042195839,0.0653903987933288
8.69282,6.452643694595214,0.0650716650928511
8.6974,6.420766215889886,0.0647464642713452
8.702,6.388766552470412,0.0644254778964547
8.706591999999999,6.355989639317436,0.0640968060725545
8.711184000000001,6.327054833383342,0.0637427791464263
8.715772,6.303228123258217,0.0633409252830232
8.720367999999999,6.2791570437048,0.0629479216808177
8.724956,6.258683701941974,0.062544376678998
8.729548,6.236044937141417,0.0621637188840841
8.734139999999998,6.2150828565220095,0.0617847946030155
8.738732,6.192732602598369,0.0614337051394844
8.743319999999999,6.177944378398351,0.0610449544770262
8.747908,6.164710653665336,0.0606647338405597
8.752495999999999,6.157240089760646,0.0602518870938325
8.7571,6.150957471180523,0.0598690845643112
8.761691999999998,6.140999071544291,0.0595453227673137
8.766267999999998,6.138724886345825,0.0591827853474319
8.770864000000001,6.136450701147358,0.0588194932729686
8.775452,6.143781783996097,0.0584072811640958
8.780047999999999,6.150868497416547,0.0580082574699442
8.784636,6.164617806112967,0.057577566553908
8.789228,6.1801659837046845,0.0571481527965073
8.793816000000001,6.196613595744048,0.0567183050705996
8.798404,6.217436195307507,0.0562896513932653
8.802988000000001,6.239036044604468,0.0558688031260221
8.80758,6.2561828631118175,0.0555023067214446
8.812156,6.280525157200349,0.0551280457318411
8.81676,6.304745266574735,0.0547633542918756
8.821336,6.333584732901506,0.0543891095476339
8.825936,6.363201448961778,0.054024208356939
8.830520000000002,6.394617033917347,0.0536590030226879
8.835108,6.4208023383498025,0.0533402972557776
8.839699999999999,6.446621088639822,0.0530425679958164
8.844284,6.468231177568521,0.0527822339827186
8.848875999999999,6.490085635925511,0.0525091638527294
8.853468000000001,6.517947624539117,0.0521985470874092
8.858051999999999,6.537636659858374,0.0519501756909143
