Time,Force,Position
6.648247999999999,2.320011361024646,0.1778405074961152
6.652843999999998,2.4464625719456023,0.1772189870372059
6.657428,2.574458042701824,0.1759944861468572
6.662019999999998,2.701055100522077,0.1746420728379296
6.666599999999999,2.822167268759188,0.1735464368772502
6.671191999999998,2.9418810240603284,0.1722231041721008
6.675775999999999,3.0592527905292237,0.1706617130779556
6.680367999999998,3.175714882918732,0.1689754404564087
6.68496,3.280107533714642,0.1676790545312149
6.689536,3.371453265203789,0.1669338427308081
6.694127999999999,3.4588244651281688,0.1660671815864953
6.698703999999999,3.539767199573129,0.1652272674111456
6.703292000000001,3.619023010205201,0.164237365566581
6.707895999999998,3.6946708434149422,0.1631516219489309
6.712484,3.764545276164621,0.1620684882194952
6.717079999999999,3.823948908236335,0.161297167549852
6.721668000000001,3.888172125240097,0.1603037630722949
6.726255999999999,3.9554601997292393,0.1592159922308931
6.730851999999999,4.022137350647653,0.1582075494073835
6.735451999999999,4.088325762709483,0.1572530155695989
6.74006,4.154391990057169,0.1563248302657293
6.744636,4.220991097710065,0.1554189625412664
6.749231999999999,4.2820272725143,0.154639965490127
6.753807999999999,4.336845449450516,0.153966859959292
6.758407999999999,4.386833801822948,0.1533049097599841
6.762992000000001,4.4317479602033005,0.1526871696153015
6.7675920000000005,4.4754741732590855,0.1520804170526764
6.772183999999999,4.51057259598083,0.1516685720668375
6.776779999999999,4.545626877253945,0.1511842493063505
6.781355999999999,4.581247940649161,0.1505746479546844
6.785947999999998,4.617191416738186,0.1498747586531585
6.790536,4.650270263321494,0.1491952531369619
6.795127999999998,4.672145200941961,0.1487426823760769
6.799716,4.68641396739018,0.1484271037565931
6.804303999999998,4.698595354066186,0.1481148177265254
6.808892,4.7052138078935295,0.1478729801734231
6.813483999999999,4.705125524996273,0.1477469604847055
6.818068,4.7021726125933,0.1476295396940909
6.822655999999999,4.702362600941224,0.1473488231570466
6.827248000000001,4.704551686164107,0.1469483247473695
6.831835999999999,4.703753957167128,0.1465652474250714
6.836427999999998,4.702134836988018,0.1461296986317732
6.841016,4.701415151256556,0.1456768646832553
6.845603999999998,4.70273870384868,0.1451656888240543
6.850211999999999,4.706394005641311,0.1446337240380557
6.854800000000001,4.709804938005651,0.1441229698814618
6.859403999999998,4.71129481676055,0.143664341804079
6.863996,4.714050684105533,0.1431518097222048
6.868583999999999,4.717828170612311,0.1426101195903819
6.873179999999998,4.719318049367209,0.1421496349062137
6.877772,4.718642505084376,0.1417600553618711
6.882363999999999,4.718089145515688,0.141359797161786
6.886944,4.724731261528182,0.1408188417065047
6.891539999999999,4.736769984226563,0.1401706703705452
6.89612,4.747909272477297,0.1395393056403548
6.900715999999999,4.76240192909033,0.1388573799548874
6.905307999999998,4.775384227684987,0.1382448963693184
6.909904000000001,4.786978352975414,0.1376986830067421
6.914496,4.792687132723371,0.137306659155306
6.919080000000001,4.796108304719451,0.1369960242912552
6.923680000000001,4.804803898687271,0.1365969502345947
6.928272,4.812355688779152,0.1362374951296221
6.932859999999998,4.816964806099798,0.1359501517511444
6.937456000000001,4.819286315668566,0.1357409799016525
6.942043999999999,4.821730009951479,0.1355221254687089
6.946635999999998,4.8290374306150685,0.1351917195305011
6.951224,4.834301612955072,0.1349158038890615
6.955815999999999,4.8439407828191685,0.1345742436548111
6.960408000000001,4.858077124921505,0.1341617668370651
6.964995999999999,4.874378890061573,0.1336879206220725
6.969595999999999,4.892846078239373,0.1331571480336158
6.974176,4.913889385045972,0.1325990749520942
6.978767999999999,4.933622561813857,0.1320388554738025
6.983360000000001,4.951023989381237,0.1314954266183838
6.987947999999999,4.972389708881645,0.130869775131889
6.992543999999999,4.996942470581578,0.1301727090843734
6.997132000000001,5.024027209461682,0.129384367960987
7.0017320000000005,5.051478502484224,0.1285678682387668
7.006323999999999,5.079051980220909,0.1277345985616851
7.010915999999998,5.106992012100032,0.1268730773533548
7.015515999999998,5.132722479492795,0.1260283590398259
7.0201080000000005,5.161806315247857,0.1251550522238124
7.024704,5.192811204612362,0.1242405536133064
7.029291999999998,5.2267587667481,0.1232692577762709
7.033891999999998,5.259806894436191,0.1223175877546197
7.03848,5.289912349353047,0.1214424440958681
7.043067999999998,5.324226465631222,0.1204750352708535
7.047651999999999,5.353921224957015,0.1195910666201954
7.052232,5.375931769845039,0.1188518961639864
7.056823999999999,5.396021261123623,0.1181499709454197
7.061408,5.412801525488534,0.1175358928243612
7.065991999999998,5.426106236777001,0.1169656617791316
7.070584,5.4353244714182924,0.1164811838846776
7.07516,5.44801825913603,0.1159628594568123
7.079743999999998,5.456869939634887,0.1155140557442954
7.084332,5.460080644019563,0.1151557081213177
7.0889120000000005,5.4630469789759495,0.1148167200535763
7.093495999999998,5.467689998113485,0.1144665650722695
7.098084,5.477973993365199,0.1140345970873885
7.102675999999999,5.486336935007472,0.1136332210544412
7.10726,5.490735584716717,0.1133029028948046
7.111836,5.490226366596656,0.1130013997416727
7.116423999999999,5.492004756228474,0.1126435614316197
7.121008,5.493128080840935,0.1122806118785439
7.1255880000000005,5.494495774881688,0.1119002562817963
7.130188,5.49226573113185,0.1115603126872941
7.1347640000000006,5.481329853782452,0.1113572146152742
7.139351999999999,5.46883947696605,0.1111556429003832
7.143940000000001,5.462478815120408,0.1108369603603766
7.148540000000001,5.457139772436562,0.1104983454095475
7.153119999999998,5.454332706932885,0.1100848794592051
7.157716000000001,5.448460783943827,0.1097267657982371
7.162295999999998,5.4481076523548015,0.1092978374658575
7.166888,5.443135163813392,0.108929915507072
7.171471999999998,5.439184294433775,0.1085422929800499
7.176068000000001,5.436377228930098,0.108124763473053
7.180651999999999,5.436512836197655,0.1076616731286775
7.18524,5.433172890388766,0.1072293286231204
7.189816,5.422393099570405,0.1068927857706618
7.194399999999998,5.413656547075629,0.1065175836899054
7.198983999999999,5.409417166819092,0.1060935682931212
7.203571999999998,5.407631720477208,0.1056570157111058
7.208164,5.400083113307001,0.1053040364516012
7.212751999999998,5.389836202793849,0.104978585031043
7.217327999999998,5.378445488404758,0.1046795949176229
7.221931999999999,5.368076393177461,0.1043599502334135
7.226520000000001,5.363348274064342,0.1039619610019223
7.231111999999999,5.362462262170106,0.1035063583830629
7.235703999999998,5.357734143056988,0.1031085310719981
7.240283999999999,5.357503196182108,0.1026682924397796
7.244887999999999,5.354207391821848,0.1022819264389193
7.249479999999998,5.357818552165851,0.101787628673516
7.254075999999998,5.35705472498576,0.1013302737505258
7.258651999999998,5.358211951415113,0.1008453120687057
7.263251999999998,5.35834755868267,0.1003778710522267
7.26784,5.361958719026673,0.0998873390222362
7.272444,5.361727772151793,0.0994509041443994
7.277027999999998,5.3650945630675055,0.0989817598309515
7.28162,5.376678448726193,0.0984313812425893
7.286200000000001,5.391737887461328,0.0978639828567261
7.290796,5.405242826729457,0.0972995284239549
7.2953839999999985,5.420668819607028,0.0967148281455947
7.299972,5.443412472779927,0.0960616929303409
7.304559999999999,5.4684878751533335,0.0954123672892885
7.309148,5.497405384745623,0.0947216553191607
7.313735999999999,5.531597316309653,0.0940005876704429
7.318328000000001,5.569753539806711,0.0932360988178663
7.32292,5.611385316380214,0.0924682918462521
7.327507999999998,5.653794342687221,0.0917039125118157
7.332087999999999,5.689007893413045,0.0910024901494077
7.336667999999999,5.728063551357751,0.090261476481193
7.341255999999998,5.764953786264725,0.0895694490187995
7.345839999999999,5.804664509228788,0.0888529268867565
7.350424,5.847972969983442,0.0881213356357939
7.3550119999999986,5.89704459156642,0.0873399270751101
7.359604000000001,5.941374671482868,0.0866102655195873
7.364204000000001,5.987747989722903,0.0858570626432523
7.368796,6.034243492677083,0.085107808256058
7.373372,6.077141257840673,0.084395353295139
7.377967999999999,6.119261773270759,0.0836956723883606
7.382543999999999,6.162159538434349,0.0830043308011328
7.387143999999999,6.207222726635671,0.0822942702614417
7.391732000000001,6.248688177046401,0.0816141117942121
7.396328,6.290520181599569,0.0809174571748956
7.400911999999998,6.328510078933854,0.0802613811492917
7.405504,6.36224717345819,0.0796213393341063
7.410091999999999,6.391364911030143,0.0790193820455727
7.414683999999998,6.412920618878475,0.0784789435208427
7.419263999999998,6.432677457831512,0.0779468810174
7.423848,6.454477535108135,0.0773906645619083
7.428439999999998,6.475500362651258,0.076837504620234
7.433032000000001,6.497911363498609,0.0762572228801787
7.437611999999998,6.523265037117196,0.0756592919569156
7.442208000000001,6.5433442887640405,0.0750822082162252
7.446804,6.555983695401412,0.0745533439162353
7.451387999999998,6.567968037019426,0.0740111276092496
7.455984000000001,6.57713189058035,0.0734876978900607
7.460560000000001,6.580654768027098,0.0729995490679195
7.465139999999998,6.580702092397399,0.0725181289513722
7.469736000000001,6.572532322024724,0.0720737816794169
7.474323999999999,6.561786433023251,0.0716321018951205
7.478919999999999,6.545277383193453,0.071231908032708
7.483512000000001,6.530034321953742,0.0708073429439418
7.488112000000001,6.513891826266382,0.0703857445538314
7.492715999999998,6.499137503883253,0.0699323911076017
7.497299999999999,6.484260996785977,0.0694842900129469
7.501899999999999,6.469262304974556,0.0690414379278257
7.506475999999999,6.454630167305572,0.0685741250405094
7.511075999999999,6.443185071836113,0.0680694747840663
7.515664000000001,6.431373422224218,0.0675840542925464
7.520264000000001,6.414698046231648,0.0671310057240622
7.524847999999999,6.392015139982461,0.066726914289905
7.529447999999999,6.361525834581363,0.0663770817022617
7.534040000000001,6.334756451685003,0.0660079356194165
7.538636,6.3115848065792335,0.065626765073174
7.543223999999999,6.294176322301788,0.0652090965861493
7.547816000000001,6.279466141367287,0.064783257124704
7.552399999999999,6.270274751832819,0.0643352498371713
7.556995999999998,6.260594623441767,0.0639112432258225
7.561579999999999,6.257210536184251,0.0634682557765551
7.566171999999998,6.255136578965447,0.0630475462626483
7.57076,6.254861490641938,0.0626215676416844
7.57536,6.247557252900024,0.062250287416675
7.579947999999998,6.240253015158107,0.0618789341506078
7.58454,6.234381092169049,0.0615253527979076
7.589131999999999,6.231451841951225,0.061152773613096
7.593719999999998,6.23224251423814,0.0607673462647026
7.598312,6.235487120439706,0.0603891658126205
7.602899999999998,6.2354224997276,0.0600507170149951
7.607492000000001,6.239199986234377,0.0596933465249637
7.612075999999998,6.248496264141186,0.0593189441887202
7.616664,6.2613902798385865,0.0589361575145929
7.621247999999998,6.278004218040726,0.0585382919778699
7.625836,6.295395405976366,0.0581511287255766
7.630423999999998,6.313930397787946,0.0577528157091562
7.635016,6.328256728238205,0.0573967509057082
7.6396039999999985,6.340906374507315,0.0570380156728409
7.6442039999999984,6.35175715188113,0.0566839338651656
7.648788,6.369514893959208,0.0562898299801133
7.653388,6.384329963266049,0.0559128965176486
7.657972000000001,6.399755956143621,0.0555037622254128
7.662568,6.414937579592901,0.0551088900725095
