Time,Force,Position
6.632064,2.474541953537661,0.1661372682357837
6.636659999999999,2.60461456443436,0.1651077367105183
6.641255999999999,2.730346089623854,0.1641437068540454
6.645843999999999,2.855456451610882,0.1628727324367172
6.65044,2.971728555652465,0.1619576488344737
6.655028,3.0837817587009906,0.1609770360237794
6.659619999999999,3.1898171918611617,0.160086902622714
6.664216,3.287136551790035,0.1593550976790264
6.668804,3.378804695972991,0.1586066233454809
6.673407999999999,3.462656201372297,0.1579043086952825
6.677999999999999,3.542655359920982,0.1570738972733804
6.682592,3.617413998314814,0.1562700246910496
6.687183999999999,3.6826012704783286,0.1557308118006093
6.69178,3.741404218611053,0.1552601720375173
6.696368,3.791413050246962,0.1549633024100006
6.700971999999998,3.84088900157766,0.1546643220758533
6.719347999999998,4.022168629066573,0.1544459582307063
6.723939999999999,4.071777004743154,0.1544168177242076
6.728535999999998,4.124860933496183,0.1543085730321266
6.751475999999999,4.351329807688956,0.1541949038962579
6.756072,4.39140071895211,0.1541735860539109
6.76066,4.432082553785992,0.1541022409667819
6.765235999999998,4.475540735228336,0.1538891533778325
6.769827999999999,4.516256471879108,0.1536782723890624
6.774415999999999,4.555495752328391,0.1534193764953415
6.778999999999998,4.593502946004481,0.1530818687055206
6.783591999999999,4.629789314050792,0.1527170188976196
6.788179999999999,4.667541898666852,0.152209150442143
6.792771999999999,4.699975919862542,0.1517511540217706
6.797359999999999,4.725414693456711,0.151365671215504
6.801947999999999,4.746556522792305,0.151000305979003
6.806543999999999,4.767243515088208,0.1505471863284772
6.811139999999998,4.791029266686379,0.1498705781154972
6.815735999999999,4.809740824292471,0.1492262553789806
6.820315999999998,4.822478753458838,0.1486236268134423
6.824911999999999,4.826588892291162,0.148174158969802
6.829491999999998,4.834374812179595,0.1475790074925575
6.834091999999998,4.84685813228593,0.1468122387023374
6.838676,4.85672119231484,0.1460312002434046
6.843267999999998,4.864741241999827,0.1452260382182596
6.847847999999999,4.869652292750804,0.144447555259673
6.852443999999998,4.869533290958332,0.1437495094736064
6.85704,4.866671844374288,0.1430490495441583
6.861635999999999,4.865442940522765,0.142266813961896
6.866231999999998,4.859716864433003,0.141571468452968
6.870828,4.8515368544285895,0.1409052699499322
6.875411999999999,4.841025095223668,0.1402565351039472
6.8799959999999984,4.8287144671234525,0.1396411733943511
6.884583999999999,4.820490315670411,0.1389139816662299
6.88918,4.815208836988604,0.1381084990370162
6.893771999999999,4.808783554430857,0.1373386572028587
6.898359999999999,4.797616730206579,0.1366711138672813
6.902951999999999,4.78199687519269,0.1361477275835267
6.907539999999999,4.764866662160425,0.1356939523121429
6.912127999999999,4.749168763881019,0.1352367519521059
6.91672,4.741932329772881,0.1345901486225903
6.921307999999998,4.731631038179363,0.1340280353232986
6.925915999999999,4.719941573281616,0.1335284789359602
6.930503999999999,4.709684423136725,0.1330273407895883
6.935099999999999,4.699960153297045,0.1325405599946787
6.939687999999999,4.695510305429106,0.1319686884259421
6.944275999999999,4.691593337866379,0.1314112712874205
6.948879999999999,4.688375576771636,0.1309212859062846
6.953467999999999,4.682259284354287,0.1305612664989735
6.95806,4.68141741390868,0.1301186548557631
6.962639999999999,4.680619684911699,0.129734966412584
6.967236,4.682808770134582,0.1293442132249296
6.971815999999999,4.687329604557973,0.1289415858115895
6.976415999999999,4.689196277087048,0.1286476769308006
6.981003999999999,4.694171948550132,0.1283387400350536
6.985603999999999,4.70544366114675,0.1279300308268603
6.990183999999999,4.726609152667495,0.1273634901233914
6.994779999999999,4.749984208674599,0.126793842957252
6.999367999999999,4.77683481775815,0.1261767866795128
7.003963999999998,4.806916610489855,0.125537893375685
7.008551999999998,4.834588610755537,0.1249922526923784
7.013147999999999,4.86447017550758,0.1244492905085929
7.017735999999999,4.8919419477935975,0.1239908482675975
7.022323999999999,4.922522719013624,0.1235263916137869
7.026911999999999,4.958500096919537,0.1229905091189419
7.031495999999999,4.9912904326259255,0.1225426399430966
7.036088,5.027556321408759,0.1220561246889371
7.040676,5.061901156582152,0.1216037459971376
7.045275999999999,5.0984114147932775,0.1210936099353164
7.049864,5.131856815519022,0.120659418230759
7.054455999999998,5.16938869289194,0.1201362534214917
7.059047999999999,5.207820004712507,0.119609533757482
7.063628,5.245229697371279,0.1191117949893816
7.068235999999999,5.283783193905991,0.1185835292946795
7.072823999999999,5.319760571811904,0.1180893260294615
7.077416,5.350096973603639,0.1176961797718805
7.082011999999999,5.372094095938253,0.1174356865997403
7.086607999999998,5.3974004451865385,0.1170976157823202
7.091207999999998,5.424994402186703,0.1167079121864728
7.095807999999998,5.449479360252858,0.1163301055083447
7.100399999999999,5.472409818852009,0.1159573950956751
7.104983999999998,5.4939079626983,0.1155820718785954
7.109579999999999,5.515117595667674,0.1151710858119151
7.114167999999999,5.533462599131328,0.1147554322861294
7.118767999999999,5.545633746175595,0.1144115091891363
7.123351999999999,5.561236304847679,0.1139850374496234
7.127951999999999,5.5737298645857525,0.1135680561662685
7.132535999999998,5.587078717322847,0.1130871807548483
7.137131999999999,5.600916308916525,0.112574539600645
7.141723999999998,5.616386443242725,0.112000614436882
7.146319999999999,5.629524828368417,0.1114365434836061
7.150907999999999,5.638776964826599,0.1108809253216424
7.155499999999998,5.64581953679842,0.110319806832477
7.160091999999999,5.648609305960292,0.1097884018954327
7.164675999999998,5.652009998692893,0.1092141588145486
7.169263999999998,5.654999995834429,0.1086121912092547
7.173863999999998,5.662198654337286,0.1079256767024899
7.178451999999998,5.662568391401396,0.1072923044448164
7.183043999999999,5.653943783989026,0.1067535442852368
7.187639999999998,5.646707349880888,0.1061693579718368
7.192227999999998,5.638815850753393,0.1055745802861209
7.196827999999998,5.631413090482482,0.1049447551513686
7.201415999999998,5.62425469963986,0.1042957614193605
7.205991999999998,5.614275820740152,0.1036804402339918
7.210587999999999,5.603397507392795,0.1030699722430206
7.215176,5.587122587359551,0.1025132055771777
7.219771999999999,5.569948232878659,0.1019623760255625
7.224359999999999,5.553673312845413,0.1014005651633176
7.228947999999999,5.5320017861262825,0.1008874294210112
7.233551999999999,5.50558871774062,0.1004322916184772
7.23814,5.478154030193164,0.0999913484475581
7.242743999999998,5.450597157931563,0.0995549711518394
7.247335999999999,5.42586077372705,0.0990809223552465
7.251931999999998,5.4067653656367165,0.098535723367055
7.256519999999998,5.387425588118092,0.0980062671093822
7.261119999999998,5.370006864208907,0.0974488420039405
7.265703999999999,5.350667086690281,0.0969147399380014
7.270303999999999,5.335213557839167,0.096381698116938
7.274895999999998,5.3305532423598265,0.0957536251430993
7.279491999999999,5.325159818595612,0.0951784151721058
7.284083999999998,5.321198709584258,0.0946124955251065
7.288679999999999,5.317526111449822,0.0940838016596003
7.293267999999999,5.314508578334743,0.0935646664351702
7.297863999999999,5.312923359972521,0.0930538146195281
7.302451999999999,5.314813694686746,0.0925206836145951
7.307047999999998,5.319690843620835,0.0920005055548768
7.311635999999998,5.327799176203076,0.0914780601548172
7.316223999999998,5.339915942166976,0.0909606638953143
7.320811999999998,5.360416129036626,0.0904168648330358
7.325403999999999,5.389011225935105,0.0898136333642397
7.329991999999999,5.421736940929389,0.0892083791101682
7.334579999999999,5.458593274019472,0.0885990770747145
7.339167999999999,5.495738117986476,0.0880331412488789
7.343755999999999,5.532272038382752,0.0875178765154746
7.348351999999998,5.569871719389448,0.0870435474277694
7.3529399999999985,5.608659345720713,0.0866036582231313
7.357519999999999,5.651455405433634,0.0861716361719143
7.362119999999999,5.693229845984761,0.0857558900757092
7.366703999999999,5.729241125707564,0.0854103248822758
7.371291999999999,5.765785285735578,0.0850834243182831
7.375879999999999,5.806171552982475,0.0847229185272595
7.380479999999999,5.849500493000607,0.0843366246654154
7.385071999999999,5.896060616666894,0.0839575896297571
7.389659999999999,5.946218478123772,0.083559713465546
7.394255999999999,5.998952458209447,0.0831608145651325
7.398843999999999,6.0527080574569165,0.0827527351527277
7.403443999999999,6.10772964529447,0.0823255579504434
7.408023999999999,6.158376245607931,0.0819243305262705
7.412623999999999,6.20374842394965,0.08155060223805
7.417207999999999,6.245278495072486,0.0812193145614629
7.421799999999999,6.283333013118877,0.0809046658319639
7.426387999999999,6.317789793374676,0.0806114266141199
7.430983999999999,6.353512562220561,0.0802964272332232
7.435567999999998,6.389724069923026,0.0799571698207547
7.440163999999999,6.424992001729217,0.0795793012355767
7.444751999999999,6.459727053230198,0.0791880754411084
7.449339999999999,6.487510998578285,0.0788184734882458
7.453927999999999,6.518726355554191,0.0783978028846335
7.458519999999998,6.548387213063093,0.0779715248278114
7.463111999999999,6.5762050602280695,0.0775085642961968
7.467699999999999,6.600547354316602,0.0770610410060484
7.472295999999998,6.616550368948011,0.0766647967478858
7.476883999999998,6.629810938787849,0.0762397234524936
7.481475999999999,6.641761378588975,0.0757985786197491
7.486063999999999,6.650847188884383,0.0753353960923018
7.490651999999999,6.657845619407575,0.0748508333597288
7.495259999999998,6.659203073816589,0.0744021477819101
7.499839999999999,6.656185540701509,0.0739616634681582
7.504427999999999,6.654678365604806,0.0734832593845197
7.5090119999999985,6.6490405724123,0.0729999280651659
7.513591999999999,6.641848279752792,0.0725085823974625
7.518196,6.635144725949864,0.0719885783185305
7.522784,6.623411119603487,0.0714678390284596
7.527387999999998,6.608079775466518,0.070959584387048
7.5319759999999985,6.593403496348907,0.0704619475091168
7.536575999999998,6.576273283316642,0.0699586809377103
7.541163999999998,6.563107362217406,0.0694200561228243
7.545767999999999,6.543278845842197,0.0689210367666688
7.550359999999999,6.526148632809933,0.0684122345431381
7.554947999999999,6.512616157568262,0.0678916387684063
7.559531999999999,6.4962631942695,0.067383629556537
7.564124,6.48375233818962,0.0668470377759001
7.568731999999999,6.465889016872483,0.0663680939185239
7.573327999999998,6.448925130002991,0.0658874025956832
7.577923999999999,6.430573069829269,0.0654348394881289
7.582523999999999,6.412876074674906,0.0649918323800326
7.587115999999998,6.39799956757763,0.0645328668597245
7.591707999999999,6.390440720775682,0.0640471508866044
7.596299999999999,6.381493700669505,0.0635902156886748
7.600883999999999,6.375000614477981,0.0631372308298168
7.605475999999999,6.3712058316294,0.0626773956217183
7.610055999999998,6.3701093521237615,0.0622125822021541
7.614651999999999,6.371100252390339,0.0617743167608263
7.61924,6.373645652123921,0.0613450765546618
7.623835999999999,6.372715498781056,0.0609160906220484
7.628423999999999,6.373217660191051,0.0605031372251567
7.633019999999998,6.373353267458608,0.0601110733282656
7.637607999999998,6.378885481412053,0.0597081614932003
7.642195999999998,6.382496641756056,0.0593159946721404
7.646795999999998,6.385985617385913,0.0589337548867232
7.651375999999999,6.394871199701657,0.0585432021225559
7.655963999999999,6.409519942845726,0.0581280727363077
7.660551999999999,6.432752334875209,0.0576742635771573
7.665151999999999,6.451898250257518,0.0572541851925363
7.6697479999999985,6.472476480392684,0.0568521530148484
7.674332,6.493465406118917,0.0564769496197319
7.678935999999998,6.516253200740445,0.0561021443853878
7.683515999999999,6.537119941752531,0.055740350120171
7.688115999999999,6.564527093326443,0.0553625168779596
7.6926999999999985,6.596675786566885,0.0549704901579317
7.6972999999999985,6.627802860645534,0.0545890173706919
7.7018879999999985,6.65958499974354,0.0542249773283153
7.706479999999999,6.690712073822191,0.0538500444483032
7.711059999999998,6.722860767062633,0.0534703486688579
7.715655999999999,6.761183316722465,0.0530949478746764
7.720255999999999,6.799628051096444,0.0527153801876061
7.7248519999999985,6.841015458241657,0.0523255512606479
7.729435999999998,6.877539139006194,0.0519583033748253
7.734031999999999,6.915861688666026,0.0515915019011976
7.738624,6.950097761678684,0.0512533914139285
7.743207999999999,6.979470108310667,0.0509379753373726
7.747791999999999,7.001691120810093,0.0506716860460291
7.752391999999999,7.021213829966578,0.0504102437102032
7.756983999999999,7.04163597357071,0.0501478318621864
7.761559999999999,7.058582564098395,0.0498802049180097
7.766155999999999,7.071154167101988,0.0496072445933872
7.770731999999999,7.077185359543753,0.0493482777764674
7.775319999999999,7.079374444766637,0.049102423909057
7.779931999999999,7.070281577761162,0.0488841681988885
7.784519999999999,7.050684008260834,0.0486979575362423
7.789115999999998,7.027122146827478,0.0485296354669751
7.793703999999998,6.995098821222854,0.0483800696206549
7.798291999999998,6.958866834256909,0.0482610190042106
7.802895999999999,6.917771120910288,0.0481600299525509
