Time,Force,Position
7.195568,2.775680497357557,0.1666497653860844
7.200156,2.9345554898424644,0.1653043646794078
7.204751999999999,3.093542427409779,0.163523650772119
7.209331999999998,3.245245606498654,0.1620440017416202
7.213935999999999,3.3914197545557574,0.1606160898611081
7.218515999999999,3.5327199366004467,0.1591997717233907
7.223111999999999,3.668246718185072,0.1577286133003779
7.227699999999999,3.796445599842631,0.1563949931700652
7.232299999999999,3.913474474354239,0.1552369682277972
7.236891999999999,4.02149876475763,0.1542238426649965
7.241487999999999,4.1260372624528365,0.1531002065526022
7.246084,4.219283568287947,0.1522002857484498
7.250675999999999,4.303158735872405,0.1514202289654367
7.255272,4.377784949920352,0.1507177520194638
7.259855999999999,4.4451274054898615,0.1500965351045567
7.26446,4.503675744562555,0.1496284404335186
7.269055999999999,4.564345365224353,0.1490231175507714
7.273643999999999,4.624482105580942,0.1484057581068625
7.278236,4.678200620089849,0.1479703125984902
7.282824,4.730242450417604,0.1475776995557751
7.287412,4.778398032077851,0.1472351021366746
7.291991999999999,4.823444614804089,0.1469289507969985
7.296583999999999,4.861906645519872,0.1467280235209743
7.301175999999998,4.893984352204864,0.1465316876452835
7.305755999999999,4.922908918507218,0.1463127128412518
7.310351999999998,4.945082606636345,0.1461372335670258
7.314939999999998,4.965735697115358,0.1458469055271016
7.319527999999998,4.978616290259348,0.1456279474178338
7.324119999999999,4.994351273277317,0.1452129910483776
7.328707999999999,5.005012062303209,0.1448163558620094
7.333307999999999,5.002137193165753,0.144629593956066
7.337903999999998,4.995331933912158,0.1444175638394896
7.342491999999998,4.979077493142391,0.1443025036016842
7.347087999999999,4.960447161723489,0.144145654645262
7.351683999999999,4.937764255474302,0.1439721025722015
7.356279999999998,4.9109065896806845,0.1437955478217227
7.360867999999998,4.878485991038406,0.1436743213191836
7.365463999999999,4.845732740070583,0.1434474647798161
7.370043999999998,4.809992674882894,0.1432375059638855
7.374647999999999,4.769833480722484,0.1430424423775259
7.379235999999999,4.726565287628065,0.1428738206853342
7.383835999999999,4.68288639894258,0.1426748498246983
7.388427999999999,4.635321261589583,0.1425127861997681
7.393023999999999,4.592253296474826,0.142253847887489
7.397607999999998,4.543422170531747,0.1421417587955461
7.402191999999999,4.500109835988699,0.1418956070391139
7.406775999999999,4.453243905103688,0.1417837052754202
7.411367999999999,4.412674015352212,0.1415341279055958
7.415955999999999,4.370349398154066,0.141373298025944
7.420544,4.329090541566344,0.1412439718089791
7.425132,4.300423767245692,0.1408570493713706
7.429715999999999,4.271678949659524,0.1405458468731195
7.4343119999999985,4.251317552979105,0.1401045511092084
7.438887999999999,4.231533178052526,0.1397444481688575
7.4434879999999986,4.21808898570811,0.1393164847317088
7.448071999999998,4.211640040965213,0.138829449561785
7.452659999999998,4.208832975461536,0.1383338595316063
7.457255999999999,4.20762455087349,0.1378947640226614
7.461831999999999,4.213245047724191,0.1373495543523393
7.466443999999999,4.224961357728764,0.1367710190555086
7.471035999999998,4.242118415867851,0.1361513708505865
7.475627999999999,4.264061157122098,0.1354956834426284
7.480219999999999,4.2976185029302485,0.1346996203709684
7.484819999999999,4.33367392410168,0.1339523279657793
7.489412,4.380811069521806,0.1330455617272508
7.4940039999999986,4.42852523669577,0.1322439138384027
7.498607999999999,4.484622824775484,0.1313382832959874
7.503195999999999,4.540642369589681,0.1305287661574064
7.507795999999999,4.595806621404858,0.1297938357840489
7.512388,4.656000925763486,0.1290074578787003
7.516979999999998,4.718404794608474,0.128259769638085
7.521571999999999,4.792867865415321,0.1273150665491126
7.526171999999999,4.870439935156177,0.1263817788013758
7.530767999999998,4.949688689078183,0.1254278889969325
7.535359999999999,5.023829347191223,0.1246145366116449
7.539951999999999,5.100135428341993,0.1237755584837862
7.544547999999999,5.178240378388059,0.1229266541460838
7.549147999999999,5.252381036501098,0.1221653657196159
7.553739999999999,5.32333465241461,0.1214978192894731
7.558327999999999,5.39158996498518,0.1208788694761072
7.562927999999999,5.45841296280289,0.1202661659097155
7.567515999999999,5.524048015296032,0.1196556100181142
7.572103999999999,5.581954711902781,0.1191437698575709
7.576691999999999,5.638018398165606,0.1186119395066321
7.581287999999999,5.687375347703831,0.1181499148547434
7.585879999999999,5.7321909835551885,0.1176961841793195
7.590467999999999,5.772343121005534,0.1172664153963897
7.595059999999998,5.8066879561789255,0.1168774744258811
7.599647999999998,5.844053507389069,0.1163777008117657
7.604239999999999,5.8757339410364064,0.1159171119494573
7.60882,5.901196376815727,0.1154845562590548
7.613408,5.911490611699181,0.1152319458376665
7.618015999999999,5.915811218142907,0.1149789249505785
7.622608,5.917633749223354,0.1146897021305605
7.627196,5.921821931321196,0.1142875711683124
7.6317879999999985,5.914806204456199,0.1139833933692594
7.6363759999999985,5.903493533332626,0.113662524103807
7.640979999999999,5.893402709350509,0.1132548706768383
7.645579999999999,5.879014941109817,0.1128278748493344
7.650171999999999,5.865071770277079,0.1123158682568498
7.654763999999998,5.848019600510332,0.1118072620065601
7.659355999999999,5.8200520326576655,0.1114226629565725
7.663947999999999,5.788076031423343,0.1110504891393654
7.668536,5.752213781521506,0.1106797549678035
7.673119999999999,5.714141967133312,0.1103001321398079
7.677712,5.676436706887554,0.1098895079349502
7.682291999999999,5.635500262993641,0.1094875642205211
7.686879999999999,5.597217980994044,0.1089981586922123
7.691467999999999,5.551618038699118,0.1085927034981555
7.696063999999998,5.5016431088801,0.1082259946251494
7.700651999999998,5.447581702413907,0.1079315426931749
7.705244,5.394541915109507,0.1076171454302758
7.709831999999999,5.338437270319727,0.1073569813207884
7.714416,5.285808178606394,0.1070543022880198
7.718999999999998,5.229869859979387,0.106820281263403
7.723583999999999,5.181782081952919,0.1065088735775399
7.728171999999997,5.128219653975047,0.1063236181549182
7.732759999999999,5.073024683264653,0.1062012480218195
7.73734,5.023759199545358,0.1060290292692481
7.741927999999998,4.971717369217601,0.1059468966599272
7.746516,4.923928341699794,0.1058266454816361
7.751116,4.888731396449055,0.1055627699056143
7.755699999999997,4.862284426246503,0.105214066319059
7.760287999999999,4.840378769730819,0.1048694467735957
7.764883999999999,4.82697871883503,0.1044642635427529
7.769463999999999,4.8175871013209,0.1040488496494922
7.774068,4.812858982207779,0.1036321237998779
7.778644,4.815248295410326,0.1032112475314887
7.783244,4.829985321451651,0.1026855141202976
7.78782,4.858624559798759,0.1020578842863567
7.792415999999999,4.896668838213409,0.1013718243637384
7.797000000000001,4.943096537533812,0.1006450261237307
7.801591999999999,4.999706526655259,0.0998643872660797
7.806183999999998,5.056482841939481,0.0991460100632843
7.810776000000001,5.116368156157711,0.0984317320943402
7.815363999999999,5.175764731519359,0.097764864098861
7.819959999999998,5.2505738772051656,0.0969510723684897
7.824535999999998,5.33077962957686,0.0960937553752452
7.829124,5.413317131149059,0.0952614110116583
7.8337119999999985,5.500229620245353,0.0944003750217679
7.838303999999997,5.589351673828007,0.0935723573603061
7.842896,5.679906042163521,0.0927903406262651
7.8474879999999985,5.769971671642452,0.0920650241213878
7.852076,5.861713985302532,0.0913485954391594
7.856652,5.947815322848434,0.0907082962019315
7.861243999999999,6.0326506718042525,0.0901110732149743
7.865831999999997,6.119529259083657,0.0894978462194697
7.870419999999999,6.201011239677175,0.0889396909838583
7.875028,6.275175559975364,0.0884576363591265
7.879615999999999,6.343410393282455,0.0880142073453453
7.884207999999997,6.406615174046096,0.0875923935878895
7.888791999999999,6.466710955875729,0.0871726193716461
7.893371999999999,6.521898869876058,0.0867676941958997
7.897976,6.574755034675878,0.0863612865994704
7.902563999999998,6.626178884722841,0.0859466984535393
7.907159999999997,6.67629260473109,0.0855172578121041
7.911747999999999,6.716756915243505,0.0851428806206201
7.916347999999999,6.75386785739362,0.0847802106413913
7.920932,6.785948747000283,0.084431140854775
7.925519999999999,6.817741125730029,0.0840577051689776
7.930104,6.843193321877609,0.0836778269039269
7.934695999999999,6.858341043510001,0.0833299878805293
7.939304,6.871767939512614,0.0829455341907076
7.943895999999999,6.8802869676859215,0.08256317164693
7.948484,6.885819181639366,0.0821633661921457
7.953075999999999,6.887587331639446,0.0817451107346164
7.957656,6.882648744914925,0.0813357201461995
7.962243999999998,6.874845528684687,0.0809021325818909
7.966828,6.862134444625143,0.0804642186656304
7.971411999999997,6.841206265822624,0.0800697483536004
7.976004,6.816147468924301,0.0796732927287043
7.980591999999998,6.78965635727312,0.0792629767944665
7.985191999999998,6.75903462752614,0.0788499670537856
7.9897719999999985,6.725181714131003,0.0784296445538092
7.994367999999998,6.691939724306595,0.0779722877211634
7.998956,6.656243800567535,0.0775097759074113
8.003543999999998,6.617072323752029,0.0770517871570288
8.008136,6.575569097736016,0.0765805336304691
8.012732,6.533532991414793,0.0760877906517573
8.017319999999998,6.484057040084095,0.0756351327851747
8.021915999999997,6.434214534610961,0.0751975184596631
8.026504,6.384127659709534,0.0747681760692344
8.031099999999999,6.329177058427432,0.0743729161240066
8.035675999999999,6.27254977296418,0.0739715531320568
8.040275999999999,6.21837642141558,0.0735677688568684
8.044864,6.16395870043869,0.0731725462561704
8.049464,6.112649978395807,0.0727864863703518
8.054051999999999,6.063795190267577,0.0723982819476489
8.058651999999999,6.022135877720529,0.0719760492300553
8.06324,5.989060214058895,0.0714882833008544
8.067832,5.962158406816649,0.0709799348921506
8.072423999999998,5.93566729516547,0.0704951847849662
8.077019999999997,5.91138574800065,0.0700253995061682
8.081608,5.893400241969367,0.069530923004683
8.086203999999999,5.875825431529148,0.0690620214881367
8.090792,5.86046018557529,0.0686107877066013
8.095375999999998,5.852290415202615,0.0681340617288988
8.09996,5.847229643763948,0.0676736590342602
8.104551999999998,5.844378436811643,0.0672335934273177
8.109136,5.849622139888168,0.0667669800875974
8.113719999999997,5.861161884098228,0.0662830367226159
8.118312,5.879897103889471,0.0657768818774964
8.122892,5.90264075706237,0.0652853521570411
8.127488,5.931191712512221,0.0648060203478682
8.132071999999997,5.964894905219669,0.0643308369433378
8.13666,6.005671388794154,0.0638468378538637
8.141264,6.049268360425728,0.0633537534708517
8.145851999999998,6.095319265971954,0.062874158561463
8.150444,6.143701920718686,0.0624193853476764
8.155035999999999,6.194294139951781,0.0619968762984862
8.159623999999997,6.243498185880643,0.0616090463939703
8.164212,6.292457862381214,0.0612363028635681
8.168792,6.345914711120026,0.0608580711773144
8.173388,6.398760636288108,0.0605213119183051
8.177968,6.4503405728661045,0.0602093105529892
8.182564,6.507928039700718,0.0598606795424767
8.187148,6.566292756268833,0.0595259823622391
8.191731999999998,6.63017626423698,0.0591830981530468
8.196316,6.696635890833927,0.0588471794118859
8.200903999999998,6.761052279107285,0.0585324279923023
8.205479999999998,6.825468667380644,0.0582260846938678
8.210072,6.889352175348792,0.0579092954444598
8.214663999999999,6.9527028030117295,0.0575773436242563
8.219259999999998,7.013355127331724,0.0572521544782945
8.223848,7.068855214394121,0.0569263951650985
8.228431999999998,7.118059260322984,0.0566126032048422
8.233024,7.165220067928261,0.0563172039631482
8.237603999999997,7.2096825721905935,0.0560282227771406
8.242192,7.249647904214687,0.0557482447597394
8.246772,7.281640510924094,0.0554733673046844
8.251359999999998,7.314121856490084,0.0551765415922187
8.255955999999998,7.349012994522099,0.0548504880417999
8.260539999999999,7.381572383353608,0.0545138172321969
8.265131999999998,7.410001154089315,0.0541649019867505
8.269727999999997,7.4369976100721615,0.0537997703553106
8.274324,7.45246774439836,0.0534805217275212
8.278928,7.458699164819789,0.0531799058847388
8.283515999999999,7.452094133545857,0.0529006056570414
8.28812,7.438782365547325,0.0526025572904527
8.292707999999998,7.420318360291197,0.0522944429150196
8.297304,7.392737825844444,0.0519962526912241
8.301891999999999,7.358372511407574,0.0517229600547629
8.306487999999998,7.323107762523056,0.0514483548283425
8.311072,7.283468026114446,0.0511674921840649
8.315672,7.240108367201097,0.0508906824585261
8.320263999999998,7.1950720241066,0.0506049187345117
8.324856,7.141163521249769,0.0503124212358303
8.329448,7.07711687004052,0.0500307845854252
8.334032,7.006529808269445,0.0497601520691575
8.338615999999998,6.931856269851195,0.0495108267795203
8.343208,6.846800213652237,0.0492845205081968
8.347791999999998,6.752138889406073,0.049087198845133
8.352376,6.646606308522616,0.0489411118693262
8.356959999999997,6.533511697915539,0.0488115631984547
8.361552,6.4155533609277855,0.0486985609756887
8.366143999999998,6.296695589492384,0.0485840520230011
8.370728,6.178615067790486,0.048473688608751
8.375328,6.064254468593324,0.0483499672491391
8.379904,5.945440838606551,0.0482723863799544
8.384484,5.826382839191488,0.048202867799248
8.389095999999999,5.705936666472193,0.0481631220009184
