Time,Force,Position
7.254892,2.565362516900677,0.1755314543685012
7.25948,2.708848601246576,0.1726877418018406
7.26408,2.844351720646052,0.1703928158603902
7.268675999999999,2.969584267347224,0.1687627405230004
7.273263999999999,3.083402437474156,0.1675391011986519
7.277856,3.1856399048640727,0.1665966447448606
7.282451999999999,3.281404765325941,0.1655550874618712
7.287047999999999,3.374949821669711,0.1642672219837689
7.291635999999999,3.465908519752943,0.1627762271663808
7.296235999999999,3.542998907347282,0.1616929738628652
7.300823999999999,3.611617591138615,0.1607438884367471
7.305423999999999,3.670498582536856,0.16002330335789
7.310015999999999,3.720252805112735,0.1593982211034457
7.314615999999999,3.757448847238432,0.1590367482587519
7.319208,3.7858066314186862,0.1587786679876852
7.323803999999999,3.8087236674644256,0.1586275192249494
7.328387999999999,3.8271435312719255,0.1586184352801221
7.332972,3.848139513708223,0.1585479676417792
7.337563999999999,3.8714672453450265,0.1584493570987962
7.342155999999999,3.898925595077633,0.1582656532003118
7.360515999999999,3.9949553042312713,0.1582635444922873
7.365107999999999,4.019348796478497,0.1581932086597722
7.3697,4.049383264839901,0.1579510543044851
7.374295999999999,4.078273929325366,0.1577659947505648
7.378883999999999,4.10189017183909,0.1577199221318235
7.383476,4.124196284314101,0.1576747174460819
7.388055999999999,4.153409361493375,0.1574053402426064
7.392643999999999,4.18401061197688,0.1570674907081277
7.397252,4.2107256137928735,0.1567762879855238
7.40184,4.238584419484806,0.1564431514240457
7.406435999999999,4.269996821518702,0.1559558953803695
7.411023999999999,4.305373515485628,0.1553482938602932
7.415611999999999,4.338174090823753,0.1548000462102311
7.420207999999999,4.368398547533083,0.1543028557776076
7.424799999999999,4.394614570860754,0.1538686375811209
7.429404,4.415922726359122,0.1535176404288886
7.433983999999999,4.435920751818776,0.153165479027423
7.438583999999999,4.4584507544586005,0.1526982348447257
7.443163999999999,4.483634918992741,0.1521147829922224
7.447768,4.508530572649961,0.151492690114672
7.452356,4.538412137402004,0.1507218463333564
7.456956,4.568127375991272,0.1499117763389049
7.461539999999999,4.593711996484738,0.1491834665027891
7.466132,4.619907540548934,0.1484019219776162
7.470723999999999,4.649045757384363,0.14754214809279
7.475315999999999,4.676507290038642,0.1467182733786485
7.479911999999999,4.692153990159353,0.1461564837671764
7.484503999999999,4.708289429136648,0.1455610928123296
7.489091999999999,4.726590291151674,0.1448913924460212
7.493687999999999,4.738961666175603,0.1443177931055896
7.498275999999999,4.747857488123088,0.1438124484025885
7.502872,4.750946007793619,0.1433926503014962
7.50746,4.753623831873084,0.1429449430345781
7.512051999999999,4.758955817846865,0.1423813319274032
7.516643999999999,4.767597030734319,0.1417092711460009
7.521223999999998,4.780202535554801,0.1409330897184945
7.525819999999999,4.792152975355926,0.1401561434355646
7.530396,4.801527296528255,0.1394252208957674
7.534975999999999,4.805382826300549,0.1388149890643421
7.539572,4.808338921625194,0.1382217362387651
7.54416,4.809496148054545,0.1376684005706783
7.548748,4.811308439503253,0.1371248910749416
7.553339999999999,4.811321862056666,0.1366132150443868
7.5579399999999985,4.8104358501624285,0.1361195085452088
7.562543999999999,4.805829915763456,0.1357015985770975
7.567136,4.800324546916836,0.1352991974197864
7.571731999999999,4.8062233150127165,0.1346476346434671
7.5763159999999985,4.806481106994418,0.1341155229492019
7.580919999999999,4.806494529547831,0.1336055676797514
7.585495999999999,4.812148928215421,0.1329775782542458
7.590095999999999,4.816659523007073,0.1323843645919442
7.594688,4.826444539770465,0.1317088492982729
7.599288,4.835207937372065,0.1310573023905713
7.603876,4.841683727221786,0.1304827758103736
7.6084679999999985,4.844073040424331,0.130015478533636
7.613059999999999,4.843519680855643,0.1296176852768109
7.617655999999998,4.843987940448748,0.1291954246087808
7.6222439999999985,4.847154503384797,0.1287298756294526
7.62684,4.851342685482639,0.1282367145271689
7.631428,4.857329736475776,0.1277146259734196
7.636011999999999,4.859474680250032,0.1272722770766235
7.640604,4.856755897643612,0.1269359526974788
7.645199999999999,4.858289917847139,0.1265479258300876
7.649792,4.862644426107755,0.1261093230393067
7.6543839999999985,4.869941607139605,0.1256063594043423
7.658975999999999,4.879037657066752,0.1250759148694023
7.663563999999999,4.8822483614514285,0.1246776421248274
7.668156,4.88815736917905,0.1242355518322064
7.672735999999999,4.894310746334961,0.1237735576088676
7.677327999999999,4.897399266005491,0.1233861869620658
7.681911999999999,4.906128761790201,0.1228989915937924
7.686499999999999,4.909994531194234,0.1225119273753306
7.691111999999999,4.91770240781715,0.122052137140229
7.695703999999999,4.927575707477798,0.1215365840420803
7.700296,4.938348441586095,0.1210047463287894
7.704891999999999,4.948754621551955,0.1205016934265315
7.709475999999999,4.958916432089523,0.1200235502647507
7.714072,4.9688338731988,0.1195714793376991
7.71866,4.9803058137750815,0.1191152411028954
7.723255999999999,4.991899939065508,0.1186528726567536
7.727843999999999,5.009012855755968,0.1181059910699844
7.732443999999999,5.030989498827103,0.1174659229279205
7.737024,5.048468969660001,0.1168913433737884
7.741624,5.058919291074489,0.1164638008719447
7.746207999999999,5.07014686222248,0.1160385607911906
7.750803999999999,5.078676130027525,0.1156501218935304
7.755395999999999,5.085406528937276,0.1152832008168077
7.759991999999999,5.090993123971088,0.1149482327882473
7.764588,5.099033652919551,0.1145998375111462
7.769188,5.109117420191601,0.1142085522603217
7.773779999999999,5.113682396063619,0.1139013414442697
7.7783799999999985,5.121067859992727,0.1135482715886574
7.7829679999999986,5.12604353145581,0.1132699072142066
7.787555999999999,5.131552083224104,0.113011865977146
7.792143999999999,5.140003307763633,0.1127016299909985
7.79674,5.15164157450269,0.1123200784549406
7.801331999999999,5.162258222079951,0.1119611921701301
7.805919999999999,5.168499882133118,0.111648472891625
7.810511999999999,5.174985911614577,0.1113187123718104
7.815099999999999,5.179673072200741,0.1110119015342492
7.819695999999999,5.181906298872252,0.1107209380429712
7.824271999999999,5.18144122220082,0.110462661554865
7.828859999999999,5.184163187728914,0.1101353555322864
7.833463999999999,5.193137052941916,0.1096784140503725
7.838051999999999,5.201578037849704,0.1092083833687778
7.842644,5.211817891652791,0.1087169934613892
7.847239999999999,5.22589985267476,0.108164953098171
7.851827999999999,5.24136998700096,0.1075653906892859
7.85642,5.248867396012473,0.1070458918528035
7.860999999999999,5.256486989738134,0.1065208957577118
7.865591999999999,5.263207149016145,0.1060017874288611
7.870171999999998,5.270538231864886,0.1054395578271581
7.874767999999999,5.279624042160292,0.1048045869513099
7.879356,5.283313245769813,0.1042267208084679
7.883955999999999,5.287002449379334,0.103654276434504
7.888539999999999,5.285950111322324,0.1031477511879901
7.893132,5.282321654636518,0.1026583592726125
7.897739999999999,5.284578543493181,0.1020757698564883
7.902336,5.2858138131880485,0.1015136284726883
7.906927999999999,5.288725767064068,0.100943011269675
7.911515999999999,5.290493917064146,0.1004000096713384
7.916103999999999,5.2931615015118725,0.0998479216776832
7.920695999999999,5.296484150978957,0.0993095359153231
7.925283999999999,5.298907365998392,0.0987844090875411
7.929879999999999,5.299942407713597,0.0983054774087219
7.934455999999999,5.3048195566476855,0.097779870365385
7.939051999999998,5.312517193638863,0.0972275855650168
7.943648,5.322913133972984,0.0966569131181042
7.948236,5.344468841821316,0.0959695744100204
7.952836,5.362837507470122,0.0953406238643823
7.957412,5.384803910909518,0.0946800479871451
7.962,5.405259956330539,0.0940751539135971
7.966583999999999,5.422284590123743,0.0935460012237207
7.971171999999999,5.444050765583477,0.0929603277498664
7.975759999999999,5.463895887433769,0.0924028764534163
7.980355999999999,5.489626354826532,0.0917699184501544
7.984943999999999,5.5209977983334735,0.0910796708192936
7.98954,5.54828276519324,0.0904599574820469
7.994131999999999,5.576833720643092,0.0898130760895393
7.998735999999999,5.607305729702386,0.0891526690222133
8.003316,5.64444033403765,0.0884324328675859
8.007916,5.683373807268212,0.087706567716243
8.012495999999999,5.719364607727538,0.0870208784522666
8.017095999999999,5.753845050168486,0.0863873759871843
8.02168,5.788569862037729,0.0857399938396972
8.026268,5.818675316954584,0.0851395518950483
8.030852,5.844161414919054,0.0845840689065995
8.035444,5.8638843520552015,0.0840896552480569
8.040032,5.88078680113426,0.0836313618202538
8.044628,5.89985467325105,0.083137720161414
8.04922,5.920965783691427,0.0826236161912312
8.053804,5.942443448274242,0.0820880281895033
8.058392,5.968907023951878,0.0814977897842473
8.06298,5.995370599629516,0.080912592330533
8.067571999999998,6.020279675840149,0.080322617844279
8.072163999999999,6.0421238945654,0.0797768611435737
8.076759999999998,6.061025440519416,0.0792660498618309
8.081339999999999,6.079804801759288,0.078762072979923
8.085932,6.094375501637837,0.0783151585878173
8.090524,6.1044490292781495,0.0778938633729155
8.0951,6.105039473585401,0.0775506568192248
8.099704000000001,6.104730483445002,0.0772138442535164
8.104292,6.101723189961662,0.0768879549771075
8.108876,6.100226254496698,0.0765206732071582
8.113468,6.096930450136439,0.0761612725947695
8.118048,6.096455133833269,0.0757824614379303
8.122652,6.095857632815951,0.0754103907743975
8.127228,6.102044911788753,0.0749806244314818
8.131828,6.104512268256817,0.0745767881979331
8.136415999999999,6.1069796247248815,0.07417361969644
8.141011999999998,6.108547546745297,0.073778138284132
8.145596,6.112813772108656,0.0733742315878243
8.150196,6.113482259681425,0.0729867450731218
8.15478,6.115172366415987,0.072590922737926
8.159372,6.120582395655285,0.0721754734846034
8.163959999999998,6.126236794322876,0.0717466041059257
8.168552,6.129315074361667,0.0713191137285694
8.173135999999998,6.13071667021931,0.0708887375867312
8.177728,6.139025230781216,0.0704013406338436
8.182311999999998,6.152197517723798,0.0698795216758785
8.186895999999999,6.169334096599409,0.0693218182681275
8.191476,6.183528002703784,0.0687879631291914
8.196052,6.2045066887982765,0.0682051725357378
8.200635999999998,6.2233199518550375,0.0676521975128028
8.205215999999998,6.244831518254741,0.0670916465354471
8.209808,6.263400411883209,0.066556787335158
8.214404,6.284789793568768,0.0660090462173291
8.218991999999998,6.303358687197235,0.0654836212527762
8.223591999999998,6.32180539611156,0.064965103877485
8.228184,6.346015265854206,0.0644187361582785
8.232776,6.36920351643506,0.0638867564909213
8.237367999999998,6.388549659797033,0.0633813103418152
8.241967999999998,6.410471921787801,0.0628789997442686
8.24656,6.4323941837785705,0.0623823708078138
8.251156,6.452028838017461,0.0619201069744268
8.255752,6.4751390453327975,0.0614615965976808
8.260336,6.5054447282293175,0.0609914272228758
8.264936,6.543312440849458,0.0604911034474293
8.269523999999999,6.577460230964858,0.0600115243656159
8.274119999999998,6.604456686947706,0.059590758790237
8.278708,6.631208773502262,0.0591851030491594
8.283308,6.661925151989847,0.058755383787968
8.287891999999998,6.6925193457632846,0.058339344435319
8.292484,6.725034593146165,0.0579159049615813
8.29708,6.7586936444049845,0.0574833275403193
8.301675999999999,6.79439593398739,0.0570378095007867
8.306264,6.827399920226853,0.0565991144474471
8.31086,6.858360668142729,0.0561777526884452
8.315447999999998,6.888299796896812,0.0557631521782167
8.320032,6.912475764822569,0.0553803719820233
8.324619999999998,6.931910191081798,0.0550147499319721
8.329212,6.953265670950467,0.0546421491937121
8.333803999999999,6.972822281923841,0.0542739728340408
8.338395999999998,6.986860101497181,0.0539178169505355
8.342988,6.998443987155869,0.0535508902978107
8.347575999999998,7.002710212519228,0.0531971902076756
8.352168,7.001702015910848,0.0528440196748647
8.356755999999999,6.993131789578846,0.0525156036651118
8.361344,6.981374521047318,0.0522123240153882
8.365955999999999,6.973703729162963,0.051880241424686
8.370544,6.962313014773872,0.0515548618384464
8.375147999999998,6.945036954842311,0.0512565599017322
8.379736,6.921220484348925,0.0509729984120679
