Time,Force,Position
9.371704,3.4287242111926624,0.1653699979776121
9.376292,3.512918608549255,0.1651298389873353
9.380884000000002,3.597801972742093,0.1647101151309941
9.385488000000002,3.683618673199468,0.164122501692715
9.390084000000002,3.7690246780657786,0.1635230835591455
9.394672,3.8532868790561503,0.1629858991245569
9.399268,3.945521805361207,0.1622697853695727
9.403856000000005,4.036490743076178,0.1616527804040129
9.40844,4.126071507486919,0.1611211994650613
9.413028000000004,4.219494379116543,0.1604751504332205
9.417624000000004,4.320312954307013,0.1595937580926963
9.422216,4.423374995800734,0.1585773355248902
9.426804000000004,4.521240658588231,0.157632978633951
9.431404,4.61685261544074,0.1566813477108256
9.435992,4.711887550539411,0.1556723815518092
9.440584,4.800049422750707,0.1547731841198291
9.445176000000004,4.884525274274156,0.1538355601986546
9.449760000000005,4.963149682072024,0.1529771012166154
9.45436,5.040497861648069,0.1520066162737352
9.458948,5.1147709441069935,0.15097989484825
9.463536000000005,5.18482512557286,0.1499237263346551
9.468128,5.250249710454604,0.1488157862499299
9.472728000000004,5.309001460428637,0.1477075978674668
9.47732,5.356993898847785,0.1467043882142005
9.481904,5.400112371254518,0.1456541144299628
9.486496000000002,5.441177365705923,0.1444899927910816
9.491084,5.466741506935914,0.1435198506013132
9.495684000000004,5.488863996906349,0.1424911015937039
9.500272000000002,5.509832443369106,0.141329863623005
9.50488,5.525682554391155,0.1401402193882422
9.509472000000002,5.527219757516356,0.1391477127476249
9.514068000000002,5.51971847471645,0.1382552897365514
9.518652000000005,5.507920247657969,0.1373582875144946
9.523244000000004,5.491947261055053,0.1364526729348757
9.527832000000004,5.468856842136472,0.1355997042694674
9.532428000000005,5.4478877048069965,0.1346306684437426
9.537020000000004,5.425730622152952,0.1336354699548653
9.541620000000002,5.400464540564897,0.1326553764501583
9.546208,5.369679667576812,0.1317673508733846
9.550800000000002,5.331210580150962,0.1310281312393273
9.555388,5.288244320486872,0.1303525000240028
9.559980000000005,5.241191584175608,0.1297655339757992
9.564564000000004,5.193650109007761,0.129209196525882
9.569156,5.149217632773922,0.128628328998537
9.573748000000002,5.103929863541064,0.1281098942623919
9.578336,5.057786801309186,0.1276531586020517
9.582932,5.019738649106139,0.1270616251131166
9.587520000000003,4.980835203904072,0.1265350328885734
9.592108000000003,4.939810477112901,0.1261177281893334
9.596704000000004,4.89629791459019,0.1258428282222649
9.601292,4.859003349935495,0.1255344011654421
9.60588,4.828948402310612,0.1251657314175809
9.610468000000004,4.808587005630191,0.1247169162609044
9.615056000000004,4.788313891847029,0.1243820367729611
9.619660000000003,4.776057644827179,0.1239874860437752
9.62424,4.760291942913995,0.1237642845579222
9.628832000000004,4.752543107764125,0.1234859553047732
9.633412,4.745126924939801,0.1233026285978026
9.638012000000003,4.743684370555203,0.1231133259631147
9.642600000000002,4.750503052362211,0.1228489269874231
9.647200000000003,4.762273743447151,0.1226010980600455
9.651784,4.781939116581257,0.1223117185981914
9.65638,4.807944672297527,0.1219924029577478
9.660972,4.834527249767636,0.1217475866848025
9.66556,4.866672760086406,0.1214741004676149
9.670148000000005,4.900661280749101,0.1212326636318513
9.67474,4.935104638451488,0.1210822774232928
9.679328000000003,4.97445586398318,0.1208963597485144
9.683916000000004,5.018837142058322,0.1206645156761961
9.688504000000002,5.074011633505237,0.1202858857898368
9.693096000000004,5.132539493314454,0.1198860911504276
9.697680000000004,5.191478048714735,0.1195251839214734
9.702284,5.247351746629635,0.1192435631275337
9.706880000000004,5.308744235944569,0.1188818560068304
9.711468000000004,5.370014540545356,0.1185439864456705
9.71606,5.435126952365028,0.1181394660539074
9.720648000000004,5.495497822518168,0.1178265668024826
9.72524,5.564041645965656,0.1173584576872269
9.729836,5.631397524088577,0.1168763741736448
9.734424000000004,5.69924214106808,0.1163750586348663
9.739028000000005,5.771539788837194,0.1157845401653374
9.74362,5.837252884595854,0.1152401604124066
9.748220000000003,5.89805811252521,0.1147352388866216
9.752816000000005,5.96098462204367,0.1141375142251721
9.757396,6.02116868677056,0.1135334833628431
9.761996000000003,6.082330229210612,0.1128695544388346
9.766592000000005,6.144591434077978,0.1121413135169403
9.771184000000003,6.203865824725479,0.1114196604889854
9.775772000000003,6.25925396670547,0.1107115595848554
9.780372,6.305359253332063,0.110080704720861
9.784964000000002,6.343980553500552,0.1094943749728095
9.789564,6.3790821591439695,0.1088945819369821
9.794148,6.40988682052881,0.108278381924756
9.798740000000002,6.435250733779136,0.1076740256710185
9.803324000000003,6.454152279733152,0.1070940272525342
9.807916,6.465569839229066,0.106551027439674
9.812524000000003,6.469625596981024,0.1060354340238084
9.817120000000005,6.46505356439894,0.1055868016300531
9.821708,6.456717467863491,0.1051330003582672
9.826304,6.440653015441649,0.1047308377785753
9.830892,6.414816968809826,0.1044118522668243
9.835480000000004,6.389714030462878,0.1040429089842653
9.840068000000002,6.362279342915422,0.1036727615531929
9.844664000000002,6.33161347171981,0.1033085048116561
9.849252,6.296328243571815,0.1029901642777686
9.853848,6.2605101351186105,0.1026520294015775
9.858440000000002,6.218518170246015,0.1023573430518891
9.863032000000004,6.173950086744622,0.1020752303646818
9.867632,6.128726938223872,0.1017815311866385
9.87222,6.078640063322446,0.1015500656612955
9.876812,6.031495861192255,0.1012754080518204
9.8814,5.9814089862908295,0.1010371839842206
9.885988000000005,5.932998795570555,0.1007856035910351
9.890584000000004,5.886265289031428,0.100521585179184
9.895172000000002,5.840186847511658,0.1002628427068961
9.89976,5.799627197391922,0.0999447175890016
9.904356,5.769982945358104,0.099520680488451
9.908948000000002,5.73972776975356,0.0991339566998148
9.913544000000002,5.711682158635376,0.0987528786936372
9.918136000000004,5.686989915879492,0.0983533936029969
9.922732000000003,5.667449910381202,0.0979209939145877
9.927320000000002,5.649097850207481,0.0975122195096179
9.931920000000003,5.63127867033897,0.0971175776692513
9.936508000000003,5.617223554423826,0.0967338553137285
9.941104000000005,5.60766561074692,0.0963102011937385
9.945696000000003,5.592755201832757,0.0959809252762105
9.950292000000005,5.581075976566747,0.0956443042841765
9.954884,5.574548988558332,0.095279033733991
9.95948,5.570353749750424,0.0949160671548575
9.964068000000005,5.576296659294934,0.0944532289120974
9.968664000000004,5.587269621382895,0.0939764203201386
9.973252000000002,5.606215308785539,0.093445578883631
9.977848000000002,5.625327322350958,0.0929578507622319
9.982436,5.642151728164498,0.0925171274517332
9.987024000000003,5.664006186521488,0.0920598136960668
9.991612000000003,5.687048590203045,0.0916338707940445
9.996212,5.7049828980756345,0.0912894502416328
10.000800000000003,5.7284359973482575,0.090897397085114
10.005400000000002,5.754343030535534,0.0905059052707926
10.009992000000004,5.782581812923316,0.0901211393678266
10.014580000000002,5.811720029758745,0.0897344863482354
10.019172000000005,5.842412746061179,0.0893537887270598
10.023760000000005,5.878379884335354,0.088946309481388
10.028356000000002,5.914469207323675,0.0885385864223373
10.032940000000004,5.949170357007764,0.0881705675294406
10.037528000000002,5.992210786148977,0.0877337514208039
10.042140000000003,6.03692789947134,0.0872967603087656
10.046728000000002,6.079968328612551,0.0868715601181717
10.051316,6.126606495544356,0.0864319875497816
10.055912,6.171445793580864,0.0860140319651712
10.060504000000002,6.212931723255072,0.085612546937643
10.0651,6.2479994270816,0.0852602643769779
10.069680000000004,6.283433685050564,0.0848862003460244
10.074284,6.323731669400204,0.0844659080247599
10.078872000000004,6.36361895815878,0.0840282542372797
10.083468000000003,6.40477223550744,0.0835700219867186
10.088048,6.448213120607978,0.0830769726943338
10.092644,6.4889557023655735,0.0826040355727261
10.097244000000003,6.527366534922663,0.0821296423586458
10.101844,6.565488856602832,0.0816298007019236
10.106428,6.601035059654204,0.0811402949178861
10.111024,6.637192186276304,0.0806217343709429
10.115612,6.672694247879046,0.080102248498799
10.120208000000003,6.699079780291165,0.0796314160410844
10.124796000000003,6.727097855435806,0.0791168831325417
10.129388,6.7458772166756775,0.0786601090365543
10.133976000000004,6.759504340657953,0.0782147558940968
10.138564000000002,6.771454780459078,0.0777724583839069
10.143152,6.776331929393167,0.0773585671469239
10.147748,6.781209078327255,0.0769477824145422
10.152340000000002,6.7832657392042535,0.0765559239733622
10.15692,6.785811138937835,0.0761351083792474
10.161516,6.7887230928138536,0.0756945606147865
10.166096000000003,6.790202731937013,0.0752446091872185
10.170692000000004,6.788084633269583,0.0748099936562744
10.175276000000004,6.7796704934686165,0.0744002401237069
10.179864000000002,6.765859746981761,0.0740104994343657
10.18446,6.751393935475552,0.0736099129791939
10.189048,6.734884885645754,0.0732282720261977
10.193636000000003,6.718131466387666,0.0728601084469989
10.198232000000004,6.70239966629137,0.0724808788171497
10.202824,6.681026890080895,0.0721327066772247
10.20742,6.655401311060475,0.0717859913768698
10.212008000000004,6.638359380925466,0.0713816775002587
10.216608,6.620295831628664,0.0709866360583033
10.221196,6.60848418201677,0.0705244008718117
10.225796000000004,6.600148085481322,0.0700545219238011
10.230376,6.592589238679374,0.0695878395945022
10.234976000000003,6.587728695220371,0.0691107585806691
10.239572000000004,6.578493164237275,0.0686407401377241
10.24416,6.570034882987681,0.0681728077171649
10.248748,6.566728838995682,0.0677031846119104
10.25334,6.564077860023039,0.0672452780329134
10.257940000000003,6.5581176541367245,0.0668280890766326
10.26254,6.553834132431561,0.0664115472611794
10.267128,6.555968836574077,0.0659708099301305
10.271724,6.563255777974188,0.0655281784155177
10.276312000000004,6.572463772983743,0.0650756063625713
10.280900000000004,6.583592821602736,0.0646113429673833
10.285488,6.58805927494576,0.0641805631600704
10.290080000000003,6.593180793308139,0.0637621696443585
10.294676000000004,6.602677299194612,0.0633381841199636
10.299268000000003,6.613606119833944,0.0629298378556404
10.30386,6.6262116246544265,0.0625291438133328
10.308452000000004,6.642537051979645,0.0621181590622645
10.313048000000002,6.659150990181784,0.0617416005332067
10.317636,6.677930351421655,0.0613447913172842
10.322216000000004,6.698386396842676,0.0609533142511756
10.326828,6.721785115034932,0.060547889713526
10.331416000000004,6.7495588207512816,0.0601422109642569
10.336020000000005,6.779253580077072,0.0597286718918335
10.340608000000003,6.806372220774065,0.0593187893013754
10.345212000000004,6.834512480632852,0.0589052256032194
10.349808000000005,6.8646959788152255,0.0584764315101326
10.354396,6.8966783458928935,0.0580482666844134
10.359000000000002,6.925840224913474,0.0576345170852691
10.363592000000004,6.954224854200552,0.0572192317404069
10.368196000000005,6.979422441288103,0.0568334653789366
10.372776000000002,7.003720593928008,0.0564500221072562
10.377376000000003,7.039545068224559,0.0560183561619366
10.381964000000004,7.077534965558844,0.0555714373350747
10.386564,7.115524862893129,0.0551273885780381
10.391144000000004,7.152737510493911,0.0546796247879751
10.395744,7.1850864317140175,0.0542583627711154
10.400328000000002,7.211550007391654,0.0538694343131026
10.404924,7.235437464440492,0.0534788789715518
10.409516000000004,7.257159498451598,0.0531105561032122
10.414112000000005,7.275161609957967,0.0527517422435295
10.4187,7.286256756760071,0.0524278662066522
10.423296,7.297474088276323,0.0521007743831084
10.427888000000005,7.307791985344927,0.0517755334744827
10.432472000000004,7.314267775194647,0.0514640910230422
10.437064,7.317923076987279,0.0511609878548119
10.441648,7.320556759618117,0.0508641758600344
10.446236,7.320369954191865,0.0505750483473377
10.450832000000004,7.318139910442027,0.0502977617196015
10.455424,7.310146705863864,0.0500387043718672
10.460016000000005,7.305873423790438,0.0497725292796755
10.464612000000002,7.3023773914505155,0.0495116664347958
10.469192,7.291197144672826,0.0492770779076927
10.473784000000002,7.267468957076696,0.0490835991426961
10.47838,7.242963519747063,0.0488838481271459
10.482968,7.215515409646195,0.0486942620527674
10.487564,7.18549118091653,0.0484972556445993
10.492148,7.154567517739218,0.0482986447334605
10.496736,7.122500050685964,0.0481103241282996
10.501332000000003,7.086468291699683,0.0479388850260265
10.505920000000003,7.049537098265756,0.0477657992126394
10.510524000000004,7.01362752399362,0.0475847644267397
10.515104,6.970033735283719,0.0474258342768114
