Time,Force,Position
11.878880000000002,3.3646932031798533,0.144221465429044
11.883468,3.361251551920297,0.1441199627862757
11.888060000000005,3.3564997706220274,0.1440053774582865
11.89266,3.3510929243044014,0.1438839125693326
11.897248000000005,3.349894739348096,0.1435860014486524
11.901844000000004,3.3465311313540567,0.1433843421226472
11.906432000000002,3.3465208917223177,0.1431158656302167
11.91102,3.350474944023607,0.1427021058302594
11.915608,3.359292722705573,0.1421223346313298
11.920196000000004,3.3678661319592478,0.1415736313514095
11.924784000000002,3.379382213984157,0.1409235289746713
11.929392,3.393718784066156,0.1401891264490565
11.933980000000004,3.4094876689010136,0.1394539029815753
11.938576000000005,3.4182274043174616,0.1389819533915831
11.943168,3.423780097534384,0.1386442908897584
11.947756000000004,3.4349737668654847,0.1381408610904083
11.952344000000004,3.4479663050918816,0.1375818382606188
11.956936,3.4685208730418973,0.1367807600055492
11.961532000000004,3.4903414295819983,0.135931563264246
11.966120000000004,3.5069317055989857,0.1352871949389918
11.97072,3.520090569988156,0.1348061423120292
11.975312000000002,3.532349999929678,0.1343554686789786
11.979904000000005,3.547063363785853,0.1338706413733786
11.984492000000005,3.5630868576807404,0.1334006991677492
11.989092,3.576700559109604,0.1330546077936005
11.993688,3.5912136949861155,0.132688194542823
11.998284000000004,3.604583026986688,0.1323750428299218
12.002876,3.616564185683029,0.1321452524842913
12.007472,3.625602671608136,0.1320132961872162
12.012076,3.63692876528512,0.1317842643059418
12.016664,3.6465781747809545,0.1315862005115635
12.021252000000004,3.6535292809338458,0.1314513576987127
12.025848000000003,3.659048072333879,0.1313149264689009
12.03044,3.6677539059334383,0.1310570522125247
12.035028000000004,3.678747347284876,0.1307014006431482
12.039608,3.685121431683928,0.1304670429459113
12.044204,3.693538754406568,0.1301647998182295
12.048796000000005,3.699135589072117,0.1299404641158136
12.053388000000004,3.69909144762349,0.1298622252122407
12.057984000000005,3.708486248059295,0.1294614912562249
12.062572000000005,3.720535210389415,0.1289264621711618
12.067172,3.7328285421478262,0.1283702693181478
12.071760000000005,3.7407468863821447,0.1278928966924292
12.076356000000004,3.748376719739543,0.1273677812529678
12.080948,3.755962411648314,0.1267652065492944
12.085536000000005,3.764036842413667,0.1261138366709998
12.090136,3.772722196749749,0.1253962372941574
12.094720000000002,3.780996855494765,0.124641517543281
12.09932,3.789760253096363,0.1238348275165882
12.103904,3.7959475320691647,0.1230740694702876
12.108496000000002,3.8012353765943176,0.1223306692132067
12.113096,3.806645405833617,0.1215710442985936
12.117692000000003,3.813199238948855,0.1207675505860277
12.122296,3.818975822330591,0.1199682557632643
12.126888,3.823730786550533,0.1192039367852165
12.131488000000004,3.8277085010369736,0.1184385292208946
12.13608,3.83066459636162,0.1177067306462158
12.140676,3.8337428764004127,0.116962586297882
12.14526,3.838620025334501,0.1161770669210588
12.149860000000004,3.836101470707743,0.1156396469149609
12.154444000000003,3.827453201110224,0.1152781953749128
12.159040000000005,3.817661127636766,0.1149595643470148
12.163632,3.815431083886928,0.1144717289032536
12.168216,3.81205723626115,0.1140256168599631
12.172816000000005,3.813835625892968,0.1135162806295827
12.177408,3.813981472792264,0.1131016246733085
12.182000000000002,3.8164590688920663,0.1126839414458495
12.186584000000003,3.820246795030583,0.112287929266254
12.191164,3.8234235975983695,0.111956423661601
12.195756000000005,3.826644541614786,0.1116988264289384
12.200348000000004,3.8329744845652094,0.1114346004165752
12.204936000000004,3.8435572303255823,0.1111262793767966
12.209528,3.8559829864298782,0.110866350717704
12.21412,3.8751154792587754,0.1105519064189857
12.218712000000004,3.895558102126384,0.1102616828891866
12.223304,3.9209085928232974,0.1099410428590948
12.227896,3.950634071044304,0.1095741752924441
12.232484,3.984367982646968,0.1091981570175759
12.237072000000005,4.022110327631289,0.1088078625940434
12.241680000000002,4.061529356796759,0.1083995681536457
12.246272000000005,4.114928641533529,0.1077589991229331
12.250860000000005,4.174623967403836,0.1070529264108584
12.255448,4.231665131379827,0.1064791009514232
12.260040000000004,4.288994806232737,0.1059425279680928
12.264644000000004,4.342893069457829,0.1055284740827347
12.269224,4.399734005454156,0.1050602435613101
12.273824000000005,4.4582516256316325,0.1046008486712021
12.278412000000005,4.517546495542613,0.1041435199267293
12.283012,4.581460722405977,0.1036291795442585
12.287604000000002,4.6493392412023695,0.1030426471732771
12.292208000000002,4.714886010798256,0.1024640546298867
12.296800000000005,4.776957227317696,0.101930947592816
12.301396000000004,4.837596129084277,0.1013930677875675
12.305980000000003,4.89038449025032,0.1009411638942788
12.310576000000005,4.944028144415382,0.1004291836209212
12.315164000000005,4.994684984360581,0.0999164201642361
12.319760000000002,5.039290152600538,0.099461162289405
12.324348,5.079231822439481,0.0990131624596711
12.328948000000004,5.117452666648644,0.0985246557288911
12.333536000000002,5.158327672752125,0.0979585843715857
12.338124,5.187632215750328,0.0975153101322886
12.342716000000005,5.206265730090903,0.0971713685914096
12.347312000000002,5.222401169068196,0.0967801113447847
12.3519,5.240902259062886,0.0962705607686739
12.356492000000005,5.254084785637208,0.095742505103594
12.361088000000002,5.264524867419956,0.0951871424635709
12.365680000000005,5.262739421078074,0.0947164673600426
12.370276000000004,5.261520756858289,0.0941453819847572
12.374868,5.252940290894549,0.0935917085127404
12.379448000000004,5.235199154291556,0.0930661991237622
12.384032000000005,5.216514441792286,0.0924881506939074
12.388612000000002,5.196641783968451,0.0918761158802642
12.393204000000004,5.174271050781335,0.0912071944947138
12.397800000000004,5.150712372269651,0.0904996636796532
12.402388000000002,5.118936599014992,0.0898620956802622
12.406984,5.083929642112177,0.0892191622142686
12.411563999999998,5.047490370456504,0.0885550158803984
12.416156,5.006431741848445,0.0879295342733906
12.420744,4.961775375449795,0.0873258733635201
12.425344000000004,4.907880295146375,0.0868071998320119
12.429932,4.855251203433044,0.0862424152734076
12.434532000000004,4.80454316532915,0.0856461126377362
12.439116,4.747949781682787,0.0851246980654541
12.443704000000004,4.687025551960959,0.0846821201463506
12.448300000000003,4.630476309763225,0.0842028180891581
12.452896000000004,4.572416709547113,0.0837713634137251
12.457492000000002,4.522329834645686,0.0832789180052366
12.46208,4.469344428421653,0.0828820007834649
12.466672000000004,4.417546967522188,0.0825151578877389
12.471264000000003,4.376298350566206,0.0820746450177735
12.475856,4.3359933095065,0.0816846361643481
12.480444,4.295976779323713,0.0813332213010357
12.485032000000004,4.259479943665999,0.0810228472833954
12.489620000000002,4.227768791123444,0.0807195036205728
12.494216000000002,4.204563244200786,0.0803892425321038
12.498800000000005,4.184877391803202,0.0801065549225542
12.503384000000004,4.173941514453804,0.0797791680225906
12.507972000000002,4.169834558543152,0.0794296246901795
12.512556000000004,4.173455958518895,0.0790576734611127
12.517152000000005,4.187626202438119,0.0786320575653592
12.52174,4.202617837539475,0.0782761641836035
12.526348,4.226481632403162,0.0778772827254074
12.530944000000003,4.262937509533921,0.0773986342795989
12.535548,4.309531535017096,0.0768495300399781
12.540136000000004,4.362055047491371,0.0763088800895377
12.544724000000002,4.419852981937385,0.0757524954775709
12.549328000000004,4.483291892497579,0.0751634193107209
12.553912000000004,4.549551291114861,0.0745550919568386
12.558504,4.624272153903411,0.0738886128840493
12.563084000000003,4.697727028101877,0.0732820037615742
12.567684,4.775679074538583,0.0726640402177531
12.572264000000004,4.8582504779276725,0.0720238816461119
12.576864,4.940821881316762,0.0713949126598864
12.581452,5.025436523029438,0.0707566413225412
12.586044,5.111439338046346,0.0700975366790158
12.590636000000003,5.201117934119362,0.0693701031334383
12.595228,5.286177173239993,0.068693739068255
12.59982,5.375689443150235,0.0679667941766862
12.604416,5.456085183869855,0.067293838975504
12.609004,5.531450872046023,0.0666302246314773
12.613592000000004,5.609470722116507,0.0659079411866354
12.618172,5.681561085195892,0.065204722215679
12.622768,5.747599776570032,0.0645247742720556
12.627360000000005,5.804521938753552,0.0638975071054324
12.63196,5.849995822545938,0.0632946231435042
12.636552000000002,5.891461272956668,0.0626813175626241
12.64114,5.924831813338569,0.0620988063667266
12.645740000000004,5.954071735624667,0.0615075941141151
12.650328000000002,5.971374640663049,0.060964387369815
12.654924,5.980049755367392,0.0604190028429606
12.659512,5.980097079737694,0.0598718783054091
12.664100000000005,5.971272244345662,0.0593352433106817
12.668716000000003,5.954596868353091,0.0587959696437474
12.673300000000005,5.929049332598187,0.0582644023488189
12.677888000000005,5.893608017919157,0.0577470144013597
12.682476,5.846762566297624,0.0572819793506506
12.687064,5.795009246846787,0.0567875374681787
12.691672000000004,5.729031302396358,0.0563538983389455
12.696264,5.665340965697808,0.0558773962173951
12.70086,5.59985176010396,0.0553941643431614
12.705440000000005,5.527044894214786,0.0549173342632987
12.71004,5.445776564154343,0.054461203938675
12.714628000000005,5.357068389084427,0.0540172479557403
12.719228,5.26553972595742,0.0535735259245171
12.723812000000002,5.175809931725711,0.0531135100373643
12.728412,5.082893095294475,0.0526783371260653
12.733008000000003,4.98486816305427,0.0522791727439766
12.737604000000005,4.88533287279569,0.0519128705791518
12.742196,4.789517505041848,0.0515220144437945
12.746792,4.6970555056503045,0.0511320418065581
12.751380000000005,4.607946874621062,0.0507446665327095
12.75598,4.523213231115913,0.0503517022489156
12.760572000000003,4.4456750631919455,0.0499425399399254
12.765156000000005,4.371123709487842,0.049568773188443
12.769748,4.301602408327188,0.0492092125654216
12.774336000000003,4.239398767461863,0.04882866017053
12.778916000000002,4.1798153866739645,0.0485153936032204
12.783512000000002,4.1289819809342525,0.0482146305794797
12.788104000000004,4.078559270785607,0.0479448346747886
12.792696,4.029202321247381,0.0477298605937829
12.797284000000005,3.9855304892719623,0.0475587538868992
12.801872000000005,3.952407501240027,0.0474028994189593
12.806464000000004,3.930854976313368,0.0472536203015666
12.811060000000005,3.913433069482512,0.047132637177134
12.815640000000002,3.9010412151951046,0.0470407160022747
12.820252000000004,3.89057041451714,0.0469366377553202
12.824832,3.8931804349628263,0.0467924066644428
