Time,Force,Position
9.720044,2.606799049604425,0.1565151783127287
9.724624,2.6962237274841305,0.1561867563724832
9.729224,2.7758224300734886,0.1557391968237619
9.733807999999998,2.8512802749353057,0.1549875955009381
9.7384,2.9177776771375346,0.154407858698697
9.742979999999998,2.9749039410891083,0.1539095549183789
9.747572,3.023680685951821,0.1534607098636695
9.752159999999998,3.061531793096875,0.1531335337713222
9.756755999999998,3.0953642272285338,0.1525884232297967
9.761344,3.121580250556206,0.1519659142213077
9.765931999999998,3.1365821252893,0.1513819188474972
9.77052,3.1420465356089657,0.1507874629207809
9.775111999999998,3.1400608612874192,0.1501846558366673
9.7797,3.136276318070576,0.1496376719264122
9.784283999999998,3.135067893482532,0.1490232851587301
9.788876,3.132837849732693,0.1484509355033288
9.793456,3.140213074030062,0.1474932041381738
9.798048,3.15179695968875,0.1463422590653486
9.802639999999998,3.161826345880433,0.1452247065580817
9.80722,3.163516452614995,0.1444058749277036
9.811816,3.160465017683026,0.1437570925326672
9.816407999999996,3.154104355837385,0.1432758581148105
9.821011999999998,3.14983107376396,0.1427944872879324
9.825604,3.1472344758716844,0.1422786190148786
9.830191999999998,3.1486021699124374,0.1416105464129411
9.834796,3.149847679239045,0.1409509734625912
9.839384,3.1501937541180043,0.1403169663305146
9.843976,3.151972143749822,0.1396762981827385
9.848556,3.149297502592029,0.1392634599057009
9.853156,3.14511250341586,0.1389614609231426
9.857744,3.1475120562501453,0.1385340965510242
9.862343999999998,3.151221739123144,0.138119165966561
9.866936,3.1580404209301505,0.1376743886673147
9.871532,3.170133524708899,0.1370990954504249
9.876124,3.1777735976980366,0.1367402789869945
9.880715999999998,3.1894221040688304,0.1363226338260628
9.885315999999998,3.201114751888252,0.1360095583445232
9.8899,3.2111748569751524,0.1358241798234431
9.894504,3.2206240384913243,0.1357170964053582
9.899095999999998,3.233959468675007,0.1355684347311713
9.903684,3.253468755278079,0.1352705223751021
9.908271999999998,3.27633141024345,0.1349120424893814
9.91286,3.3033246833046253,0.13449620753859
9.917452,3.3325275208521603,0.1340945067609573
9.92204,3.356622262590728,0.1338813789442364
9.92664,3.3850919918533893,0.1335711145960991
9.931232,3.4158934703165573,0.1332410434868319
9.935819999999998,3.449148882694377,0.132877485348079
9.940412,3.487800901758084,0.1323807049455312
9.945,3.5305835389175937,0.1318240600402194
9.949592,3.568502449696427,0.1314344298654356
9.954188,3.60642136047526,0.131041379996387
9.958771999999998,3.642663587072943,0.1306934369774438
9.963384,3.6777620097946864,0.1304143944855333
9.967971999999998,3.715025855554163,0.130038227412876
9.97256,3.749713582684841,0.129713606630692
9.977156,3.781825191186722,0.1294442266108943
9.981744,3.81430335383104,0.129141213654876
9.98634,3.8491913089413816,0.1287332632916822
9.990932,3.8830135034413016,0.1282843234893298
9.995536,3.913604514293068,0.1278833332204523
10.000116,3.942108145372618,0.127479717479198
10.004716,3.961861801403981,0.1272343347793916
10.009299999999998,3.975808155158392,0.1270689509963492
10.013888,3.9971502124736498,0.1266631932582688
10.018468,4.018448128340278,0.1261959381512451
10.023064,4.0356154261111055,0.1257751884372391
10.027651999999998,4.052205702128093,0.1252698462241495
10.032244,4.064376849172358,0.1247704094186567
10.036832,4.06996344420617,0.1243419384139939
10.041427999999998,4.075750267219644,0.123815309916055
10.046016,4.081126394642054,0.1232537407922893
10.050608,4.08465951172054,0.1226569498277455
10.055196,4.07968702317913,0.1221710935387295
10.059784,4.075692012350885,0.1215832314287082
10.064372,4.071652860074013,0.1209217371146928
10.068964,4.063072394110272,0.1202646717694017
10.073555999999998,4.049584060317227,0.1196522049443561
10.078144,4.031842923714235,0.1190932838746763
10.08274,4.01164785319659,0.1185534461187391
10.08732,3.9879772296025,0.1180623262736443
10.091907999999998,3.9625077371131137,0.1175999115605141
10.096516,3.945988447651578,0.1168954508194896
10.101103999999998,3.929591342904188,0.1161724148923998
10.105712,3.9043662198430926,0.1156710351345798
10.1103,3.875176804848969,0.1152671733863854
10.114888,3.848030628178433,0.1148026899377056
10.119483999999998,3.817330855165933,0.1144719973152056
10.124079999999998,3.7885962772115023,0.1141675182487347
10.128688,3.7673015442665454,0.1137078534982839
10.133279999999996,3.746950387217866,0.1133054734130285
10.137872,3.7298304138173406,0.112880078435862
10.142452,3.7114885932753583,0.1125812726399956
10.147052,3.701652378353272,0.1121806705062407
10.151628,3.692637554613316,0.1118531583294426
10.156231999999996,3.68612080623664,0.1115821789617741
10.160811999999998,3.6858220557279817,0.1112947449654393
10.165407999999998,3.6898202494779,0.1110330263886975
10.17,3.698604126342976,0.1107477643714012
10.174592,3.71474980495201,0.110412129444649
10.179192,3.7385016547332905,0.1100000246431695
10.183783999999998,3.7670391876297296,0.1095698135824098
10.188372,3.790390581451685,0.1093679076585866
10.192963999999998,3.822247580893536,0.1090887107581792
10.197552,3.8629767400977193,0.1086882135546956
10.202139999999998,3.912333689635944,0.108205611147116
10.206724,3.968030821756333,0.1077166984553062
10.211315999999998,4.031700679191404,0.1071349150904371
10.215911999999998,4.097946655255276,0.1065404488323322
10.220487999999998,4.162682273300771,0.1060451753099072
10.225084,4.2301161946892085,0.105523969777254
10.229672,4.2995933544012335,0.1049835588558452
10.234276,4.373689871065645,0.1043719578148397
10.23886,4.449829626053642,0.103740256181175
10.243443999999998,4.527890434651081,0.1030918893086596
10.248039999999998,4.607461601266896,0.1023982743511207
10.25262,4.689198190920443,0.1016745678596216
10.257208,4.772445138592367,0.1008972902919931
10.261804,4.854792651816643,0.1001430868083179
10.266391999999998,4.932232297211615,0.0994280967190116
10.270984,5.008239627853728,0.0987274752910228
10.275563999999996,5.082159578723625,0.0980213970275377
10.280156,5.159222430344421,0.0971903250328453
10.284736,5.224959188288232,0.0964632322613191
10.289336,5.283989209507442,0.0957834209460182
10.293928,5.333980744801545,0.0951511844047936
10.298524,5.377221401922421,0.0945051747519829
10.303115999999996,5.410524138670541,0.093901978262485
10.307712,5.441084430627091,0.0932765874160167
10.312312,5.464937985859041,0.0926769806544239
10.316908,5.482329173794682,0.0920880492364195
10.321491999999996,5.490970386682136,0.0915613947735116
10.326084,5.492616351968069,0.0910221745703005
10.330671999999998,5.487922134671839,0.0904825822067533
10.335256,5.473945062022212,0.0899768702290475
10.339843999999998,5.45338343736213,0.0894827907194936
10.34444,5.425460010958091,0.0889969969246503
10.349019999999998,5.391196401971889,0.0884995316900465
10.353608,5.352391479298822,0.087977077223976
10.358204,5.308800873510593,0.0874429728162528
10.362792,5.252862554883587,0.0869811317403375
10.367384,5.190750379837191,0.0865521273593165
10.37198,5.122464348371405,0.0861505313001241
10.376568,5.0536454366004095,0.0857212971764715
10.38116,4.982494775628907,0.0852742678157889
10.38574,4.91007812606732,0.0848531737986008
10.390332,4.832797750125057,0.0844844776124534
10.394927999999998,4.755273004754502,0.0841251454813919
10.39952,4.670186229660328,0.0838441190042775
10.404116,4.587142692889741,0.0835191575694581
10.408696,4.504876405852656,0.0831857623592428
10.413296,4.425308422158514,0.0828203013039462
10.417884,4.347050568503084,0.0824696376665443
10.422479999999998,4.269081225724574,0.0821486902315937
10.427068,4.1974079240796005,0.0817634720074872
10.431668,4.127944186920987,0.0813857808413877
10.43626,4.059668395086941,0.0810362456402235
10.440855999999998,3.9952788519204048,0.0806912072175652
10.445444,3.9370631651732575,0.0802940265977174
10.45004,3.8854320304365673,0.0798878688376253
10.454631999999998,3.84794747743395,0.0793928012671872
10.459224,3.819457268907812,0.078827102535771
10.463803999999998,3.795752743496832,0.0782718821022137
10.468396,3.782597062029335,0.0776622597445804
10.472988,3.7770475517340856,0.0770406662920154
10.477575999999996,3.775628659534639,0.0764185716110197
10.482164,3.786679664888116,0.0757268550731644
10.486755999999998,3.807257895023283,0.0750086239671226
10.491351999999996,3.8394065882637256,0.0742239332113997
10.49594,3.8822263101617978,0.0734056487077269
10.500527999999996,3.932774387946263,0.0725840597303359
10.505116,3.9893741374359712,0.0717628208599099
10.509703999999996,4.053946612240365,0.070920613734319
10.5143,4.121750270692913,0.0700951873155406
10.518876,4.19548341613656,0.0692974156884567
10.523476,4.2724477452283605,0.0685226115531722
10.528068,4.356607549901344,0.0677274660541353
10.532655999999998,4.441300234879537,0.0669681017017912
10.537264,4.524849115981793,0.0662629517633587
10.541844,4.611218485141137,0.0655607385914059
10.546435999999998,4.694767366243393,0.0649014451731577
10.551016,4.776273009022061,0.0642922812412588
10.555616,4.857778651800729,0.0636903928866372
10.560192,4.934787122341158,0.063128183468772
10.564792,5.008975104824498,0.0625977106857151
10.569376,5.08814899840266,0.0620314792902291
10.573968,5.159883046971348,0.0615220577805398
10.578563999999998,5.2263426735682925,0.0610322764906475
10.583156,5.291125615984089,0.0605549066124186
10.587744,5.343604987009734,0.0601611892817278
10.592332,5.387212198273048,0.0597865644776735
10.59692,5.425667172278764,0.0594160796791168
10.601504,5.456926670703298,0.0590677631505522
10.606092,5.484954985479677,0.0587041982828559
10.610691999999998,5.50308952133193,0.0583654720143185
10.615284,5.521057731021409,0.0579851403463001
10.619872,5.527333292891466,0.0576273750988268
10.624463999999998,5.531032736132725,0.0572660142049813
10.629048,5.526925780222074,0.056956252818878
10.633644,5.513702295120798,0.0566702854686435
10.638232,5.499046495266663,0.0563631965275457
10.642808,5.477972469564849,0.0560723800074892
10.647404,5.452645641053087,0.0557698158267063
10.651991999999998,5.419878967531849,0.0554904583251833
10.656584,5.382082241467161,0.0551900400756262
10.661172,5.3323484981547615,0.0549180007873386
10.66576,5.278484136746558,0.0546200954328064
10.670356,5.221144222261909,0.0543122073890438
10.674939999999998,5.154687778586637,0.054016513090738
10.679539999999998,5.086799020158505,0.0536915881757432
10.684128,5.017111392835077,0.0533593745766748
10.688728,4.938595747197946,0.0530824497341541
