Time,Force,Position
9.725112,2.0692901504830807,0.1678289702573953
9.729703999999998,2.1695860850000783,0.165654365193266
9.734284,2.2710597252099043,0.1630252548077318
9.738868,2.366882149673813,0.1605040666616307
9.743455999999998,2.4571755431059508,0.1581227583451449
9.748051999999998,2.536998135860122,0.1564666151511412
9.752644,2.6112136543170053,0.1549600889051809
9.75722,2.680965902352538,0.1534204425308005
9.761803999999998,2.7457661411101384,0.1520553601815519
9.766388,2.8079019783416848,0.1506715920828833
9.770975999999996,2.865818914580172,0.1492843410747313
9.775568,2.915308288464282,0.1481029337346971
9.780155999999998,2.957758273298244,0.1469842097495999
9.78476,2.9914141416353903,0.1460934230920553
9.789351999999996,3.01517623104841,0.1455904700365647
9.793936,3.044134699167654,0.145048178150688
9.79854,3.077634480973765,0.1444621751149936
9.803131999999998,3.1151426961615334,0.1437913139197688
9.807724,3.1526950527979296,0.1432176550981622
9.812303999999996,3.194255842815982,0.1425863506951237
9.8169,3.235572263405743,0.1420272138162869
9.821479999999998,3.2763999451389214,0.1415551616180982
9.826076,3.3162060077103064,0.1411584895065128
9.830664,3.356422765872757,0.1408046591356718
9.835255999999998,3.397416773768709,0.1404633447201591
9.839848,3.4395545855406,0.14006555052983
9.84444,3.4846350700837267,0.1395846248886386
9.84904,3.531636608236294,0.1390516974446422
9.853631999999998,3.577328016350149,0.1385227557445798
9.85822,3.618277882797473,0.1381496363616846
9.862816,3.654608392292412,0.1379076504856806
9.867404,3.692449259805728,0.1375746614575609
9.871987999999998,3.73065668146148,0.137202780344404
9.876576,3.768819961668605,0.1367498850818536
9.881172,3.8079607195888943,0.1361924407128767
9.885759999999998,3.843459598269965,0.1356517645747528
9.890348,3.875971662731173,0.1351337700855288
9.894944,3.909339020191399,0.1345320810923483
9.899524,3.939841748145908,0.1339209106142206
9.904115999999998,3.9638821088041087,0.1333957151990336
9.908711999999998,3.9792946791282686,0.1330305970891158
9.995995999999998,3.48204733008975,0.132842720918548
10.000595999999998,3.442841951457355,0.1327644896000638
10.005191999999996,3.408133745063199,0.1325744084316301
10.009784,3.3752244075643385,0.1323427732137698
10.014376,3.3439917542466286,0.1320795997876183
10.018964,3.3181557076148054,0.1316863217880415
10.023552,3.295550844631136,0.131245803876289
10.028136,3.276954415029124,0.1307558847974934
10.032732,3.2618335385035566,0.1301934851931256
10.037323999999998,3.25480757200682,0.1294394463721654
10.041904,3.251179115321013,0.1287155889300183
10.046504,3.2522141570362177,0.127954722926872
10.051091999999995,3.2607331852095256,0.1270948797188248
10.055688,3.2721168428885505,0.1262523102159577
10.060275999999998,3.2844440764638514,0.1254758694519495
10.064864,3.300657558706664,0.1246660998795698
10.069468,3.3179368015598976,0.1239076071537134
10.074056,3.34167841170944,0.1230732980479565
10.078664,3.3694284552406386,0.1222043228668192
10.08324,3.4011869321534944,0.121321539564469
10.087832,3.437486722753217,0.1204346846872533
10.092423999999998,3.4776727620204517,0.1195520579641956
10.097019999999995,3.5170035082886657,0.1187806257101401
10.101612,3.5599761337961,0.1180187838302883
10.106203999999998,3.60581338880925,0.1172770511394515
10.110799999999998,3.6566806963658514,0.1165051133975655
10.115379999999998,3.705504765598865,0.1158170604820637
10.119979999999998,3.754739530422945,0.1151743812307947
10.124571999999995,3.8011979486385625,0.1146782760668011
10.129168,3.8479448777311,0.1142566447829314
10.13376,3.895835610699577,0.1138038797643867
10.138355999999998,3.945647397277495,0.1133230018003751
10.14296,3.989573838312944,0.1129989358634671
10.147551999999996,4.031701410453096,0.1127111541864878
10.152144,4.0765272859361925,0.1123846451012827
10.156736,4.124540203618816,0.1119771020721864
10.161312,4.175617978786819,0.1115014965527473
10.165896,4.227184492811404,0.1109941510953949
10.170483999999998,4.276952137940694,0.1105220664002533
10.175079999999998,4.324143664441187,0.1100973401799902
10.179672,4.371291049493051,0.1096224215374398
10.184264,4.415329435610906,0.109168606856916
10.188848,4.460878179747138,0.1086516021891676
10.193435999999998,4.50752658631068,0.1080498922890039
10.198027999999995,4.555274655301534,0.1073683481944019
10.202611999999998,4.594517118672491,0.1067707474531735
10.207188,4.631305648128797,0.1061856945487098
10.211796,4.669071655298267,0.1055256187539654
10.216383999999998,4.70908112877099,0.1047407350954546
10.220972,4.745326538290346,0.1039569256055729
10.225568,4.776541895266252,0.1032096096043556
10.230155999999996,4.802072134679351,0.1024910029650009
10.234748,4.82678098291032,0.1017075224934018
10.23934,4.850546255245012,0.1008758232442312
10.243931999999996,4.870136768035275,0.1000110178500946
10.248511999999998,4.885841032158027,0.0991567875614386
10.253107999999996,4.898558482060915,0.0983021035309779
10.2577,4.906123694706208,0.0974868619980176
10.2623,4.910702093131638,0.0966566456734904
10.266896,4.908451570118323,0.0958662569781533
10.271487999999998,4.897861767647885,0.0951768603926416
10.276072,4.883918596815147,0.0945014090485753
10.280668,4.867643676781903,0.0938228642047274
10.285263999999998,4.845849965348625,0.0932057283156256
10.289863999999998,4.816494224191727,0.0926839694181203
10.294452,4.786361233301328,0.0921540911145862
10.299048,4.757249861572721,0.0916012471513027
10.303624,4.722497513729937,0.0911157322060952
10.308215999999998,4.684924677830064,0.0906584492962143
10.312804,4.6463302227683965,0.0902142204364798
10.3174,4.610678440477964,0.0897181044215685
10.321991999999998,4.574660104045095,0.0892463951631155
10.326572,4.538397398183935,0.0887888295938785
10.331156,4.500746519018544,0.0883747953187126
10.335743999999998,4.466326823501308,0.0879503415480097
10.340332,4.428231346927962,0.0876280801600882
10.344935999999995,4.387970447316883,0.0873457451849757
10.349524,4.353106154391692,0.0870105788683096
10.354115999999998,4.319918545647651,0.086665266822017
10.358704,4.2917609894470585,0.0863012558481633
10.363295999999998,4.273985951027177,0.0858076939726282
10.367891999999998,4.257521042646008,0.0853367613520543
10.372491999999998,4.240567395408257,0.0849051144769582
10.377095999999998,4.228888170142247,0.0844383244226385
10.381676,4.224160051029127,0.0839324074899473
10.386267999999998,4.22470635388775,0.0833922373810542
10.390847999999998,4.226029906479875,0.0828552039273606
10.395447999999998,4.236714357690914,0.0822220466405526
10.400036,4.253450480607199,0.0815707576159972
10.404636,4.273784341314075,0.0808966712178476
10.409228,4.293629463164367,0.0802676935604051
10.413819999999998,4.323857102795369,0.0795429372498933
10.418399999999998,4.354617622731582,0.0788396658871779
10.422995999999998,4.391796368515475,0.0780936304373488
10.427588,4.426443137119199,0.0774280676165798
10.43218,4.466975251265391,0.076684558871897
10.436767999999995,4.50791806100265,0.0759719656975745
10.441351999999998,4.547717066863969,0.0753015395846824
10.44594,4.589314941620584,0.0746261844879495
10.45054,4.631035001091345,0.0739441029537485
10.455127999999998,4.667646964753137,0.0733543682110607
10.459719999999995,4.7107993389767575,0.0727208538584113
10.464316,4.756894385971612,0.0720587011520669
10.468903999999998,4.798247891299935,0.0714468425906365
10.473495999999995,4.839967950770696,0.0708208568269112
10.478084,4.883364694422607,0.0702095171100908
10.48266,4.928682491683958,0.069588089541705
10.487256,4.960430728965076,0.0691024814575016
10.491844,4.988459043741456,0.0686528263879111
10.496444,5.010602012975364,0.0682630910815878
10.501036,5.035809839694655,0.0678396957637762
10.505636,5.048469725595503,0.0675334578745083
10.510236,5.064316653695878,0.0671823967583968
10.514823999999996,5.073867540662717,0.066860147223157
10.519427999999998,5.082108297590845,0.0665084289531915
10.52402,5.091370673680766,0.0661496849872664
10.528616,5.104963895846152,0.0657280936760593
10.533196,5.113282696039796,0.0653166423430478
10.537792,5.123522549842883,0.0648953796380011
10.542372,5.137848880293142,0.0644339456070447
10.546972,5.147678038505163,0.0639829619994679
10.551564,5.149534471402498,0.0635520354066194
10.556148,5.149836404832829,0.0631117919802571
10.560736,5.155002064643836,0.0626352925108256
10.565327999999996,5.155792736930751,0.0621645295216432
10.56992,5.149510118350628,0.0617036855141253
10.574512,5.139507577265767,0.0612597043976732
10.5791,5.141153542551701,0.060728441668602
10.583688,5.138302335599396,0.0602054121930479
10.588276,5.141703028331997,0.0596096943016068
10.592872,5.140362179398068,0.05904268366567
10.597464,5.144129426273105,0.0584190930518836
10.602048,5.145076185091055,0.0578119515704749
10.60664,5.146800193642506,0.0572090922129451
10.611231999999998,5.152244124698695,0.0565924074173731
10.615824,5.152946514088352,0.0560027788081647
10.620407999999998,5.1487851770973325,0.0554473809988358
10.625,5.149121012344554,0.0548827363971068
10.629607999999998,5.141894817868155,0.0543521269543305
10.634187999999998,5.128661093135141,0.0538718114420275
10.638796,5.120946159802158,0.0533728845407858
10.643387999999998,5.114785725936181,0.0528851325689845
10.647992,5.103517196261236,0.0524403530048548
10.652583999999996,5.083665017700877,0.0520351163014332
10.65718,5.0621802964079965,0.0516775926846482
10.661783999999995,5.041472824848619,0.0513221443673998
