Time,Force,Position
10.506344,2.251714959974257,0.1818679607207158
10.510944,2.3717850297860963,0.1785188758537183
10.515532,2.4877583833190218,0.1756361785571046
10.520131999999998,2.5946049680295844,0.173347756659577
10.524724,2.693712957222014,0.171233082245705
10.529319999999998,2.789457338420406,0.1690187582491311
10.533904,2.874808962206349,0.1672250181837227
10.538496,2.952954870779372,0.1655672174986653
10.543095999999998,3.0237728794253256,0.1640288208112842
10.547688,3.0893062264678,0.1624574324559411
10.552276,3.1471009779921424,0.1609381977872436
10.556871999999998,3.195480449817202,0.1594903909324416
10.561456,3.235466261104772,0.1580397514307538
10.566052,3.2628497504935345,0.1568151032506848
10.57064,3.284137426728425,0.1557388539061056
10.575232,3.304403483801521,0.154719290518031
10.579824,3.321193987798172,0.1538211922719685
10.584404,3.335774927308462,0.1529522053532208
10.589,3.3497008017993952,0.1520644041511611
10.59358,3.360762046784611,0.1511861820180667
10.598171999999998,3.36392860972066,0.1504590957332267
10.602768,3.361043500951465,0.1498994813586198
10.607356,3.3561931971242007,0.1493319257037761
10.611956,3.35068782827758,0.1487581000162065
10.61654,3.3418290910686586,0.1482612279494293
10.621128,3.32704086686864,0.1479118705265576
10.625723999999998,3.3167056734582325,0.147328888662458
10.630323999999998,3.3046937958666747,0.1467831994385178
10.634928,3.2903501690746104,0.1462678018720984
10.639508,3.270609935596659,0.145916360762871
10.644096,3.2482935834899096,0.1456252805449832
10.648684,3.224711242793075,0.145410721787372
10.65328,3.200884532667949,0.1452235713887057
10.657863999999998,3.176036203381029,0.145086164360932
10.662463999999998,3.1501662549323166,0.1449854403109323
10.676232,3.0747762137042782,0.1449435743839387
10.680824,3.053369535676916,0.1448954252575275
10.685424,3.0371150949071484,0.1447120346046283
10.69002,3.026301402271897,0.1444538971018553
10.694608,3.024604238827269,0.1439067016247953
10.699191999999998,3.019231294326533,0.1435757027890581
10.703779999999998,3.015046295150364,0.1432754232682651
10.708367999999998,3.0182230977181512,0.1428357130467364
10.712967999999998,3.027740082868102,0.1423016986335076
10.71756,3.0335812869619434,0.1419887551301981
10.722155999999998,3.042409305275648,0.1416589883644949
10.726743999999998,3.053979768380924,0.1413430268851483
10.731343999999998,3.0723791529249462,0.1408722358665068
10.735919999999998,3.0942982319940424,0.1404084003438859
10.7405,3.120470113873087,0.1398528155772867
10.745092,3.150406059705496,0.1392800237617646
10.74968,3.187293111690796,0.1385464865264689
10.754268,3.226634097590749,0.1377895033054939
10.758864,3.2685512021195,0.1369876542482787
10.763452,3.314188229152988,0.1360864239042756
10.768048,3.361013201511044,0.135225218058964
10.772624,3.4104142924978964,0.1343338839174322
10.777228,3.4568727107135144,0.133560500680691
10.781807999999998,3.5016544447479827,0.1328351103817205
10.786408,3.5415724524017747,0.1322898612988503
10.790988,3.5856991214168863,0.1315798648702806
10.795588,3.6301923445744353,0.1308319297296795
10.80018,3.671576568797975,0.1301372336760465
10.804776,3.708707990211567,0.1295262411445329
10.809364,3.7487820843963937,0.1288321452951792
10.813947999999998,3.787423863828362,0.1281497292667645
10.818535999999998,3.824755513221617,0.1274549976466656
10.823132,3.8588559789667176,0.1268131601733143
10.82772,3.892135053529688,0.1261125391235021
10.832311999999998,3.922182944444505,0.1254548371509198
10.836899999999998,3.947567336958308,0.1248339766017171
10.841499999999998,3.967921676928661,0.1242941492663072
10.846087999999998,3.986965886860301,0.1237491640041038
10.850684,4.0018794786961385,0.1232554919118414
10.855275999999998,4.013928441026258,0.1227620511478364
10.859856,4.025933261907751,0.1222009485804848
10.864444,4.033152399674084,0.1216804500945089
10.869024,4.039838657135206,0.1211371127797001
10.873603999999998,4.042272111786382,0.120647698212656
10.878196,4.045316490008284,0.1200948700984596
10.882788,4.045662564887244,0.1195935307799933
10.887391999999998,4.041633652242108,0.1191586322502603
10.891984,4.034906436254032,0.1187720414797911
10.896567999999998,4.0295673935701855,0.1183168046670414
10.901164,4.020219917504682,0.1178916269101951
10.905744,4.008540692238672,0.1174746623811758
10.91034,3.997105836400952,0.1170312352499664
10.914928,3.9847715461155855,0.1166021114266286
10.919524,3.966429725573604,0.1163303988049776
10.924108,3.949109524193415,0.1160274729140985
10.928708,3.9362864950514656,0.1156437247059724
10.933292,3.9244850850713098,0.1152298647450815
10.937884,3.909618817605773,0.1148987165728497
10.94248,3.896429234321386,0.1145479899015525
10.947076,3.878009370513887,0.1143506019573358
10.951664,3.8556252147733594,0.1142527095482336
10.956256,3.8344290043573976,0.114187769390065
10.960844,3.81593109728438,0.1140727971626604
10.965436,3.805528100240193,0.1138175347608669
10.970024,3.7966796026630103,0.1135567534027559
10.974624,3.789629973981124,0.1132655734493209
10.979212,3.7906752553280674,0.1128429183601354
10.983804,3.794174470589665,0.1124011009086994
10.988388,3.79796219672818,0.1120098400097593
10.992976,3.802160618457761,0.1116526878490709
10.997568,3.8106118429972895,0.111251898402047
11.002156,3.823438055060913,0.1108024546524608
11.006747999999998,3.837940951305685,0.1103395542141851
11.011344,3.861804746169374,0.1097022387739754
11.015923999999998,3.8881224749477137,0.1090593969783817
11.020532,3.9132963998501142,0.1084693421158433
11.025123999999998,3.937981585895933,0.1079296112495893
11.029723999999998,3.964343456122901,0.1073727145964915
11.034316,3.99377018383525,0.106752103469659
11.038911999999998,4.033457244614162,0.1059571148048484
11.043508,4.077641477631314,0.1050968568712433
11.0481,4.124235503114489,0.1041616480364242
11.052692,4.171851147759458,0.1032273813210753
11.05728,4.216768489061485,0.1023591059005879
11.06188,4.257843723144628,0.1015644960021159
11.066456,4.300595641408921,0.1007735040644256
11.07106,4.340893625758562,0.1000204672564463
11.075644,4.384378652307728,0.09920858983825
11.080236,4.42912966744698,0.0983624782467152
11.084815999999998,4.476701170643321,0.0974777814957703
11.089412,4.5214521857825725,0.0966480519719404
11.094,4.561706028683586,0.0958868171999061
11.098591999999998,4.60388092519404,0.0951084608882921
11.103179999999998,4.638738161409165,0.0944254482021704
11.107772,4.671019278995493,0.0937690009128935
11.112364,4.699824843505375,0.0931416838442687
11.116955999999998,4.730140766033633,0.0924577585878211
11.12154,4.763765915475563,0.0917057667454733
11.12614,4.793426772984465,0.0910281135896484
11.130728,4.815359274606972,0.0904072191556079
11.135316,4.837780515086063,0.0897565197458508
11.139912,4.857381267508063,0.0891455960150911
11.144492,4.874528086015413,0.0885470027660644
11.149068,4.886400482551021,0.0879840052045491
11.153664,4.900560486838508,0.0873657068116696
11.158252,4.91173367690613,0.0867341896569737
11.16284,4.918287510021368,0.0861499619461799
11.167428,4.915602629231836,0.0856558932468907
11.172016,4.908787130346502,0.0851673974092569
11.17662,4.894898340594131,0.0847220803362663
11.181195999999998,4.880354485822403,0.0842628977047594
11.185795999999998,4.861680012954874,0.0838044083867097
11.190376,4.837076053096246,0.08336173425304
11.194971999999998,4.815903504865435,0.0828351747879718
11.199564,4.795097510777062,0.0822770855431855
11.204164,4.773758636383477,0.0816900030990312
11.208747999999998,4.750498708380452,0.0811234933767883
11.21334,4.719554565939662,0.0806434090431092
11.217928,4.690775846536604,0.0801187579056689
11.222523999999998,4.663429441886405,0.0796055516186002
11.22712,4.63031987640788,0.0791540838531486
11.231716,4.597987560662858,0.07870312042712
11.236304,4.5604249643947234,0.0783376466791949
11.240887999999998,4.525560671469533,0.0779485611985622
11.245468,4.4927396168679286,0.0775220729624774
11.25006,4.457264400372008,0.0771725014758275
11.254651999999998,4.423465868057238,0.0768170473522208
11.259239999999998,4.396329931018442,0.0763850953231632
11.263836,4.370626308732503,0.0759667574746072
11.268424,4.353384150617831,0.0754627528795871
11.273015999999998,4.3353647427696576,0.0749498042978316
11.277596,4.322375387464935,0.0744297878054752
11.282184,4.311473411932427,0.0739397729009534
11.286779999999998,4.301759381724486,0.0734912195201526
11.291368,4.2888583093170185,0.0730961650692718
11.295956,4.2802100397195,0.0726944817285034
11.300548,4.271561770121981,0.0722907931774846
11.305136,4.271374964695729,0.0718117628779522
11.309732,4.266324432888802,0.071385166585684
11.31432,4.263194954691316,0.0709389968416593
11.318916,4.268526940665097,0.0704229480952348
11.323504,4.276801599410113,0.0698785737233937
11.328104,4.2909616036976,0.0692628788678893
11.332684,4.305898857718588,0.0686541578564157
11.337284,4.319081384292908,0.0681270520141226
11.341876,4.337494191390343,0.0675194121444526
11.346476,4.361547974601955,0.0668771963061201
11.351068,4.383969215081046,0.0663029917026185
11.355664,4.411131997226667,0.0656985320214151
11.360252,4.436906606068057,0.0651481181943461
11.364848,4.465135148824099,0.0646099183763573
11.36944,4.495284745189583,0.0640643503166245
11.374012,4.527721949306946,0.0634770509217134
11.378595999999998,4.559504088404952,0.0628828005834057
11.383192,4.595250519435987,0.0622492815449608
11.387776,4.628953712143434,0.0616470835844643
11.392352,4.663434154584384,0.0610544507500157
11.396947999999998,4.69329524007295,0.0604943135442858
11.401532,4.7278978672280445,0.0599017082422296
11.406123999999998,4.76250049438314,0.0593168858729599
11.410704,4.790318341548119,0.0587940940092058
11.415292,4.810329789561185,0.058335057877812
11.419892,4.83148504145019,0.0578626470911731
11.424468,4.851863043605694,0.0573846893487848
11.429047999999998,4.867088808503601,0.056895984383197
11.433652,4.879127531201982,0.056452969588379
11.438244,4.882704789729097,0.0560552129973566
11.442836,4.88407248376985,0.0556238096262455
11.447423999999998,4.87685652892519,0.0552429456874088
11.45202,4.867431009594169,0.0548304325536156
11.456608,4.8532639485966165,0.054440859249872
11.461212,4.831534857875445,0.0540877425747987
11.4658,4.806740909668892,0.0537636691437613
11.4704,4.774917812043931,0.0535003639724195
11.47498,4.739252607200087,0.0532559460756448
