Time,Force,Position
9.17046,2.146595703469865,0.1566415575472556
9.175048,2.253829321586342,0.1564738757148832
9.179636,2.355578050119676,0.1562797001337956
9.184216,2.4555618115746034,0.1558631222656445
9.188812,2.5480954883883182,0.1554680374949202
9.193392,2.634733580027824,0.1550463597535513
9.197976,2.7138435437605994,0.1548150058266444
9.202556,2.795275017062143,0.1541856965221847
9.207132,2.870810905189477,0.153532287687745
9.211732,2.948912672313871,0.1524871807042735
9.216323999999998,3.0211188542640564,0.1513992894758619
9.220908,3.086530016592385,0.1503378659610046
9.225504,3.1480888320700924,0.1491856530114249
9.230099999999998,3.209515223201915,0.1477849293572349
9.234696,3.267211452197262,0.1462767984779777
9.239284,3.322742258154876,0.144900078069055
9.243875999999998,3.37774018380728,0.1435466367576017
9.248464,3.4237437649832048,0.1424438554513193
9.25306,3.4659052389402465,0.1414849811839729
9.257644,3.5050798986774256,0.1406103993174577
9.262244,3.5385694408517985,0.1398526898463475
9.266828,3.5758569487964253,0.1389155750887444
9.27142,3.610279827235336,0.1379791741981636
9.276008,3.6397948378449407,0.1371349257035206
9.280600000000002,3.669798587311129,0.1362446059416149
9.28518,3.698247837310312,0.1353791084847792
9.289776000000002,3.7265307611467215,0.134459056989697
9.294364,3.745164275487297,0.1337700307380281
9.298948,3.760444421465572,0.1331402361625852
9.303536,3.766730222967367,0.1327371573887891
9.308128000000002,3.770928644696948,0.1323253314349162
9.31272,3.774716370835464,0.1318797040477122
9.317308,3.772574609982882,0.1315402349952157
9.321896,3.764381177425056,0.1313186321791468
9.326476,3.7500138884478407,0.1312259476025476
9.335652,3.712729563424888,0.1311098563268143
9.34024,3.698029622122125,0.1308858933147776
9.344848,3.6845956694094464,0.1305970074502276
9.349436,3.6656429252967366,0.1304477877214062
9.354024,3.648733419507613,0.1302244539053481
9.35862,3.625039133728372,0.1301973960076474
9.36322,3.603920966577929,0.13012166804218
9.381583999999998,3.520480156769687,0.130019155303323
9.38618,3.5017378802683785,0.1299990624641006
9.390772,3.4847944726623656,0.1299386589488099
9.395368,3.472348237294592,0.1297756974111291
9.399968,3.464032620022621,0.1295535842716187
9.404564,3.4540844600181275,0.1294376644297689
9.409148,3.4482669181094363,0.1292635503779533
9.413744,3.447723798172486,0.1289845819504557
9.418336000000002,3.45437615381672,0.1285485385014807
9.42292,3.4650369428426098,0.1280752235917844
9.427508,3.4824044685930997,0.127499763253515
9.4321,3.503003177991743,0.1269090392952989
9.436687999999998,3.527077440466833,0.1262655116236024
9.441272,3.55516013632358,0.1255810566942404
9.44586,3.5854523966666867,0.1249146507805515
9.450456,3.616277537315005,0.1242606313361501
9.45504,3.646980493249178,0.1236281018547672
9.459628,3.6782163294885617,0.1230263581850026
9.46422,3.7122726537850346,0.1223643557937949
9.468808,3.7477612928343658,0.1217057176794589
9.473396,3.788402169141293,0.120972756469734
9.477992,3.8280214262864263,0.1202804571149704
9.48258,3.870216802060358,0.1195608599576261
9.487188000000002,3.910491124224848,0.1188982254082174
9.49178,3.9478227736181033,0.1183202078371178
9.496368,3.99014033410618,0.1176139987773882
9.500964000000002,4.034134578775408,0.116906395321117
9.505552,4.074286716225752,0.1163028907171744
9.510144,4.110474561743068,0.1158136301857172
9.514732,4.144741353650943,0.1153764152792869
9.519332,4.1791303302729625,0.1149391060193248
9.523912,4.208777765228452,0.1146104545619487
9.528512,4.236504146574501,0.1143303803685867
9.5331,4.263697647615338,0.1140326159735468
9.5377,4.286516161132082,0.1137969883867523
9.542292000000002,4.311377912972414,0.1135082023981844
9.54688,4.337383468688684,0.1131879325299574
9.551472,4.363755578547391,0.1128380659558653
9.556064,4.3875515697773,0.1125225597053405
9.560664,4.415678407082675,0.1120962412112507
9.565264,4.443394548796985,0.111651427720273
9.569856,4.474419917424966,0.1111250724260453
9.574448,4.502991352138296,0.1106209776050939
9.57904,4.533483840461066,0.1100861541194484
9.583624,4.566630490678153,0.1094580580953586
9.588212,4.595035599228708,0.1089183526513133
9.592808,4.618288470521668,0.1084306100092493
9.5974,4.64088627679527,0.1079316490897812
9.601992,4.662584648621226,0.107441561053596
9.606576,4.682972890408468,0.1069333630686458
9.611164,4.699108329385762,0.1064644182670118
9.615748000000002,4.718552995276728,0.10591401613009
9.620336,4.738242030595987,0.1053468390083471
9.624923999999998,4.755232762572302,0.1048129777301205
9.629512,4.776432155909935,0.1041882087072752
9.634104,4.798897537837654,0.1035284133119244
9.638692,4.819686235584221,0.1028865090928056
9.643284,4.840064237739726,0.1022229299008194
9.647875999999998,4.859787174875873,0.1015500728973938
9.65248,4.866429290888367,0.1010591966948729
9.657068,4.867552615500828,0.1006412055684407
9.661664,4.862257714265609,0.1003051654419853
9.666251999999998,4.85810661690633,0.099939482890204
9.670852000000002,4.849580532022956,0.0996121632754024
9.675436,4.840032827977789,0.0993047990860954
9.680036,4.8327727316845,0.0989382710030034
9.684632,4.823958135924208,0.098567189736629
9.689216,4.818452767077587,0.0981178629955207
9.693808,4.81535719069699,0.0975999554569971
9.698404000000002,4.812139429602247,0.0970905693140709
9.702992,4.809943287669298,0.096559478694644
9.707584,4.799285681565082,0.0961395366686583
9.71216,4.78707357599386,0.0957170065788293
9.716755999999998,4.778170697336312,0.0952156400523542
9.72134,4.762605223402791,0.0948053470850813
9.725936,4.744341446126327,0.0944203664259624
9.73052,4.725955484135715,0.0940439279898631
9.735112,4.704749034088016,0.0936998360003789
9.7397,4.681621530430874,0.0933798269860908
9.744288,4.67091978287803,0.0928852991103322
9.748880000000002,4.658296981715743,0.0924120302234484
9.753468,4.646451430286959,0.0919360800804689
9.758056000000002,4.631785390801085,0.0914946950098796
9.762648,4.617119351315212,0.0910488970439584
9.767236,4.598611204610456,0.0906562136006832
9.77184,4.578182004296259,0.0902887576179461
9.776432000000002,4.565314833705682,0.0898203775263739
9.78102,4.546562317572635,0.0894398939310034
9.785616,4.527032551706085,0.0890546566333289
9.790208000000002,4.5115892624867096,0.0885959677380392
9.794816,4.49794484216263,0.0881207492537822
9.799392,4.490963017114521,0.0875568616749362
9.803992,4.483614637923977,0.0870216442729134
9.808572,4.477820758200436,0.0864955447851252
9.813172,4.472804128210398,0.085965646289702
9.817764,4.469830736543947,0.0854011159081302
9.822360000000002,4.468001148753436,0.0848108044547914
9.826952,4.468625494877575,0.0842192839123908
9.831548,4.4748908171158925,0.0835672345955984
9.836136000000002,4.479890150764126,0.0829636269875378
9.840728,4.493473133297774,0.0822626921548755
9.845328,4.5108982230503045,0.0815193315360159
9.84992,4.532698300326928,0.0807588624699351
9.8545,4.563082026488965,0.0799148271507479
9.859084,4.598085109603385,0.0790327526772587
9.863672,4.634887061613103,0.0781443779862772
9.868264000000002,4.668257601995003,0.077347547114546
9.872856,4.708823617958086,0.0765086711831282
9.877448,4.750044698940525,0.0756936480145443
9.882036,4.787956553009292,0.0749550355047361
9.886624,4.824968972630411,0.0742289278183044
9.891216000000002,4.861859207537385,0.073521878617212
9.895804,4.900015431034444,0.0727846599159608
9.900391999999998,4.933307928150826,0.0721055689493538
9.905,4.97326302054318,0.0713714713784638
9.909584,5.009908886021862,0.0707004466340471
9.91418,5.046554751500545,0.0700393710704679
9.918772,5.082178997817433,0.0693958429887484
9.923372,5.114982756077232,0.068783933894457
9.927968000000002,5.145987645441736,0.0681898820324244
9.932556,5.173028242873212,0.0676474692410659
9.93716,5.197248352247598,0.0671300966404374
9.941748,5.220813396602629,0.0666074628967047
9.94634,5.23849309541519,0.0661489145960436
9.950920000000002,5.253474490884805,0.0657030329923122
9.955520000000002,5.267556451906774,0.0652631104410382
9.960104,5.27750779483294,0.0648112344154959
9.964704,5.283206334949158,0.0643609729617189
9.9693,5.286084387008287,0.0639276321900134
9.973892,5.2874079396004126,0.0634820300322824
9.97848,5.287954242459034,0.0630307819600338
9.983076,5.288500545317657,0.0625817726510845
9.987672000000002,5.292644585966872,0.062127201296986
9.992272000000002,5.2999756688156126,0.0616329586525121
9.996848000000002,5.301665775550174,0.0611714367374609
10.001436,5.306787293912554,0.0606544761431877
10.006023999999998,5.307822335627759,0.0601776032506226
10.01062,5.309223931485401,0.0596768463217899
10.015212,5.308826658447748,0.0591790572749611
10.019804,5.304953832333649,0.0586794904607364
10.024396,5.301203190933696,0.0581720430315817
10.02898,5.2982297992672445,0.0576705040373739
10.033575999999998,5.289737616200759,0.0571854934936393
10.038164,5.276748260896036,0.0567041131873784
10.042748,5.261715667267727,0.0562387069161274
10.047344,5.243862585582328,0.0557829560045093
10.051927999999998,5.227686188078078,0.0553273698354114
10.056527999999998,5.209588736964388,0.0548786530403191
10.061116,5.193290154745993,0.0544251668524666
10.065703999999998,5.177646637546953,0.0539843857967544
10.0703,5.162536000653126,0.0535662149048093
10.074892,5.142561637378621,0.0531763695480073
10.079484,5.115147429094642,0.052809997630006
10.084064,5.081603505839903,0.0524963883925446
10.088664,5.051002255356398,0.0521597714366898
10.093248,5.015048539635634,0.0518828948675947
10.097852,4.981138062238457,0.0515844328665341
10.102444,4.943385477622399,0.0513008769434247
10.107044,4.905266338863903,0.0510396881306924
10.111628,4.866658461248825,0.050808452606452
10.11622,4.82600734531016,0.0505925411697896
10.120816,4.7833129910479055,0.0503932057118838
10.125412,4.743972005147953,0.0502054523869235
10.13,4.710027625933886,0.0500112043807522
10.134592,4.679803169224558,0.0498041336477455
10.13918,4.651377581410525,0.0495928802231271
10.143764,4.625650296939435,0.0493785676161732
10.148352,4.600455892773556,0.0491877741263956
10.152944,4.573462619712383,0.0489947815736883
