Time,Force,Position
14.28228,1.6775378913284988,0.1566912302587249
14.28692000000001,1.7461329129346808,0.1563922322622109
14.291567999999998,1.809653740548785,0.156095082027647
14.296196000000007,1.8716981119614011,0.155571627316249
14.305459999999997,1.9730463845354087,0.1555630005460534
14.319360000000003,2.092770379468288,0.1555430513078359
14.323992000000004,2.123548195746305,0.1554023379213377
14.328632,2.152805414374207,0.1550016639011113
14.333272000000008,2.184961164324716,0.1542755964342531
14.337904000000009,2.2203039564747518,0.1533397917754049
14.342551999999998,2.2528262605676974,0.1526126018676756
14.347176000000005,2.2848156843554324,0.1518693448854367
14.351827999999998,2.321913203952134,0.1508646716750101
14.356468000000008,2.3521818021100915,0.1501670374188102
14.361103999999996,2.380485205209979,0.1494609137482827
14.365744000000008,2.404902359642356,0.1488214648980216
14.370379999999995,2.4291531879119588,0.1480837482877183
14.375008000000008,2.447352344476317,0.1475681110422743
14.379648000000005,2.4614208829448736,0.1471716900242814
14.384280000000004,2.478265768021892,0.1465319235059572
14.388924000000005,2.495965946097929,0.1457600105006315
14.393563999999998,2.515010156029569,0.1447449436121538
14.398192000000009,2.5387517661791112,0.1434079505035877
14.402832000000004,2.55170016295688,0.1424911177813696
14.407476000000004,2.5682021560766115,0.1413308583176434
14.412108000000003,2.5823723999958363,0.1401889061382316
14.416752000000002,2.594865959733911,0.1390969091607044
14.421396,2.606337900310192,0.1380819571273037
14.426023999999998,2.6129019730571685,0.1371937955709313
14.430672,2.6132921893847554,0.1365171197514132
14.514160000000004,2.3681117575858908,0.1363154719067661
14.518792000000005,2.364181367469752,0.1362450482180132
14.523440000000008,2.361927661534762,0.1361362405733701
14.528064,2.3657256273050176,0.1358622977001081
14.532708,2.37377639588522,0.1354813785983757
14.537344000000004,2.386202151989516,0.1349615001605888
14.541976000000004,2.4010818420084643,0.1343850907483749
14.546616,2.420048008674587,0.1336237877457168
14.551252000000003,2.441590293969507,0.132804732519912
14.555887999999996,2.465708697893225,0.13193691902906
14.560519999999997,2.490726536264591,0.1310624052063362
14.565156000000002,2.515866559350103,0.1301976847660501
14.569792000000009,2.5362650407690834,0.1294955524778108
14.574424000000008,2.561649433282887,0.128579481510961
14.579064000000002,2.5920197368915114,0.1274695283904199
14.583692,2.6286860816336715,0.1261895685417348
14.588328000000004,2.66931671830886,0.1247610459761842
14.592960000000003,2.71019172441234,0.1232930743695365
14.597608000000008,2.749800741925734,0.1219476308780833
14.602248000000005,2.7865892713820406,0.1207265286831408
14.606880000000004,2.8222339969624066,0.1195959462905092
14.611528000000009,2.853625919732825,0.1185915086857799
14.616160000000008,2.887960515274479,0.1174916076343132
14.620788000000005,2.919718992187334,0.1164748739843146
14.62542400000001,2.95286564240442,0.1154038739721397
14.630064000000004,2.987522650639882,0.1142498922349608
14.634692,3.022912767160218,0.1130102040048375
14.639328000000006,3.053561342014024,0.1119326675566779
14.643968,3.0833104824201816,0.1108942876481281
14.648616000000004,3.1097062544640397,0.1099128954640895
14.653256,3.1304610503937185,0.1090693846426742
14.657904000000002,3.148395358266309,0.1083060220528647
14.662536000000005,3.171970642253078,0.1073899487169964
14.667175999999998,3.190926569287461,0.1065922406582509
14.671804000000009,3.2048965852270226,0.105961898696326
14.676448000000008,3.2137143639089887,0.1054164644542779
14.681092000000008,3.21791278563857,0.1049758859372252
14.685724000000008,3.221989022654005,0.1045513716024854
14.690376,3.2252880099359387,0.1041298338609529
14.695012000000006,3.229730801093811,0.1036626477824356
14.699647999999996,3.231597473622885,0.1032286116807781
14.704288000000004,3.2347742761906724,0.1028268946711939
14.708932000000004,3.2362743945773103,0.1024458135895413
14.71356800000001,3.235198394335149,0.102096416977031
14.718199999999996,3.231834786341111,0.1018418383591143
14.722840000000003,3.2281046242046347,0.1016336118477757
14.727475999999996,3.225928961535163,0.1014273754651976
14.732120000000007,3.223753298865692,0.1012201594616215
14.736751999999996,3.2197787673009244,0.1010410868184318
14.741380000000008,3.216703670183805,0.1008472672223051
14.74602,3.220291168342658,0.1005108039665873
14.750647999999998,3.223756481787365,0.1001872043365995
14.755291999999995,3.2273439799462174,0.0998540036999858
14.759935999999996,3.234651400609807,0.0994527466921142
14.764572,3.2432248098634817,0.0989932915081906
14.769224000000008,3.251676034403011,0.0985468598215788
14.77386,3.262947746999629,0.0980449540874965
14.778487999999996,3.274463829024538,0.0975152214695096
14.783132000000007,3.2880231493730343,0.096936629277774
14.787768,3.302604088883325,0.096341120130162
14.792404000000005,3.3228260045077933,0.0956491786347358
14.797044,3.33891730203646,0.0949763371801814
14.801676,3.354642045422689,0.0943488219525852
14.806312000000004,3.3749861457613037,0.0936526557252203
14.810952,3.3937757466329126,0.092954895548828
14.815584,3.407046556104489,0.092340549050627
14.820228,3.4183963119666245,0.0917743569688349
14.82486800000001,3.427947198933465,0.0912257100055264
14.829504,3.438519705062098,0.0906511271563073
14.834152000000003,3.449747276210088,0.0900960586936318
14.838791999999998,3.459175978462782,0.0895735734790227
14.843424,3.472568972648505,0.0889707177190109
14.848072000000002,3.4863285209766657,0.0883404452105795
14.852704000000005,3.496490331514234,0.0877549233375323
14.857332,3.506896511480093,0.0871462092884627
14.861976,3.519223745055394,0.0865057941201312
14.866608,3.5314287939165503,0.0858846796870727
14.871248000000008,3.5435116580635597,0.0852788187408425
14.875892000000007,3.5536734686011275,0.0847120206939829
14.880524000000008,3.5602375413481044,0.0841855151084232
14.88516,3.5610384532667574,0.0837559094918314
14.889800000000008,3.566458722137795,0.0832689663111423
14.894436,3.5720011757229786,0.0827694670860071
14.899076000000008,3.5746009565369268,0.0823267431486137
14.903716000000005,3.578755236817879,0.0818930907499446
14.908344,3.5914931659842453,0.0813360526418729
14.912992000000004,3.600755542074167,0.0807981405217272
14.917628000000008,3.616313959297622,0.0802051249192026
14.922268000000004,3.6355922990258143,0.0795785865163732
14.926912000000002,3.653438324001148,0.078932842268879
14.931551999999996,3.670262729814688,0.0783117148614288
14.936180000000007,3.6832450284093454,0.0777520569221821
14.940824000000006,3.693939719252125,0.0772625765037821
14.945459999999995,3.7081099631713497,0.0767584521828196
14.950100000000006,3.721791468233992,0.0763055481466923
14.954744000000003,3.733551919687193,0.0758803061232384
14.959384,3.745312371140393,0.0754585600811625
14.964016,3.7573171920218855,0.0750147967766432
14.968648000000002,3.771120881798674,0.0745627869853638
14.973280000000004,3.786479071042466,0.074121689319059
14.977924000000002,3.8049021177716384,0.0736261550359041
14.982563999999996,3.82001593758714,0.0732114807020418
14.987192000000007,3.8381946148880215,0.0727499106527393
14.991839999999996,3.857394911350697,0.0722741176728861
14.99648400000001,3.875940142794014,0.0717835917577525
15.001115999999996,3.8875784095330697,0.0713971180984509
15.005772000000007,3.9026922293485695,0.0709991708767931
15.010404000000008,3.915474299963564,0.0705913301182231
15.015032000000003,3.9233926441978815,0.0702481333483383
15.019664000000006,3.936707595118087,0.0698810276679675
15.024296000000009,3.953986837971321,0.069468193995237
15.028936000000002,3.9740865688816434,0.0690333390804771
15.033568000000002,3.990222007858938,0.068645335027233
15.038207999999996,4.0075012507121714,0.0682383124764798
15.042839999999998,4.02772316633664,0.0678006494730393
15.047488,4.050887754732344,0.0673321371085854
15.052124000000006,4.075196147003986,0.0668446769245607
15.056759999999995,4.101059038742633,0.0663761860168249
15.061400000000006,4.124223627138337,0.0659239920351087
15.066028000000005,4.147266030819893,0.0654831587599793
15.070679999999996,4.169164630625513,0.0650713006580185
15.075316,4.192695773163654,0.0645923763574235
15.079948000000002,4.211363189321117,0.0641680540217391
15.084592,4.227210117421492,0.0637655688631231
15.089219999999996,4.24215761107422,0.063367596130591
15.093851999999998,4.259392712478824,0.0629195429962204
15.098484,4.274051695254633,0.0624716545935516
15.103111999999996,4.288466308602149,0.0620498862345388
15.107752000000003,4.306067964149191,0.0615800349196569
15.112396000000004,4.3163519594009045,0.0611492297504191
15.117024,4.318174490481351,0.060775548219532
15.121656000000002,4.318442522094793,0.0603891481712061
15.126283999999998,4.326883507002584,0.059901035555814
15.130920000000003,4.327640277472608,0.0594726829109973
15.135559999999998,4.323122625970891,0.0590491278726726
15.140192,4.312963998354995,0.0586581176830172
15.144824,4.301905936291452,0.0582707654678094
15.149464000000007,4.288516125027403,0.0578591260589371
15.154095999999996,4.276025748211001,0.0574439709293853
15.158740000000009,4.266844598308271,0.0569750541598861
15.163384000000008,4.254965145062599,0.0565084145294428
15.168016000000009,4.243985126264573,0.0560399715965385
15.172660000000008,4.233005107466547,0.0555674820265401
15.177288000000004,4.224190511706254,0.0550592900400091
15.181928,4.212555427888872,0.0545600827636524
15.18656,4.198877105747902,0.0540813255112818
15.191187999999997,4.190717575006966,0.053586060708058
15.195831999999996,4.179859740923086,0.053093023869547
15.200472000000005,4.165037614906177,0.0526337822270957
15.205107999999996,4.15381322667986,0.0521679303778755
15.209744,4.144265522634694,0.0517023506655436
15.214392000000004,4.1334518299994425,0.0512669471465996
15.219036000000004,4.116508422393429,0.0508980150609929
15.223672000000008,4.107493598653473,0.0504599224826362
15.228319999999997,4.100932708828169,0.0500373820299409
15.232951999999996,4.099890610402897,0.049599414795696
15.2376,4.094884220044598,0.0491926364914335
15.242236000000004,4.091310144439158,0.048815934395911
15.246876,4.08569283051013,0.0484588564703297
