Time,Force,Position
12.571139999999998,1.105911136136471,0.2063322848874089
12.575732,1.127473900694869,0.2044237947861339
12.612432,1.2300613167521377,0.2039339044233925
12.617015999999998,1.257519666484744,0.202553841691306
12.6216,1.2894751884555895,0.2007588565282014
12.626204,1.3247840787887355,0.1986522731991825
12.63078,1.3571502963506463,0.1971942793016405
12.63538,1.38747327558897,0.1960973697598023
12.639967999999998,1.4263799037127072,0.1939802676256699
12.644567999999998,1.4682292046076793,0.1916050693460621
12.649152,1.5078689410162904,0.1894740748805152
12.653747999999998,1.546609242977254,0.1876894142810542
12.658332,1.5884144024235978,0.1857119143063309
12.662915999999996,1.6314855504600263,0.1835853838726708
12.667512,1.6703038956865073,0.1816718047240626
12.672108,1.7138196411308908,0.1791947450834302
12.676684,1.7565581368417715,0.1767771764334911
12.681267999999998,1.8057148584003333,0.1738318072539367
12.685856,1.8495971579871533,0.1713801303212477
12.69044,1.8947454461640587,0.1688732263142679
12.695028,1.942303526806988,0.1660864253703031
12.699619999999998,1.991371965468293,0.1631894120382985
12.704204,2.033899993567773,0.1608853308890221
12.708792,2.069110361371924,0.1591787712723249
12.713384,2.100067926366126,0.1577678483238337
12.717967999999995,2.131392045502765,0.1563431437643088
12.722556,2.160795111029965,0.1550631183534052
12.72716,2.1867226234807173,0.1539249106420197
12.731747999999998,2.206354094797935,0.153174769337319
12.736336,2.2199338944099085,0.1527194338311689
12.740927999999998,2.2354347476313245,0.1521647888133258
12.745516,2.246682798042792,0.1518067895674855
12.750119999999995,2.2539224150726027,0.1515894005139368
12.796044,2.230672726701316,0.1515734877802953
12.809827999999998,2.2065236038823817,0.1515417798855227
12.814424,2.1980077586307467,0.1514355641212037
12.819012,2.1905135325409058,0.1512698698601609
12.823596,2.184940360060506,0.150996224325472
12.828188,2.1842309139607825,0.1504371448116108
12.832783999999998,2.1847874564511445,0.1497833596502696
12.837364,2.182401326170271,0.1492865391868585
12.841948,2.179893011175252,0.1488140569791164
12.846544,2.179305749789674,0.1482385159887707
12.851131999999998,2.174221316165857,0.1478599436481703
12.855724,2.169014697827894,0.1475046654771985
12.860303999999998,2.166750752261166,0.146987751653012
12.864892,2.167185110037382,0.146357895831611
12.869488,2.179267974184392,0.1451367505700946
12.874072,2.1951929455502843,0.1437099667537114
12.878659999999998,2.2141827744015568,0.1420928601889407
12.883252,2.237669775491069,0.1402806464429407
12.887852,2.2535947468569613,0.1388518830993772
12.892455999999996,2.2683759143469144,0.1375731039693506
12.897031999999998,2.284711581303872,0.1362603954929291
12.901628,2.300025629099036,0.1349902721957174
12.906204,2.315706231036637,0.1336962097286423
12.910804,2.338948862697858,0.1321101287390848
12.915392,2.362191494359079,0.1305300432483148
12.919992,2.381592018801417,0.1291344170606943
12.924576,2.393063959377699,0.1281261283047754
12.929168,2.410299060782304,0.1268526578638213
12.933756,2.426268173596825,0.1256728012719008
12.938352,2.4380286250500256,0.124721661782756
12.942948,2.4519986409895878,0.1237728806502831
12.947544,2.4662130263574404,0.122783474269743
12.952132,2.4787948689927712,0.1219660497535669
12.956715999999998,2.4931755805233986,0.1211142003272323
12.961304,2.497706654578527,0.120717306373389
12.965904,2.5022377286336552,0.1203266202736206
12.970491999999998,2.506646617974638,0.1199618218419337
12.975084,2.510033888153828,0.1196487756467041
12.97968,2.519839384180698,0.1191326222378374
12.984263999999998,2.526702207436333,0.1187427083193758
12.98886,2.5344644651396164,0.1183297543437252
12.993435999999996,2.543781222309904,0.11790137418625
13.020995999999998,2.547012405958058,0.1178563282092142
13.025591999999998,2.5507323284627947,0.1177388636792803
13.03018,2.560337596510001,0.1173954924767956
13.034784,2.567488930642557,0.1170879970086243
13.03936,2.57439589534682,0.1168211267885203
13.043967999999998,2.5846120869647558,0.1163918393766476
13.048556,2.589187302468512,0.1161438685679278
13.053152,2.5965830060293587,0.1157999780551128
13.057732,2.602834905714265,0.115522033457688
13.062332,2.608187370951524,0.1152701672272391
13.066915999999996,2.613006955883572,0.1149865145179114
13.071508,2.613207183863235,0.1148372762237173
13.076112,2.611730727661748,0.1147136228957906
13.080704,2.6124196944979943,0.114490254879503
13.085288,2.614374649924325,0.1141896448633026
13.08988,2.6147751058836515,0.1138906110353708
13.094467999999996,2.61709661545242,0.1135209752434297
13.099052,2.615453833088159,0.1133029357639002
13.10364,2.6177753426569264,0.1129369762402966
13.108232,2.622262275263427,0.1124639414120664
13.112819999999996,2.6296918806411624,0.1118938143491492
13.117395999999998,2.6346675521042453,0.1113630528916573
13.121992,2.638088724100324,0.1108486173412975
13.126575999999998,2.643430949705844,0.1102767637388374
13.131156,2.6510607830632424,0.1095999201131559
13.135747999999998,2.6549706939159035,0.1090270992492814
13.140336,2.662722711987448,0.1083379069410762
13.144936,2.672884522525017,0.1075317476193077
13.149512,2.6843123216526696,0.1066602690498514
13.154099999999998,2.6966395552279705,0.105776334840635
13.158692,2.7078229849273328,0.1049468362962785
13.163271999999996,2.7238701410073705,0.1039819366305949
13.167879999999998,2.74183835069685,0.1029592375081714
13.172468,2.75530938814809,0.1020380119790489
13.177068,2.7650605030945927,0.1011999573782393
13.181644,2.778653725259979,0.1002519361554314
13.186236,2.7954339896248905,0.0991910566279476
13.190827999999998,2.8163007306369776,0.0979938184923753
13.19542,2.8315264955348844,0.0969381441416258
13.200012,2.84879549875638,0.0958320919689693
13.204608,2.861200775597198,0.0948672032550845
13.209196,2.873894563314936,0.0939790180550688
13.213788,2.8850779930142982,0.0931977425465674
13.218375999999996,2.898304661037247,0.0923720061671558
13.222968,2.907444852413022,0.0916743830876946
13.227555999999998,2.9182617279699468,0.0909673262239443
13.232144,2.928056984365077,0.0902960301793701
13.236727999999998,2.9364640674559785,0.0897149947397625
13.241307999999998,2.941928477775644,0.0892061863651811
13.245892,2.947637257523602,0.0886711195748137
13.250472,2.9538789175767697,0.0881687916435578
13.25506,2.9552568512492607,0.0877805582631978
13.259651999999996,2.9545915465981665,0.0874474547507508
13.26424,2.956380175861724,0.0871083488338319
13.268831999999998,2.9656086501347545,0.086643599357204
13.27342,2.975858743569579,0.0861601963974789
13.278007999999998,2.986641717309615,0.0857242716096223
13.282603999999996,2.9962808871737105,0.0853371155565494
13.287192,3.0116832178661315,0.0848428989708884
13.291783999999998,3.024797940806673,0.0844368273599152
13.296368,3.041876955680244,0.0839476141086507
13.300968,3.056379851925016,0.0834713357768158
13.305555999999996,3.0732925406358134,0.0829069893071638
13.310152,3.0888170560423798,0.0824252750684093
13.314744,3.110104732277269,0.0818501292345331
13.319335999999998,3.1315145932263047,0.0812686125233025
13.323924,3.155867126946575,0.0806432413804259
13.328516,3.1791980415050523,0.080044576646146
13.333111999999998,3.208169932177708,0.0793755640591205
13.337707999999996,3.2370196381362177,0.0787330626405784
13.342292,3.265703017931954,0.0780155195884682
13.346892,3.296551820765423,0.0772382326446144
13.351472,3.3313649155319207,0.0763903799480378
13.356056,3.362458087793681,0.0755855268892573
13.360644,3.391752391160145,0.0748289369807158
13.365235999999998,3.420924509812464,0.0741037214090802
13.369828,3.4458438256548347,0.0733953543616508
13.374408,3.4681870228684075,0.0726957971976016
13.379004,3.489875155062624,0.0719966756346115
13.383591999999998,3.5129514605610708,0.0712456968264768
13.388183999999995,3.5330850932882827,0.0705457555584288
13.392776,3.5571830179485238,0.0697860572567123
13.397352,3.5770722812474447,0.0691178090929778
13.401944,3.589888253679328,0.0684763470163601
13.406535999999996,3.5971854347111787,0.0678884418176379
13.411115999999998,3.6035831812953822,0.0673094393826041
13.415708,3.607160439822497,0.0667652344830448
13.420287999999998,3.611226437206193,0.0661720259173146
13.424884,3.609895827904002,0.0656121337591077
13.429463999999998,3.604967480811221,0.0650682618745512
13.434063999999998,3.6036368715090297,0.0645101201691497
13.438656,3.604105131102136,0.0639475389066032
13.443252,3.598810229866916,0.0634433388557112
13.447836,3.599400674174167,0.0628671426674109
13.452428,3.592551273471943,0.0623433641351099
13.457015999999998,3.58288138471263,0.0618436544396403
13.461608,3.57398874568682,0.0613484106667232
13.466195999999998,3.567916594718098,0.0608290188718512
13.470795999999998,3.5585352168357054,0.0603811263299732
13.475384,3.548909469525021,0.0599584589605076
13.479976,3.5394059069284824,0.0595211794799304
13.484564,3.5224624993224696,0.0591258582008217
13.489164,3.508950503344274,0.058646652883348
13.493752,3.5047994059849943,0.0581014141309015
13.498343999999998,3.5033466119686585,0.0575475244606753
13.502928,3.497929526019294,0.0570351244011255
13.507504,3.4904692017463423,0.0565497731181898
13.512099999999998,3.4795774658455727,0.0561425870138477
13.516688,3.4672975566405726,0.055782774848418
13.521271999999998,3.4574715813502257,0.055437984565456
13.525884,3.4436813141268496,0.055140172575865
13.530471999999998,3.424005701361004,0.0549035280330684
13.535064,3.412791552766425,0.0546095167179848
13.539656,3.397735296952965,0.0543472271041312
13.544256,3.390118886148978,0.0540433641617111
13.548847999999998,3.382746844773282,0.0537122539649486
13.55344,3.3760298684169427,0.0534035296581973
13.558032,3.368169088184665,0.0531213638625818
13.562612,3.3585094390570918,0.0528391503009486
13.567212,3.3457849324441367,0.0525979956424998
13.571795999999996,3.3328160564028915,0.0523802328502193
13.576403999999998,3.327942090390476,0.052148387559633
13.580988,3.319758897464389,0.0519825723586578
13.585588,3.3027476862245977,0.0519021249685743
13.590184,3.283693236661219,0.0518479955442788
13.594775999999998,3.2666820254214275,0.0517652668139684
13.599351999999998,3.252735671667016,0.0516386692361822
