Time,Force,Position
16.489236,1.1196189044329274,0.1649349028854471
16.493827999999993,1.1408151148488883,0.1643182348146941
16.525963999999995,1.3284995456320705,0.1642614881074846
16.530555999999997,1.3771643454123763,0.1638596385124417
16.535159999999998,1.4336796857932217,0.1628010243766272
16.539744,1.4944478289840148,0.161384208111057
16.544335999999994,1.551906745261136,0.1605294079763509
16.548931999999994,1.6104314221486793,0.1599518725253051
16.553515999999995,1.6696111640555789,0.1594624715139738
16.558116,1.7325108284672155,0.1586174259949553
16.562695999999995,1.795532677592998,0.1578395170076389
16.567299999999996,1.8601870694513023,0.1568094097888029
16.571879999999993,1.9247973198609785,0.1556183768712307
16.576479999999997,1.9811463340790496,0.1549388390670007
16.581079999999993,2.0292341121055166,0.1546967904279118
16.585668,2.0776443028257927,0.154189330069087
16.590263999999998,2.1285423292776104,0.1533042967201814
16.594859999999997,2.1779638995279407,0.1523033021175832
16.599463999999998,2.2210452871961084,0.1514799587031818
16.604059999999997,2.2590524808721977,0.1507765975408575
16.608663999999997,2.294028718879795,0.1499624617736227
16.613255999999993,2.329816108437785,0.1488285161150378
16.617847999999995,2.360529304003697,0.1477955029238604
16.622435999999993,2.383181491357667,0.1468873712318896
16.627024,2.401781103881352,0.1459997729800075
16.631623999999995,2.416983206594109,0.1451086896116984
16.636211999999993,2.430464483677088,0.1441341335417186
16.640811999999997,2.435928893996754,0.1433520585476859
16.645404,2.439794663400787,0.1424877078181382
16.649983999999996,2.4401407382797475,0.1416277902221298
16.654579999999996,2.4346795108817547,0.1409288549244891
16.659163999999997,2.427375273139838,0.1401819884256602
16.663755999999992,2.4199047092351478,0.1393399176393689
16.668339999999993,2.4130450689011846,0.1383810937050519
16.672923999999995,2.406674167423805,0.1373265197070422
16.677527999999995,2.397849332031773,0.1363259522728684
16.682119999999998,2.383627889953855,0.1355262025109746
16.686707999999996,2.366297448941928,0.1347611492737599
16.691307999999992,2.354075103738968,0.1337157360428775
16.695895999999998,2.339931704926566,0.1327498864416542
16.700495999999994,2.3292638591906103,0.1316740901055219
16.705091999999993,2.317574394292862,0.1306508513849157
16.709691999999997,2.307439428862117,0.1296068941535793
16.714275999999998,2.3000469082229444,0.1285865098297672
16.718871999999998,2.290899660137104,0.1277454614859039
16.723459999999996,2.281263673194681,0.1269864446089911
16.728055999999995,2.273060001005116,0.1262276999044298
16.732643999999993,2.2727068694160906,0.1252357096035418
16.737243999999997,2.2702324562379608,0.1244927491992205
16.741827999999998,2.270622672565549,0.1237620107390059
16.746423999999998,2.274121887827145,0.1229847103282822
16.751015999999993,2.281262982327961,0.1222332277410869
16.755611999999992,2.289592022153344,0.1215519441088248
16.760208,2.298986822589149,0.1209446260003001
16.764807999999995,2.310346818083023,0.1203869785960987
16.769399999999997,2.3246936277967607,0.119825819705782
16.773999999999994,2.343826120625657,0.1192148180283099
16.778588,2.366478307979627,0.1186351402620933
16.783175999999997,2.3863541487251365,0.1182906027160164
16.787755999999995,2.4075401195093584,0.1179691864124551
16.792347999999997,2.42733791698935,0.117768104444094
16.796943999999996,2.4501225286892048,0.11757969720509
16.801536,2.471396782370683,0.1175198232580792
16.806123999999997,2.4938148399281004,0.1174017771715482
16.810711999999995,2.520852254437903,0.117146666231325
16.815307999999995,2.551609591452442,0.1167833287832779
16.819895999999993,2.583266362914629,0.1163998344556869
16.824483999999998,2.611081027157934,0.1161664568249671
16.829095999999993,2.642082733600765,0.1157787683784819
16.833683999999998,2.674228243919535,0.11535004595883
16.838295999999993,2.7123812844949207,0.1147211905417588
16.842879999999994,2.742561599755621,0.1142755204996455
16.847483999999994,2.768000373349791,0.1139754363765391
16.852079999999994,2.7929062666387496,0.1136430576389296
16.856668,2.8162576604607046,0.113319662249531
16.861267999999995,2.840219977853388,0.1129193982668628
16.865859999999998,2.860173861864414,0.1125596435747718
16.870455999999997,2.8786954311225825,0.1121886625774996
16.875035999999994,2.9005262272944226,0.1116762945601086
16.879631999999994,2.926443500113437,0.1110284088934655
16.88422,2.950029023731944,0.1103827357297281
16.888819999999996,2.9667856259117054,0.1098425886725057
16.893407999999994,2.9870958244334305,0.1091341000530445
16.898011999999994,3.00278666600277,0.1085381693274552
16.902603999999997,3.0133252703145144,0.1080304543531378
16.907196,3.0192445176738736,0.1076362966277323
16.911775999999996,3.0255303191756697,0.1071967755618727
16.916371999999996,3.0312832403722547,0.1067242772328342
16.920967999999995,3.035603846815982,0.106243144223597
16.925563999999994,3.035427281021469,0.105853068569837
16.930151999999993,3.027810870217482,0.1056366847397269
16.934735999999994,3.0258354355276738,0.1052840584010075
16.939324,3.025492543570387,0.1048129118163148
16.943923999999996,3.026537824917332,0.1042622348720078
16.948511999999994,3.0287269101402146,0.1036647513411836
16.953107999999993,3.0251528345347745,0.1032135082872919
16.957691999999994,3.021456574215188,0.1027762370169245
16.962279999999993,3.0153063799809487,0.1023532967299464
16.966879999999996,3.005558447956119,0.1019973828889177
16.971467999999994,2.9924571475689885,0.1016722613367924
16.976059999999997,2.9811547160771545,0.1013138102654652
16.980647999999995,2.9744716415377046,0.1008566467253459
16.985239999999997,2.961903221455785,0.1005577411807422
16.989831999999993,2.952277474145101,0.1001766915767461
16.994428,2.946249464625008,0.099731488735956
16.999015999999997,2.942386878142647,0.0992034155670873
17.003603999999996,2.9382799222319957,0.0987104620779956
17.008195999999998,2.93597183521664,0.0981872631271308
17.0128,2.9335415634871387,0.0976805474754403
17.017379999999996,2.932910160652933,0.0971413693140971
17.02198,2.9340776267140223,0.0965693784553387
17.026563999999993,2.9306257358227272,0.0960871806743932
17.031163999999997,2.928728344398436,0.0956082186994584
17.035747999999998,2.920456868575092,0.0953433465053827
17.040347999999994,2.9112859583041013,0.095091953314516
17.044939999999997,2.909799262470876,0.0946602266201757
17.049523999999998,2.9093341857994437,0.0941971612894626
17.054111999999996,2.9127112163468936,0.0936436111086877
17.058707999999996,2.915066627732551,0.0931162112869769
17.063311999999996,2.915012246652184,0.0926967626703378
17.067911999999993,2.9161016694477566,0.0922328632262867
17.072503999999995,2.9161694730815357,0.0918010019579459
17.077095999999997,2.9211010030959903,0.0912520686427333
17.081683999999996,2.925010913948652,0.0907324353269006
17.086271999999994,2.9259781520300785,0.0902874958179858
17.090859999999992,2.927600455130861,0.0898640847343788
17.095456,2.9275460740504946,0.0894509817212668
17.100047999999994,2.9283911274177763,0.0890299893321975
17.104639999999996,2.9310350496803523,0.0885885324780968
17.109235999999996,2.93560002555237,0.0881119909656644
17.113827999999998,2.939387751690886,0.0876312334561532
17.118419999999993,2.9475504653534954,0.0871065613019256
17.123011999999996,2.953425571264226,0.0866674671842046
17.127603999999998,2.9662076418792203,0.0860606978039687
17.132187999999992,2.9786231583517777,0.085502102909775
17.136779999999995,2.9887510670724566,0.0850439153611971
17.141367999999993,2.999778410240783,0.0845792042260617
17.145959999999995,3.011094264286029,0.084186708038139
17.150551999999998,3.0221657489029843,0.0838185267935665
17.155155999999998,3.039122579062409,0.0833294761657937
17.159747999999993,3.057756093402984,0.0828478109771249
17.164351999999994,3.079210095800648,0.0823304277437153
17.168947999999993,3.096699806265284,0.0819004796811734
17.173543999999993,3.119053243110596,0.0813895212512776
17.178131999999998,3.1414066799559075,0.0808742812272527
17.182723999999993,3.1637601168012197,0.0803657720925438
17.187315999999996,3.186768618665888,0.0798773554275609
17.191916,3.2068344477593214,0.079450209468511
17.196503999999997,3.224979223243313,0.0790620927713439
17.201095999999993,3.238382457060775,0.0787473850026358
17.205679999999994,3.2573044822782684,0.0783762666148622
17.210275999999993,3.2736503888669644,0.0780187128339901
17.214864,3.2944493262452723,0.0775357889031054
17.219451999999997,3.3161476980712274,0.0770582834628346
17.224039999999995,3.338334808753766,0.0765279676281118
17.228635999999995,3.3562691166263554,0.0760091517010492
17.233223999999993,3.375102858946593,0.0754919975222413
17.237811999999998,3.3934037209616204,0.0749480936359257
17.242399999999996,3.418733732395056,0.0742838109103551
17.246992,3.439566571590253,0.0736674488677683
17.251587999999998,3.4578232921566525,0.0730684104318206
17.256179999999993,3.4715828404848126,0.0725058929515531
17.260775999999993,3.489184496031855,0.0718944616026007
17.265367999999995,3.5007786213222825,0.0713889591277694
17.269959999999998,3.5183802768693244,0.0707953347292782
17.274547999999996,3.5350824979687188,0.0702107457666764
17.279127999999993,3.555871195715288,0.0695650330930873
17.283723999999992,3.577803697337796,0.0688890415691856
17.288315999999995,3.6008800028362424,0.0681890181420809
17.292903999999993,3.628820034715366,0.0674266998662957
17.297499999999992,3.647399167975574,0.0667560637710096
17.302091999999995,3.668021539559369,0.0660544466677124
17.306687999999994,3.684557434495989,0.0654297614908049
17.311275999999992,3.700438264413253,0.0647985959780471
17.315879999999993,3.714398040721077,0.0641879945478677
17.320459999999997,3.729912316495904,0.0635877666157112
17.325059999999993,3.742728288927788,0.0630042481853408
17.329639999999998,3.7547670116261695,0.0624172995583077
17.334239999999994,3.7620641926580207,0.0618836858929833
17.338823999999995,3.7689948195474345,0.0613838088447415
17.343419999999995,3.773882208113261,0.060913159765132
17.348011999999997,3.779669031126736,0.0604369041887462
17.352599999999995,3.781858116349619,0.0599746046064162
17.357187999999994,3.789277482095616,0.0594288205361206
17.361783999999993,3.792732555908584,0.0589395459483765
17.366372,3.798230868045139,0.0584256692642534
17.370959999999997,3.800908692124605,0.0579385270978748
17.375547999999995,3.804608135365864,0.0574403441916008
17.380143999999994,3.805364905835889,0.0569706247825499
17.384735999999997,3.8043228074106175,0.0565079005545427
17.389328,3.807000631490084,0.0560198626873806
17.393924,3.807757401960109,0.0555477756917088
17.398503999999996,3.809535791591927,0.0550621797576278
17.403104,3.807349889290717,0.0546173984405335
17.407691999999997,3.810804963103685,0.0541445664880294
17.412287999999997,3.817447079116179,0.0536258134436196
17.416883999999996,3.824866444862175,0.0531166451045586
17.421471999999994,3.8321636258940255,0.0526203243634686
17.426067999999994,3.837173199173998,0.0521686382391584
17.430659999999996,3.8414055227204686,0.0517039860840641
17.435247999999994,3.847436715162235,0.0512356095309665
17.439843999999994,3.854122972623357,0.0507880709995427
17.444432,3.862608098979776,0.0503379555862073
17.449035999999992,3.86700674868902,0.0499395121704406
17.453627999999995,3.8637211839605,0.0495858529020906
17.458223999999994,3.857615131174889,0.0492459107403572
17.462804,3.8466453520086015,0.0489392865791781
17.467395999999994,3.83273290007108,0.0486544915570396
17.471979999999995,3.818698263419413,0.0483779879719697
17.47658,3.804297072625309,0.0481344035419224
17.481175999999998,3.792716369888293,0.0478785994439648
17.485763999999996,3.7808912977229854,0.0476436219126037
17.490347999999997,3.768821856129388,0.0474306443747039
