Time,Force,Position
18.237276,2.2034913032683074,0.1522528900757877
18.24186,2.2978475111624683,0.1506880471202911
18.246452,2.3757592899389373,0.1497814659253933
18.251052,2.4476091573784244,0.1487006126242078
18.255632,2.50469127988137,0.1480608418865914
18.26024,2.55076972140114,0.1477631985220428
18.26482,2.5952053805566484,0.1472112381254387
18.269412,2.629781162604921,0.1468367309634604
18.274008,2.6540083286893728,0.1467331345678255
18.278592,2.6763483429812727,0.1464839573843939
18.283196,2.7005211279853576,0.1459214249165829
18.287796,2.7115689504171616,0.145828277893478
18.2924,2.7230613702569206,0.1455367576250835
18.296992,2.734098953056986,0.1451057153258939
18.301596,2.7497117513608083,0.1444097736776751
18.306172,2.766302027377796,0.1435796284568611
18.310772,2.7832588575372204,0.1427214854356593
18.315352,2.7993603946976253,0.1420085380039546
18.338328,2.879892433551521,0.1416649063134491
18.342932,2.9163553673923444,0.1416131088206085
18.347524,2.962023113321049,0.141446635841895
18.35212,3.0139088571177703,0.1412009287023071
18.356712,3.0699693604589227,0.1409819565825171
18.3613,3.134946165011036,0.1406117872033306
18.365892,3.204464283250016,0.1401779490453293
18.37048,3.2728827390616853,0.1399239922590025
18.375076,3.3375032291031004,0.1399120328056142
18.379664,3.412139682782787,0.1395916637800275
18.384256,3.4883306359294783,0.1392747522673715
18.388848,3.5639106655054413,0.139072847435717
18.393436,3.634094088395517,0.1390383384733407
18.402616,3.774460934175668,0.1390304925258692
18.407208,3.8417797275600254,0.1390207755273618
18.411804,3.913140856142932,0.1387818195484431
18.416392,3.984702212705498,0.1384208329939405
18.420984,4.054542743638288,0.1380097047506252
18.425572,4.127648360036121,0.1374226554865152
18.430176,4.200299139394261,0.1367661481233971
18.434768,4.265177421417379,0.1362148213796684
18.439356,4.32690256305786,0.1356323593940191
18.443952,4.385474564315704,0.1350264733174283
18.448528,4.440604914313991,0.1343581147885557
18.453136,4.488207136405549,0.1337384336382798
18.457716,4.532900587542761,0.1330547946004605
18.462316,4.573130768258624,0.1323147991415436
18.466892,4.612495416343727,0.1314497803147826
18.47148,4.642655252340949,0.1306506369503544
18.476076,4.667208014040883,0.1298406670715344
18.480668,4.685376451710026,0.1290196968205801
18.485256,4.6984706953870905,0.1281916544057608
18.489852,4.704281180585716,0.1273666627067418
18.49444,4.70064248426817,0.1266051800734364
18.499032,4.698714373948662,0.1256831791516303
18.503624,4.692611504084724,0.124745436871764
18.508208,4.687197601057033,0.1236784401971274
18.5128,4.678508372932559,0.1225685963520326
18.517392,4.654650943912216,0.1216949674522378
18.521984,4.621388474824331,0.1209336626131499
18.526576,4.58321813790714,0.1202073212022858
18.531172,4.541283737036585,0.1194774531495409
18.53576,4.492398230013138,0.11883525110236
18.540344,4.436072877980218,0.1183268287470255
18.544932,4.375005984280766,0.1179181270941852
18.54952,4.3113629719525175,0.1175330296726499
18.554116,4.250296078253066,0.1170955589491579
18.558704,4.18796319596353,0.1166959635960554
18.563296,4.125918824550912,0.1163341309058566
18.567888,4.06710563678645,0.1159288138042135
18.572468,4.007437156022967,0.115607126763476
18.577072,3.951777108641141,0.1152520537493827
18.581664,3.90131343996554,0.1148893169016173
18.58626,3.859233192195688,0.1144281024990109
18.590844,3.815564543141943,0.1141199989737939
18.604628,3.6809135338198136,0.1139895285391356
18.609216,3.64805857740132,0.1139555898453139
18.613816,3.622976118317848,0.1138974497877961
18.618408,3.6055439718552535,0.1138269440219762
18.623,3.595762138013534,0.1137429099190082
18.627608,3.594407866526193,0.1136463715996716
18.632204,3.6017255268215207,0.1135088994987752
18.636792,3.6228232147084873,0.1131911315206689
18.641392,3.6509161501969714,0.1128561708820491
18.645984,3.6833060299440334,0.1125612893832402
18.650576,3.7202372233779615,0.1122720687332865
18.655164,3.7644080338417023,0.1119446960115851
18.659752,3.80723481244984,0.1117595599894115
18.664328,3.8603660655731686,0.1114569927659619
18.66892,3.917505752078154,0.1111460546036085
18.673516,3.975833383907707,0.1108791717481059
18.678104,4.033550092166532,0.1106861180387609
18.682696,4.096907776539535,0.1103994253341559
18.687276,4.164518263722486,0.1100798302261355
18.691868,4.239690780629056,0.1096199914159903
18.696464,4.318827589468654,0.1090781238600155
18.701052,4.40115144050778,0.1084824071164964
18.705656,4.484863464851136,0.1078485937752017
18.710236,4.567387543869925,0.1071977500281281
18.714824,4.646924808668851,0.1065651662910307
18.71942,4.727806105323379,0.105836889970203
18.724012,4.807988195509922,0.1050531674247383
18.728608,4.880686299238363,0.1043480794342712
18.733196,4.951419207908734,0.1036336166196022
18.737796,5.015445379854505,0.1029700108719742
18.742376,5.073786434237469,0.1023292636968815
18.746976,5.12693110991421,0.1016824602241081
18.751564,5.181297632732408,0.1009384276324281
18.756164,5.225848419891996,0.1002458762141094
18.760748,5.264958458917072,0.0995618014885245
18.76534,5.2980948695024175,0.0988587338565193
18.769936,5.324891097505602,0.0981608137064695
18.774532,5.344203339050685,0.0975067839399565
18.77912,5.359218636337189,0.0968299623967297
18.783712,5.363274394089148,0.0962122620244732
18.7883,5.363688272601885,0.09557716494674
18.792888,5.356251610514083,0.0950034758921149
18.797476,5.340309342806386,0.0944741649395864
18.802064,5.317538153659943,0.0939800083063023
18.806648,5.287938043074756,0.0935200817504261
18.81124,5.25012083774659,0.0931389411646977
18.815836,5.209727513789628,0.0927670714368665
18.820424,5.167901875079807,0.0923769854695142
18.825016,5.121945618274183,0.0919915001677491
18.829596,5.074679231429847,0.0915794433721352
18.834184,5.030599886785036,0.091100135708306
18.83878,4.982678434921342,0.0906639191985416
18.843368,4.930381995533557,0.0902489317606912
18.847956,4.880417305346275,0.0898337101896209
18.852544,4.832251484054291,0.0893947564909019
18.857132,4.788338465572255,0.0889294885330395
18.861736,4.750843672937899,0.0883962766822378
18.866324,4.712205076427604,0.0878819011454687
18.87092,4.671933937184786,0.0874268072272772
18.8755,4.640534957704301,0.0869023125111622
18.8801,4.6085250546530885,0.0864209165666354
18.884684,4.579868519964177,0.0859269607044289
18.889284,4.557141472266362,0.0854076158684333
18.893868,4.543408769045026,0.0848152711678378
18.89846,4.537404421710083,0.0841868889956712
18.903056,4.537329561366239,0.0835368116146866
18.907648,4.5377875813276045,0.0829093960108828
18.912248,4.539311361899393,0.0823262659970296
18.916848,4.5428003375292505,0.0817800929006044
18.92144,4.553118234597855,0.0812126952256459
18.926032,4.563724642543377,0.0806916580383949
18.93062,4.582181591089439,0.080133394152174
18.935216,4.604524788303012,0.0795913191984237
18.939804,4.631365157754824,0.079024582929888
18.944396,4.659393472531204,0.0785006376569856
18.94898,4.686033614003354,0.0780255675746607
18.953576,4.712307201333065,0.0775886592463311
18.958168,4.745531894815668,0.0771280349223103
18.962748,4.781454891641215,0.076650665295342
18.967344,4.81713351903847,0.0762049226321837
18.971928,4.858330937835759,0.0757269548210763
18.976516,4.899650541347192,0.0752468341110743
18.98112,4.942769013753924,0.0747654066052136
18.985708,4.984743682284715,0.0743212943341243
18.990296,5.025941101082003,0.0738830044342607
18.994892,5.066361270145789,0.0734462519188383
18.999484,5.109479742552519,0.073002838096285
19.004076,5.154763637996982,0.072529227911342
19.008672,5.2029902062126805,0.0720306682879308
19.013268,5.249417905533081,0.0715514931045921
19.017856,5.296089974281776,0.0710610238521962
19.022456,5.340308109115815,0.0705746770127465
19.027036,5.387713286149383,0.0700523502672604
19.031636,5.431642910106506,0.0695454153011044
19.036228,5.472996415434829,0.0690430019550021
19.040824,5.517536962962678,0.0685033955919398
19.045412,5.562199695204675,0.0679642336423951
19.050008,5.6015880054749285,0.0674417275190812
19.054592,5.641220685173474,0.0669080571563926
19.059176,5.679176680690869,0.0663805028563921
19.063752,5.706750158427555,0.0659192047893984
19.068336,5.734323636164242,0.0654626363283592
19.07292,5.758421560824482,0.0650139454960158
19.07752,5.7781444979606285,0.0645744404194363
19.082112,5.796968000649128,0.0641421954746517
19.086688,5.812438134975327,0.063705476524074
19.091284,5.82443271622508,0.0632742183181413
19.09586,5.8337289941318895,0.0628525394292709
19.100452,5.839794088390546,0.0624201954535739
19.105044,5.844426867896342,0.0619721632498769
19.109632,5.846361344059196,0.0615308040190164
19.114232,5.849439624097988,0.0610754201962196
19.118808,5.848020731898543,0.0606328277786183
19.123396,5.844025721070297,0.0601867751042714
19.128,5.839497829936842,0.0597182453531924
19.132588,5.831372201012794,0.0592581869650811
19.137192,5.818749399850509,0.0588054269401259
19.14178,5.806370968116513,0.0583346810298121
19.146372,5.789617548858424,0.0578613076697423
19.15096,5.769144207095597,0.0573990838995946
19.15556,5.755577830037035,0.0568855157145857
19.160144,5.736614846292587,0.0563764821256861
19.164744,5.7186734817099305,0.0558568841436474
19.169328,5.698933248231978,0.0553341854885755
19.173924,5.676494711411085,0.0548131617411198
19.1785,5.657531727666635,0.0542926244786358
19.183092,5.635992625293388,0.0537623634766605
19.187696,5.61445352292014,0.0532293918089641
19.192288,5.591526247242663,0.0527243317044727
19.196876,5.563613060470362,0.0522487565427073
19.201468,5.537498742593359,0.0517685967953574
19.206048,5.50447746001209,0.051328003390874
19.210648,5.468391319945443,0.0509071933209588
