Time,Force,Position
21.434604,2.1667620631652604,0.1706292164026885
21.43918399999999,2.287120643854019,0.1682107365490108
21.443776,2.4020384764082614,0.1665489764564011
21.448372,2.5127815494180736,0.165339208596677
21.452956,2.6213931012070426,0.1643111007331566
21.45755599999999,2.736701150088874,0.1626874365993458
21.462144,2.8492226127305047,0.1610586374155569
21.466732,2.957402989664931,0.1594423588782012
21.471315999999995,3.058177423406772,0.1580531186380717
21.475908,3.1515459139560287,0.1568370354743277
21.480512,3.241839307388166,0.1555094272868035
21.485088,3.3268921806654514,0.1542237444176317
21.48968,3.4127120640445,0.1527116068114986
21.494268,3.4898158741922507,0.1513120462132202
21.498872,3.566298521137534,0.1497596279849016
21.50346,3.6330876171383535,0.1484773422235598
21.50806,3.692881465537656,0.1473529819729318
21.512644,3.750299423287822,0.1462007185485315
21.51724,3.8068959898558576,0.1450187009197655
21.521832,3.8656138380129983,0.1436694262441832
21.52642799999999,3.9210563610733566,0.1423388986739364
21.531023999999995,3.970403070979842,0.1411043089238395
21.53562399999999,4.0129989027130994,0.1399207732947499
21.540216,4.04770005239719,0.138850523578445
21.544808,4.0738955964613845,0.1379642441075648
21.549395999999994,4.087577101524027,0.1373111768541552
21.553992,4.096961662328094,0.1366673048882588
21.558568,4.103070898035377,0.1359953093269249
21.563164,4.10500537419823,0.1353086802136086
21.567756,4.1064850133213895,0.1345161295733171
21.572344,4.104200588491184,0.1337470817240176
21.57694,4.096597600240609,0.1330094984121599
21.58151999999999,4.079100833065909,0.1324883563654602
21.586099999999995,4.059516686118991,0.1319557732093481
21.59068399999999,4.034003052180977,0.1315153918007985
21.595272,4.007301472918395,0.131042718677736
21.59986399999999,3.979289763617101,0.1305493638951267
21.604448,3.947558131811069,0.1301437806515024
21.60904,3.912473131642737,0.1297786257821244
21.61363199999999,3.872358078930955,0.1294799205931941
21.618227999999995,3.828645288428581,0.1292499833809885
21.622824,3.7794137065261753,0.1291555924970698
21.627412,3.731980993519065,0.1290209033411284
21.632012,3.6841817263695167,0.1289351832887687
21.636599999999994,3.6385478822577015,0.128761559071416
21.66414799999999,3.3856934756528085,0.1286226736152433
21.668744,3.352916562499833,0.128613897289612
21.673331999999995,3.326069136337954,0.1285069864440342
21.677928,3.3038852085770896,0.1283640236707105
21.682516,3.288940897846036,0.1281371296740089
21.687108,3.280214584982999,0.1278659176603608
21.691696,3.273986347483244,0.1276461501856105
21.69628799999999,3.2752420964415894,0.1273231913520608
21.700883999999995,3.2795288010684267,0.1270772149460129
21.705464,3.292731806906225,0.1267399674846551
21.71005999999999,3.311375560878538,0.126372117503149
21.71464799999999,3.339957235223606,0.1258688449490165
21.719239999999992,3.3750012768649835,0.1253130795619884
21.723824,3.420227608307405,0.1246133704405201
21.728412,3.465908776789522,0.124030446978948
21.733011999999995,3.5166199978150887,0.1233907573121798
21.7376,3.575714639746405,0.1226350511892416
21.74219999999999,3.640616583954673,0.121823598916022
21.746796,3.707483723221011,0.1210449869693457
21.751383999999995,3.776149731382645,0.1202549116783771
21.75598,3.846125869582992,0.119508607219627
21.76057199999999,3.920476995307432,0.1187302297010788
21.76517599999999,3.99572755547952,0.117959685716204
21.76975199999999,4.076619091765787,0.1171134754302646
21.774352,4.153790705547316,0.116365478039987
21.77893199999999,4.2276089509665455,0.1156761896112823
21.783532,4.303592619423508,0.1149375550669375
21.78812399999999,4.377122353965818,0.1142435118344739
21.79272,4.446888024554763,0.1135413417700879
21.79730399999999,4.510479838724318,0.1129474374431442
21.8019,4.569941034798072,0.1123929981066985
21.80649599999999,4.629480274137343,0.1117874091585326
21.811091999999995,4.683334395913807,0.1112343930361759
21.81568,4.732647204003404,0.110707457948651
21.820276,4.783059674520312,0.1100832144630975
21.824864,4.831384765265003,0.1094609894102112
21.829452,4.878355584522355,0.108783708019989
21.83403599999999,4.917964602035751,0.1081549289424399
21.83862399999999,4.957118782509452,0.107445066635272
21.843208,4.987522987934967,0.1068234054605082
21.847795999999995,5.009788141883022,0.106239687313156
21.852392,5.01994995242059,0.1057727614654174
21.856971999999992,5.024060091252915,0.105362777917963
21.861568,5.016966321122401,0.1050568526000394
21.866151999999992,5.0071301062003135,0.1047218695193381
21.87073999999999,4.992386023448923,0.1044091811887334
21.87534399999999,4.973100627010664,0.1040880629981944
21.87993199999999,4.949029547457247,0.1037777283122391
21.884512,4.92581376090285,0.1033922169338757
21.889108,4.8998555295568815,0.1029742179426271
21.893708,4.873608787333993,0.1025120643167076
21.8983,4.839144950368127,0.1021519302879403
21.90287999999999,4.802882244506967,0.1018093350598382
21.90748,4.757503009455183,0.101580495157993
21.912068,4.71069145965054,0.1013323541393558
21.91666399999999,4.656562249550568,0.1011771590968032
21.92125199999999,4.595770444174624,0.1011148717386465
21.925852,4.537799126855768,0.1010045610118376
21.93044799999999,4.477662386499182,0.1009348193418366
21.93504,4.425454230008652,0.1007135134680241
21.939624,4.382240417994599,0.100384614025903
21.94421599999999,4.34454539738058,0.0999803781248765
21.948816,4.312491352880739,0.0994900744638725
21.953416,4.281625253705465,0.0990284147125875
21.958003999999995,4.252069284568905,0.0985853442357961
21.9626,4.2275433679757946,0.0981097463103797
21.967188,4.201140539221871,0.0977282296828229
21.971776,4.179767763011398,0.0973142240564476
21.97635599999999,4.158439128249552,0.0969637857042464
21.98094799999999,4.140874557441072,0.0966260291696595
21.98554,4.123720682223658,0.0963198609242045
21.99012799999999,4.113762282587426,0.0959303772414331
21.994728,4.105236197704052,0.0955515934056498
21.999307999999992,4.108158391211809,0.0950603250488854
22.003899999999994,4.112024160615842,0.0946291525453706
22.008496,4.123618285906269,0.0941371768039027
22.013084,4.139998094311855,0.0936393960902389
22.01767999999999,4.159609086365595,0.0931443075534713
22.02226,4.183595065943429,0.0926193932045295
22.026848,4.206603567808098,0.0921942720723906
22.031444,4.225281223597301,0.0918786155578619
22.03603599999999,4.25078780082525,0.0915333151712515
22.04062799999999,4.276827258358408,0.0912208803867989
22.04521599999999,4.308385507291602,0.0908470581952295
22.049816,4.344440928463033,0.0904366554054172
22.054404,4.383194652977409,0.0900107309056988
22.059003999999995,4.431431460824845,0.0894696626035622
22.063596,4.480567703119929,0.0889350486622756
22.068183999999995,4.537143790424487,0.0883312767298212
22.072776,4.598583604109722,0.087677955243923
22.07737199999999,4.66554220919499,0.0869828293829394
22.081952,4.731234825690172,0.0863409151853157
22.086548,4.803467852747181,0.0856430841414234
22.091131999999995,4.874923630070687,0.0849680286626331
22.095728,4.949444264879575,0.0842566775262176
22.100316,5.02457582325919,0.0835166959058524
22.104904,5.098152882171801,0.0827757668759867
22.109492,5.166333334398525,0.0820810220457508
22.114084,5.227073941615775,0.081458101687694
22.11867999999999,5.286626603508457,0.0808092321209867
22.123264,5.3498550464572485,0.0800798655486103
22.127856,5.405110764091354,0.0794085107638801
22.132444,5.453171006144278,0.0787825725599734
22.137036,5.498000064549048,0.0781607858764739
22.14162,5.539597939305663,0.0775453175437364
22.14620399999999,5.576165761518828,0.0769429517713929
22.1508,5.60079656648428,0.0764300873392758
22.155387999999995,5.619908580049699,0.0759581350076067
22.159976,5.630925683586287,0.0755371998286233
22.164572,5.632948442646395,0.0751673798299637
22.169167999999992,5.63174001805835,0.0747954253927922
22.173759999999994,5.628322028983944,0.0744045861713711
22.17834,5.61615406486135,0.0740423219902036
22.182939999999995,5.597034994585868,0.0736970808239115
22.18752399999999,5.569288133976341,0.0733665810041227
22.19212,5.532424744176193,0.0730818716251588
22.19670399999999,5.496949527680274,0.0727573163712769
22.201304,5.461063615593288,0.0723993182208383
22.205887999999995,5.427587495972327,0.0719870700984538
22.210484,5.390269269132485,0.0716030837677461
22.215072,5.342446339797785,0.0712991727524297
22.219664,5.292047291834289,0.0709938127235641
22.224252,5.249454643022704,0.0706091667645493
22.228847999999992,5.205840375049325,0.0702315499982988
22.23343599999999,5.160549422894798,0.0698462843015094
22.23802,5.118078958797359,0.0694356371099164
22.242612,5.084314328299479,0.0689456270613733
22.247208,5.054880543877063,0.068386113184677
22.2518,5.02401444470179,0.067800070437288
22.256392,4.994825029707668,0.0672092263373684
22.260984,4.9597502691710735,0.0666670926296973
22.265572,4.922876639739184,0.0661244084625042
22.270164,4.887557509774299,0.0655856297390553
22.274747999999995,4.852771260114625,0.0650627598844123
22.279328,4.826979354931429,0.0645037228355696
22.28392,4.8083829253294175,0.0639138322477856
22.288499999999992,4.785944388508523,0.0633497697756934
22.293091999999994,4.767880839211722,0.0627778278783138
22.297684,4.753292842991366,0.0622028920099476
22.302284,4.747044126228133,0.0615882265262034
22.306875999999995,4.751955176979109,0.0609130110415831
22.311464,4.765860572206566,0.0602152195192349
22.31606,4.776701109948641,0.0595585021306689
22.32065199999999,4.790117766319515,0.0589046279207069
22.325247999999995,4.804722368014955,0.0582902049573943
22.329828,4.819859850015606,0.057706495737307
22.334428,4.8318102898167306,0.0571695030708468
22.339016,4.843027621332982,0.0566888167723574
22.343608,4.860052255126186,0.05623243323593
22.348188,4.880796811424127,0.0557634372574577
22.352784,4.9089812127315415,0.0552654305192929
22.35738399999999,4.9432172857442,0.0547793134354398
22.36198,4.98411595403283,0.0542661997472425
22.366572,5.027957295092696,0.0537322789922245
22.371155999999992,5.065791105895945,0.0532545519447168
22.37574399999999,5.103258362556759,0.0528063031865811
22.38034,5.14497842202752,0.0523717375228881
22.384927999999995,5.18248982013696,0.0519858270547509
22.38952,5.2197568488181085,0.0516238658515086
22.39411599999999,5.2501169127949945,0.051313173873351
22.398704,5.277534304000645,0.0510271462176098
22.40329599999999,5.297389665482678,0.0507730819877383
22.40788399999999,5.315856853660478,0.0505523907687879
22.412479999999995,5.333302422676486,0.0503417560870746
22.41706399999999,5.348171873063697,0.050123752760626
22.42165599999999,5.357400347336728,0.0499248329901661
22.426264,5.363686148838524,0.0497430058148145
22.43084799999999,5.363431539778494,0.049579349187118
22.43543599999999,5.35712525901322,0.0494018814239216
22.440024,5.345055817419621,0.049250576838791
22.444612,5.326323780550051,0.049125542936705
22.44921999999999,5.298353029775711,0.0490189517379738
22.453816,5.262575879849461,0.0489535711363417
22.45841199999999,5.223733872437829,0.0489116347652891
22.462992,5.183215180845047,0.0488605900297733
22.46759199999999,5.140364740051759,0.0487825222671459
22.472172,5.089297204515495,0.0487123766385994
22.476768,5.037696788674021,0.0486150364739056
22.481352,4.974692235890043,0.0485620348607452
22.485944,4.910133183639061,0.0484909151375364
22.490536,4.838911536112107,0.048445494845829
22.66501999999999,1.6558705898884003,0.0484077371899001
