Time,Force,Position
19.560824,3.0249217428235537,0.1424205717257789
19.565411999999995,3.155462613313358,0.1420541760770426
19.570004,3.277575921448784,0.1417747180376764
19.574596,3.396125393610507,0.1414188363623207
19.579176000000004,3.5075132920079377,0.1410758393941182
19.583788,3.612883420517013,0.1406909762669815
19.588376,3.707249868042912,0.1405346686639327
19.592988000000005,3.798296849023402,0.140260357353149
19.597572,3.885491483153269,0.1398365781784605
19.60216,3.96589109766128,0.1393830184377294
19.606756000000004,4.045336896641277,0.1386645616787908
19.611352,4.114267753494679,0.1380252974418427
19.615948000000003,4.169330299859188,0.1375316141575663
19.620524000000003,4.219274510782991,0.1369843881255033
19.625128000000004,4.265899255161383,0.136351060239089
19.629708000000008,4.301031579700016,0.1358957944115951
19.634308000000004,4.32916865663713,0.1355089891683015
19.63888800000001,4.354274777905752,0.1350687767498228
19.643488000000005,4.3754505090582345,0.1345992692407173
19.648080000000007,4.3926958500945785,0.1340905325921405
19.65266800000001,4.405888616300638,0.1335589081403351
19.657260000000008,4.4135964929235545,0.1330088754002661
19.661856,4.419950098059129,0.1323735606555966
19.666456,4.419963520612542,0.1317949786699858
19.671052000000003,4.4183783022503205,0.1311586002628946
19.67564,4.412496139629524,0.1305156626268139
19.680236000000008,4.402194848036006,0.1298778330733151
19.68482400000001,4.3856755585744684,0.1292810107426559
19.68941600000001,4.365514389873714,0.1286822129432217
19.693996,4.346575068314415,0.1279600150855177
19.698592000000005,4.3186414022786375,0.1273990451593039
19.703184000000007,4.295282951746617,0.1266732977764247
19.70777200000001,4.277565477328775,0.1258224363683285
19.712368,4.258415688158074,0.1249630095248519
19.716956,4.236323226216139,0.1241708380225583
19.721552000000003,4.215374568150143,0.1233322906894201
19.726136,4.194181540655854,0.1225117569518837
19.730728,4.174054273771988,0.1217272356258155
19.735340000000008,4.155237136926835,0.1209562898852224
19.73992800000001,4.14067280289163,0.1201289377030255
19.744536,4.125497545285697,0.1193555209417213
19.749120000000005,4.107423756357156,0.1187158196729386
19.753708000000003,4.0951572697055685,0.1180166774434312
19.75830000000001,4.086777031721492,0.1172982274245354
19.7629,4.081505792671423,0.1165678804922065
19.767492000000004,4.080653682594076,0.1158420014789866
19.77207200000001,4.084342886203597,0.1151089772182573
19.776672000000005,4.094494457109427,0.1143318851625765
19.781251999999995,4.107266288092682,0.1135912243860704
19.882256,4.560233373640006,0.1130689700048738
19.88686,4.596275372258026,0.1130320772364184
19.891448,4.634604978627924,0.1129251455319074
19.896035999999995,4.674689312444489,0.1127357362681862
19.90064,4.710887397593544,0.1125578030413279
19.905228000000008,4.742177614913294,0.1124152945414572
19.909824,4.771380452460829,0.1122620698359009
19.914404000000005,4.801316398293239,0.1120461813245429
19.919004,4.830186583515228,0.1117899218049277
19.923592,4.858479746983375,0.1114541907282331
19.92818800000001,4.883008846498158,0.1111189737222801
19.932776000000004,4.904551131793078,0.1107851190271581
19.937376,4.9270708948011634,0.1103705670722967
19.941959999999995,4.942228856065293,0.1099993058491159
19.946552,4.95578817641379,0.1095718867165204
19.951148000000003,4.967748855846654,0.1090891531039851
19.95574000000001,4.981953001582768,0.1084877064067053
19.960332000000008,4.996357375298546,0.1078064837252642
19.964928,5.00724205448925,0.1071058112214089
19.969516,5.01513991946009,0.1063963395075535
19.974100000000007,5.01608667827804,0.1057487346142386
19.978688000000005,5.011226134819036,0.1051397772984937
19.983276000000004,5.00337877714017,0.1045230538909471
19.98786800000001,4.989113193613623,0.1039876748591508
19.992452,4.9771352178389545,0.1033911055924209
19.99704,4.966423230654369,0.1027533148694836
20.001628,4.953257309555134,0.1021241817032946
20.006208,4.942256811493631,0.1014471562445469
20.010804000000007,4.930601248412771,0.1007567942273401
20.01539200000001,4.916247381988967,0.100091620684997
20.02,4.901116265831663,0.0994224459081125
20.02458800000001,4.884064096064916,0.0987792495988297
20.029200000000003,4.8658681224222295,0.0981627835100135
20.033792000000005,4.848449398513046,0.0975397554255034
20.038380000000004,4.829886870727923,0.0969419908753089
20.042976,4.810957788800363,0.0963705641937723
20.04756400000001,4.79039616414028,0.095865917273832
20.05216,4.770367419785409,0.0953788712790288
20.056748,4.748950502126307,0.0949363725482053
20.061352,4.728310834200708,0.094490503769298
20.065932000000004,4.716665510751587,0.0939540034518288
20.070528,4.706452502055326,0.0934277234109896
20.07512,4.697549623397776,0.092922064540693
20.079719999999995,4.692244482530818,0.0923781321851187
20.084304000000003,4.682486310874249,0.0919377446869044
20.088899999999995,4.671095596485158,0.0915654710341785
20.093488000000008,4.661792261868283,0.0912167628687439
20.09808,4.649834765357093,0.0909553896606596
20.102672,4.642007886941704,0.0906820912648728
20.107264,4.641254299393352,0.0903544756400384
20.111852,4.645652949102597,0.090000894466512
20.11644,4.651483913564699,0.0896601710439022
20.121027999999995,4.659768811941454,0.089317315660355
20.12562800000001,4.673983197309308,0.0889514663330218
20.130216000000004,4.692328200772963,0.088578792331219
20.134808000000007,4.714026572598918,0.0881993075797537
20.139399999999995,4.736257824730084,0.0878429664691976
20.14398,4.7599213916141085,0.0875043899482885
20.148579999999995,4.787837761308082,0.0871506162501003
20.15316,4.821561433279006,0.0867890726958597
20.157740000000004,4.854141301373993,0.0864641590472957
20.162332000000006,4.887620603916626,0.0861362054979577
20.166923999999995,4.924819828963997,0.0857783897348581
20.171512000000007,4.9666384109637525,0.0853881668936775
20.176108,5.016019022687128,0.0849216591248148
20.18070400000001,5.070385545505325,0.0843926272348187
20.185308000000006,5.125118622465959,0.0838427849838585
20.189896000000005,5.180873318588388,0.0832779956972535
20.194500000000005,5.23879343774855,0.0826926731390861
20.199079999999995,5.29082821136624,0.0821877566876997
20.20368000000001,5.337222008869753,0.0817405912140023
20.208268000000004,5.385659044696851,0.0812686222542035
20.212868,5.433441015504594,0.0807925332452883
20.217448000000005,5.477991802664183,0.0803206957510067
20.222048,5.5230313286803545,0.0798255331683597
20.226631999999995,5.564595301620081,0.0793480456000758
20.231228,5.605870763682886,0.0788372087953597
20.235820000000004,5.647879334030567,0.0782857649641315
20.240412000000006,5.686534536015946,0.0777418760538781
20.245008,5.720404054886168,0.07719326246075
20.2496,5.751941824555882,0.0766410936777033
20.254188,5.783601778939743,0.0760859972651221
20.258776,5.810109496066007,0.0755477093093696
20.263364,5.833263844829973,0.0750210376645268
20.267952000000008,5.8493449027269,0.0745242756122079
20.272540000000006,5.86002935393794,0.0740556952049251
20.277131999999995,5.8698143707013335,0.0735933491174661
20.281728,5.879433061301952,0.0730906120758728
20.286316,5.88263352605489,0.0726259624915632
20.290916,5.885667664645053,0.0721171971449095
20.295496,5.8893127268059455,0.0715672667132764
20.300088,5.889726605318684,0.0710098390233669
20.304683999999995,5.888463799650272,0.0704526330505369
20.309272000000007,5.887445363410151,0.0698809105149194
20.313884,5.880908135769998,0.0693375260797916
20.318472,5.87371584311049,0.0687798616330431
20.323072,5.8664013657368335,0.0682299874758966
20.327668000000003,5.8560220308777975,0.0677130494871471
20.332260000000005,5.846009250161199,0.0671716554517154
20.336856,5.834974850282806,0.0666383145144606
20.341448,5.823163200670911,0.0660991439895627
20.346052,5.806732194106631,0.0655789401389542
20.350632000000004,5.790956252561709,0.0650684334665449
20.355232,5.770072215207818,0.0646069600143047
20.359812000000005,5.753807534806311,0.0641229115616888
20.364412,5.739463908014246,0.0636239640469893
20.369,5.726141900383976,0.0631150839700945
20.3736,5.71155390416362,0.0626299805143007
20.378196000000003,5.699009146266851,0.0621230478882022
20.382788000000005,5.6887961375705896,0.0616311412473853
20.387372,5.681814312522482,0.0611532554604997
20.39196800000001,5.677042051960735,0.0606987583738522
20.396564,5.668061130037668,0.0602864594440096
20.40116400000001,5.661411957315108,0.0598926195234509
20.405756,5.658238337668995,0.059497520247613
20.410348,5.6573964672233865,0.0591191455797338
20.41494,5.656432412063634,0.0587486646883609
20.419524,5.655223987475589,0.0583924053255476
20.424116,5.658390550411637,0.0580376561348584
20.428708,5.6651548511382765,0.0576773179306386
20.43329200000001,5.671186043580041,0.0573613982344723
20.437872,5.683757646583635,0.0570205658150488
20.442468000000005,5.699926987377818,0.0566760903590347
20.447047999999995,5.725579411505062,0.0562903374711968
20.451628,5.750987466204018,0.0559243541348501
20.45622,5.7772949553506185,0.0555609327225454
20.460808,5.801314836745341,0.0552307001398589
20.4654,5.828932455930657,0.0548994139521015
20.469992000000005,5.857082955421181,0.0545922519820448
20.474584000000007,5.889442116273027,0.0542524202521258
20.47918,5.921146212105515,0.0539035968916354
20.483760000000004,5.9561595348516745,0.0535232474227198
20.48836800000001,6.000000875911541,0.0530954265423186
20.492952,6.041510467770899,0.0526547811112046
20.497556000000003,6.083264429058549,0.0522049709750543
20.502136000000007,6.128327617259871,0.0517265153818893
20.506736000000004,6.171714121280043,0.0512436462941005
20.51132800000001,6.218287667499742,0.0507362254234345
20.515924,6.257176999281674,0.0502617188430106
20.520508000000007,6.291446974111221,0.0497975093777968
20.525104,6.327227306959145,0.0492995252120285
20.529692,6.35736666369289,0.0488194377916452
20.534288000000004,6.383253217616687,0.0483297335597485
20.538876,6.396181135130978,0.047861876594026
20.543464,6.40461188040703,0.0473943374065769
20.54804800000001,6.409855583483555,0.046953856141613
20.552644,6.414444221540724,0.0464980735112039
20.557232,6.410449210712479,0.0460670408943773
20.561824,6.399913789322407,0.0456457345370163
20.566420000000008,6.379528730456839,0.0452699913181961
20.570996000000008,6.355956629391743,0.0449196800994163
20.575596000000004,6.319714402794059,0.0446169642921158
20.580184000000003,6.276565211492112,0.0443447511372761
20.584776000000005,6.227286305219405,0.0441072674651542
20.58936,6.173920922299524,0.0438928818605041
20.593948,6.110705901904144,0.0437185276185909
20.598548000000008,6.048268131242266,0.0435472720926853
20.603136000000006,5.981499514504924,0.0434128070440871
20.607724000000005,5.915752516929374,0.0432691976547718
