Time,Force,Position
19.21605600000001,2.4882580694750134,0.146700790394976
19.220696000000004,2.597568827731967,0.1466423575361947
19.225336,2.7056916406643534,0.1464976933634181
19.229968,2.813770312148112,0.1462215445784763
19.23460800000001,2.9219270268973867,0.145751485215032
19.23924000000001,3.034003892131063,0.1450263876859309
19.243876,3.140273455087786,0.1445147651472034
19.248512000000005,3.2431455082335825,0.1439755452745596
19.25314,3.3464621587873324,0.1433013999253675
19.257788000000005,3.451122841196684,0.1425179340075685
19.262424,3.5526303832234003,0.141747076062011
19.267064000000005,3.651884219315127,0.140940339182824
19.27172,3.747496176167633,0.1401944713592306
19.276348,3.8398328079233575,0.1394463592694667
19.28098,3.9323696676587447,0.1386284666528505
19.285612,4.017178171507739,0.137986513232948
19.29024,4.104518652536902,0.1372273669916624
19.294876,4.185518950983903,0.1365412279021849
19.29952,4.264676239086979,0.1358711012608529
19.304148,4.337615529322039,0.1352772827108712
19.308788000000007,4.401638518346138,0.134812744013058
19.31343200000001,4.459810063644655,0.1343553107356163
19.318068,4.514950653274681,0.1338481484983295
19.322704,4.562685299712124,0.1333717125968363
19.327340000000007,4.602769633528689,0.1329386864697764
19.331976,4.628785428876698,0.1327021524987362
19.336616000000006,4.649805073498146,0.1323931788442522
19.341244000000003,4.665462013250596,0.1320463963980157
19.345892000000006,4.6726913906486685,0.1317571697224862
19.350532,4.670471586530569,0.1315520381431427
19.355164,4.659824220058092,0.1313948034939697
19.382984000000008,4.442489171397748,0.131385795900167
19.39224800000001,4.3351097063819735,0.1313280906045944
19.39688,4.2743415631911805,0.1313096708953285
19.40152400000001,4.211608224942317,0.1312728140154982
19.406168000000008,4.151284679159478,0.1311301024825367
19.41080000000001,4.089406633909635,0.1309878981792
19.415448,4.026751338926291,0.1308507558958801
19.42006800000001,3.9726796928283594,0.1304863217840806
19.42471599999999,3.923349588396957,0.1300043316733275
19.429356000000013,3.872264756518888,0.1296271260771058
19.43399199999999,3.8262099771842695,0.1291671079123084
19.438636,3.7801993392982793,0.1287792572285168
19.443276,3.731534539517973,0.1285236812774581
19.447900000000004,3.6877776075669706,0.1282005489399412
19.452528,3.650605227626424,0.1277865645702817
19.457152000000008,3.62283788775342,0.1272155810954357
19.461783999999994,3.601532915176725,0.1265736701896529
19.46642,3.592453470724664,0.125711116629539
19.471044000000006,3.587670970531178,0.1248614108033162
19.47568000000001,3.584242741825034,0.1241048028761236
19.48030399999999,3.58523364209161,0.1233508007660043
19.484948000000003,3.593219789959708,0.1225501752016189
19.489588,3.605258512658089,0.1217909371740884
19.494224000000003,3.624414667672136,0.1209822824765654
19.49885599999999,3.645702343907025,0.1202725983922061
19.503488000000004,3.670631899381136,0.1195756194410258
19.508116,3.702023822151554,0.1188251810287593
19.512764000000004,3.732438267208807,0.1182120599283888
19.51739599999999,3.767027471810491,0.1176393283949434
19.522044,3.812409889783949,0.1168880210597701
19.526700000000005,3.85513814586309,0.116267300786431
19.531331999999992,3.903918073647477,0.1155608342121491
19.53597200000001,3.962591780355989,0.1146811872714422
19.54061999999999,4.023597236265008,0.1138204395404269
19.545264000000003,4.0842361380315895,0.113024870783176
19.54988800000001,4.145163550675091,0.1123130724547886
19.55452,4.203026105833211,0.1116898259523452
19.55915999999999,4.257823803505952,0.1111681835065764
19.56380000000001,4.310578262855105,0.1107052585845162
19.568444,4.364354341366052,0.1102203334903639
19.573088000000013,4.418008235162852,0.1097612164869578
19.57772,4.469985444778504,0.1093173402599543
19.582368,4.524783142451244,0.1088362072333751
19.58699200000001,4.575983102333393,0.108412846701793
19.591636,4.626361671033412,0.1079319180571547
19.59627599999999,4.675430109694717,0.1074408857059433
19.600912,4.722944048889019,0.1069656939279029
19.605556000000007,4.76710461972102,0.1065246878584034
19.610184000000004,4.807378941885509,0.106091235700752
19.614824,4.835471877373995,0.1058527965092213
19.61946800000001,4.866996224490297,0.1055209986206919
19.62409600000001,4.895533757386737,0.1051881445090175
19.628736000000004,4.919818487473229,0.1048990717485933
19.63337999999999,4.939606045321482,0.1046663571751054
19.638012000000003,4.955918050093289,0.1044670169296465
19.642656000000017,4.966422752588144,0.1043027224696045
19.647292,4.979459432263169,0.1040597115932646
19.651932000000016,4.991185981899479,0.1037995545238999
19.656568,5.002746205373017,0.1034916179416174
19.66121200000001,5.009520745731396,0.103194223624425
19.665836000000013,5.012286852708119,0.102908609381884
19.670484000000016,5.017707121579156,0.1025365410013933
19.675112000000013,5.017442272887388,0.1021865575710537
19.679752000000008,5.019709401375788,0.1017611570266333
19.684395999999992,5.021321464844832,0.1013278735377503
19.689036000000016,5.020235224970932,0.1009221911487139
19.693671999999992,5.0166950511823805,0.100525912117831
19.698316000000005,5.01147819321268,0.1001371879308695
19.70295200000001,5.007405139118918,0.0997195437305982
19.70757599999999,5.007907300528911,0.0991831297667084
19.71222,5.00493390886246,0.0986763926825131
19.71686,5.005147559395536,0.0981084132277891
19.721499999999992,5.000864037690372,0.0975820055326704
19.726136,4.997968689289438,0.0970079256816005
19.73077599999999,4.994784830011585,0.0963921219615147
19.735420000000005,4.987881048228995,0.0958135740352476
19.74006,4.978034593675169,0.0952817405468083
19.744696000000005,4.9654898357784,0.0947734171969879
19.74933999999999,4.954621762062781,0.0942581963824168
19.753975999999994,4.948905925604759,0.0937092104046999
19.75860800000001,4.9448667733278855,0.0931512350063714
19.763256000000013,4.936374590261401,0.0926946056169362
19.76789199999999,4.927638037766627,0.0922542706214673
19.772528,4.916736062234118,0.0918600530340871
19.777164,4.906244782292676,0.091495958313278
19.78180800000001,4.899595609570116,0.0910803950052469
19.78644399999999,4.893723686581058,0.0906657350931018
19.791076000000004,4.892348935830239,0.0902128839295897
19.795704,4.892650869260571,0.0897562555438627
19.800344,4.891442444672526,0.0893527155712487
19.80498,4.889867465942044,0.0889766038677441
19.809624000000014,4.882695652546011,0.0887236986046655
19.814256,4.8800210113882185,0.0884322229004096
19.818904000000003,4.874037143316753,0.0882093942493041
19.82352800000001,4.868341786122207,0.0880256849624719
19.828176000000013,4.872662392565935,0.0877502293805001
19.832816000000008,4.878781867904956,0.0874606582115352
19.837456000000003,4.891075199663368,0.0871314080263746
19.84211200000001,4.901447477812337,0.0868289857828727
19.84675200000001,4.911697571247162,0.0865395153681029
19.851392000000004,4.923868718291429,0.086229756914421
19.85602800000001,4.940126341982869,0.0858562558915158
19.86068,4.960881137912548,0.0854516742774919
19.86532,4.983556987451669,0.0850290911300055
19.869959999999992,5.007254456152584,0.0845955477291825
19.874596,5.029930305691704,0.0841842238264206
19.87924000000001,5.05554882800206,0.0837425295606812
19.883883999999995,5.080512285293059,0.0832975571042805
19.88852399999999,5.104820677564701,0.0828470075783937
19.893148,5.135014415378814,0.082331530105296
19.89778799999999,5.168028641250015,0.0817935097393522
19.90242800000001,5.2052515284825365,0.0811898444263884
19.90706800000001,5.245539273200438,0.0805561284697871
19.911723999999992,5.291834548174955,0.0798488115260604
19.91636,5.345158972567882,0.0790663903849647
19.92099200000001,5.397051082207949,0.0782903285467107
19.925640000000016,5.449065376562164,0.0775142349207982
19.93029200000001,5.496826868106429,0.0767566574099401
19.934928000000014,5.545609978812488,0.0759921323071578
19.939572,5.593982393927481,0.0752096526208781
19.944196000000005,5.642476993756621,0.0744317636324809
19.94883999999999,5.689417094118757,0.073656519371634
19.953480000000013,5.736601563909183,0.0728797454196463
19.958128000000016,5.7791666767472245,0.0721338586361226
19.962756000000013,5.819400040384759,0.0713828089469936
19.967396000000008,5.854891862355764,0.0706656408634601
19.972027999999995,5.887563196269679,0.0699761790841526
19.976676,5.913571934907622,0.0693352700418657
19.981312000000003,5.935738566326681,0.0687251518070831
19.985956000000016,5.953530210221648,0.068131633368761
19.9906,5.967968485754315,0.0675381942849567
19.99524400000001,5.977909589048744,0.0669620090261855
19.999876,5.983231335390785,0.0664141865061195
20.004515999999995,5.984178094208735,0.0658761327079277
20.00916000000001,5.977440638588918,0.0653951830530811
20.013788000000005,5.964040587693131,0.0649553322675676
20.018419999999992,5.946021179844957,0.0645341812652568
20.02304799999999,5.92890120644443,0.064108707824917
20.027680000000004,5.909982364148609,0.0636874628686035
20.03232,5.892085141014582,0.0632564022785679
20.03696,5.869446376214024,0.0628502864657097
20.04159999999999,5.847462676432823,0.0624557539062202
20.04624799999999,5.818161316356291,0.0620831246428701
20.050880000000006,5.793601497946291,0.0616831966056996
20.05552800000001,5.768797310108001,0.0612952308448552
20.06016,5.750900086973973,0.0608548279433358
20.064796,5.733125048554091,0.0604061034181875
20.069452000000013,5.719314302067239,0.059923405644574
20.07408799999999,5.708446228351619,0.059417997850798
20.078712,5.699132654103005,0.0589238792494751
20.08335600000001,5.691251394607249,0.0584472995686624
20.088,5.687989492063879,0.0579548804566225
20.092636,5.684483220092217,0.0574761859807032
20.097276,5.682287078159267,0.0570232639092179
20.101912,5.682134174549905,0.0565517336316681
20.106548000000004,5.689421115950017,0.0560555055247359
20.111188,5.703370652626102,0.0555288975218889
20.115836,5.717075819873894,0.0550188407512103
20.120472000000007,5.730780987121686,0.0545088427917789
20.12511599999999,5.739378058560511,0.0540421577916785
20.129763999999994,5.750917802770571,0.0535567702125528
20.13439600000001,5.76053649337119,0.0530818573010575
20.139036000000004,5.773386367619964,0.0526218501800553
20.14367999999999,5.783415753811648,0.052174285781151
20.148312000000004,5.793322955289186,0.0517338470931472
20.15294800000001,5.8019641681766405,0.0513215437056117
20.15758,5.80843995802636,0.0509321129223391
20.16222400000001,5.817491866504878,0.050550304135079
20.166868,5.826177220840959,0.0501913778889827
20.17150000000001,5.832819336853456,0.0498485350248867
20.17613600000001,5.835863715075358,0.0495052772823495
20.18077199999999,5.834943801364232,0.0491856816292631
20.185407999999995,5.833779518224816,0.0488798511313006
20.19004799999999,5.83093855090425,0.0485663395730299
20.19470000000001,5.822989487774713,0.0482883737804037
