Time,Force,Position
17.406388,2.938433300066469,0.1528935254004755
17.410975999999998,3.068661997494203,0.1524593868774327
17.41556,3.1870656227566307,0.1522225882712021
17.420156,3.2950323491579816,0.1520803139475043
17.424743999999997,3.3971815336506426,0.1517259819312112
17.42934,3.487461504529368,0.151403612654617
17.433927999999998,3.5694699995847494,0.1510096956861892
17.438527999999998,3.641285965207348,0.1506006120024716
17.443116,3.7040532052731,0.1500840399793272
17.447703999999998,3.755606296744274,0.1496046686219989
17.452288,3.796189609049161,0.1491150292756267
17.456884,3.829889618834936,0.1484382558171525
17.461484,3.846123580341225,0.1480585053188406
17.466075999999997,3.85858323826241,0.1474662668519286
17.470675999999997,3.8683343532089136,0.1467085112659524
17.475271999999997,3.870268829371766,0.145973631306734
17.47986,3.862465613141528,0.1453215838462206
17.484451999999997,3.8479115187380617,0.1447251184460866
17.48904,3.831636598704817,0.1440815220685394
17.493636,3.811719799432353,0.1434482602780768
17.498223999999997,3.791758858711261,0.1427325304521087
17.502816,3.76701223487501,0.1420739132404996
17.507407999999998,3.742754349895342,0.1413529666724391
17.511999999999997,3.7101571854585513,0.1408648947131317
17.516588,3.6751060871071095,0.1404107355765257
17.521172,3.641731672936816,0.139917494708056
17.525764,3.60733563960473,0.1394497970558917
17.530355999999998,3.574616290453794,0.1389418394755198
17.53494,3.545494679093449,0.1383331179504032
17.539548,3.518294121342546,0.1376563910304568
17.544135999999998,3.495590735829881,0.1368604612470766
17.548724,3.471254807584695,0.1361675821806426
17.55332,3.451049497435312,0.1354015581128068
17.557907999999998,3.426146787068025,0.1348567112913221
17.562503999999997,3.397690480358776,0.1344811766667537
17.567096,3.372631683460455,0.1341256686090043
17.5717,3.3499487772112686,0.1338304134394627
17.576279999999997,3.3309077502013023,0.1335208080981336
17.580876,3.311666495211672,0.1333236884881063
17.585455999999997,3.295167685013614,0.1331418693968762
17.590059999999998,3.282965819074131,0.1329578487806478
17.594644,3.2727732896413464,0.1328826636184173
17.599235999999998,3.2662226394477814,0.1328006929536114
17.603828,3.270998082931201,0.1324667561146931
17.608424,3.2839125778920804,0.1320213882378241
17.61302,3.301490571253972,0.131544546104496
17.617611999999998,3.320545020817351,0.1311557384190945
17.622211999999998,3.340298676848714,0.1308624783888081
17.626807999999997,3.362672592957504,0.1306170522397407
17.63598,3.4045321334842145,0.1305677717930786
17.640559999999997,3.4341117648059254,0.1304354426066304
17.645144,3.4688436333852324,0.1302182029209364
17.649735999999997,3.5101600539749938,0.12990451236567
17.654324,3.5554849079464117,0.1295429653185001
17.658911999999997,3.604407499708421,0.1291140138669147
17.6635,3.6597483173181113,0.1285444204039816
17.668091999999998,3.7138231463377154,0.1280508975922148
17.672687999999997,3.773416766757353,0.127445653019474
17.677276,3.8345648866439954,0.1268289947330644
17.681884,3.896856810406577,0.1262014934027442
17.686472,3.958615853863946,0.1255401325211972
17.691059999999997,4.019597647587816,0.1248989629261831
17.695656,4.080701626025829,0.1242759182849092
17.700243999999998,4.135387378616162,0.123803861309594
17.704835999999997,4.188518631739491,0.1233623314697322
17.709415999999997,4.24418186204299,0.122825360979755
17.714019999999998,4.298779331736067,0.1222465501152959
17.718608,4.347325129723901,0.1217596341976549
17.723204,4.399424524053698,0.1211400667839593
17.727791999999997,4.445838800820687,0.1205651857905957
17.732395999999998,4.486323590596579,0.1200861349287137
17.736984,4.5240659355809,0.1196037208570038
17.74158,4.562252877973175,0.1190261486934351
17.746176,4.597819560288023,0.1184200385745875
17.750767999999997,4.627823309754212,0.117855191209644
17.755376,4.650343072762298,0.1173689413052877
17.759967999999997,4.669220956531163,0.1168729348365519
17.764571999999998,4.681514288289575,0.1164384699193343
17.769167999999997,4.694130032741796,0.115912848112224
17.773756,4.6991396060217685,0.1154652123019059
17.778351999999998,4.705248841729053,0.1149207359872664
17.78294,4.706694579035323,0.1143875770319599
17.787528,4.7032324485122885,0.1138907323815585
17.792116,4.696372808178326,0.1133559214523315
17.796716,4.6808853775103225,0.1129152463308016
17.801304,4.659835013993658,0.1124968424407226
17.805895999999997,4.639273389333576,0.1120323306522126
17.810492,4.617768188777218,0.1115121137389036
17.815071999999997,4.592498924267495,0.1109861426254433
17.81966,4.5692728980813575,0.110408445432191
17.824247999999997,4.543470753266424,0.1098542981007449
17.82884,4.515625370127904,0.1093436013923981
17.833432,4.482016826161059,0.1089353265230689
17.838019999999997,4.448408282194214,0.1085214750942141
17.842612,4.414555368799078,0.108125941583834
17.847195999999997,4.383278574032739,0.1076999529777376
17.851784,4.3526568442857565,0.1072800888870677
17.856379999999998,4.320891310662835,0.1068914032625077
17.860968,4.285572180697951,0.1066144587833993
17.86556,4.254261484114723,0.1063190622968625
17.870147999999997,4.224138732856063,0.1060489338889513
17.874747999999997,4.1989238494267065,0.1057483568058612
17.879336,4.178083953521444,0.1053961912988386
17.883936,4.163950794340781,0.1049919905116348
17.888527999999997,4.160610848531893,0.1044463592595529
17.893123999999997,4.157970109190989,0.1039752712929332
17.897703999999997,4.15381901183171,0.1035716601861046
17.902299999999997,4.157929150664034,0.1031234351565027
17.906896,4.166580603183227,0.1026901869572041
17.911483999999998,4.181528096835953,0.1021864787074261
17.916072,4.20264944690807,0.1016227587930054
17.920668,4.224303677285397,0.1010816897463768
17.925255999999997,4.252909013815615,0.1004840941520385
17.92984,4.28245792624211,0.099942814595783
17.934427999999997,4.317403445354492,0.0993462455774089
17.939007999999998,4.353659094505586,0.0987784471902057
17.943596,4.397887468971367,0.0981435715944132
17.948172,4.447390265408887,0.0974626117171192
17.952748,4.505354526017676,0.0966766310522495
17.95734,4.565362024950053,0.0958641034888001
17.961927999999997,4.623326285558841,0.0951008057346768
17.966516,4.682067795901132,0.094353205565095
17.971107999999997,4.7386438832056905,0.0936696130085199
17.975683999999998,4.795097785796104,0.0930144378181546
17.980287999999998,4.846565777291695,0.0924562734610698
17.984868,4.900199191825018,0.0918497259477979
17.989463999999998,4.958696332739018,0.0911807731095704
17.99404,5.011141801947774,0.0905644241334949
17.998635999999998,5.059090098918289,0.0899949600254309
18.003228,5.100253615898689,0.0895273737151798
18.007824,5.140639883145586,0.0890728008221361
18.012411999999998,5.182047769554277,0.088603512839086
18.017004,5.218181233991226,0.0881778408126558
18.021592,5.256069425874843,0.0876846997051917
18.026184,5.288683195786718,0.087232187724767
18.030764,5.321008454821673,0.0867469274209457
18.035356,5.343562119646648,0.0863341128341357
18.039932,5.3617407969475295,0.0859485926894121
18.044532,5.369903510610138,0.0856490213769235
18.04912,5.373935606176946,0.0853570535805843
18.053716,5.376413202276749,0.085059351894992
18.058308,5.37500454970904,0.084750124092825
18.062896,5.368443659883737,0.0844592765147072
18.067488,5.356730532800837,0.0841881863934472
18.072076,5.342930025945721,0.0838899894181588
18.076664,5.326919954604246,0.0835734196430161
18.081256,5.306534895738677,0.0832778106277757
18.08584,5.288193075196696,0.0829510973447756
18.090448,5.269684928491939,0.0825747963430966
18.095036,5.255629812576795,0.0821125438953612
18.09964,5.235156470813969,0.0816978781731127
18.104224,5.214150248745932,0.0812617696970062
18.108804,5.19248896165854,0.0808105495340218
18.113396,5.16902880567585,0.0803691693839084
18.117976,5.149166387483753,0.0799048514975165
18.122572,5.129181784577511,0.0794488341359312
18.127148,5.113039288890149,0.0789512247150958
18.131748,5.099595096545733,0.0784370318994943
18.136332,5.090892445867846,0.0778772585783853
18.14092,5.080679437171584,0.077361868863118
18.145512,5.072387482084764,0.0768258064035467
18.150104,5.066549460912595,0.0762915493477231
18.154704,5.068029100035756,0.0757078261333069
18.159296,5.072084857787715,0.0751160024299761
18.163872,5.082558841387352,0.0744852813308093
18.168464,5.096141823920999,0.0738728482759273
18.173052,5.112545294511736,0.073242750625322
18.177648,5.127927145940678,0.0726298496241471
18.182236,5.144374757980042,0.0720602426734227
18.186836,5.158534762267529,0.0715387296854472
18.191416,5.177314123507399,0.070986766799058
18.196004,5.194172431137829,0.0704523829186196
18.200596,5.21630516074,0.0699080309741832
18.205176,5.238437890342171,0.0693675911275095
18.20976,5.256850697439605,0.0688529196018209
18.21436,5.274241885375246,0.0683534205479409
18.218948,5.2934319422061815,0.0678520864341991
18.223536,5.310945314855968,0.0673512360609863
18.228128,5.32719269891567,0.0668816566440731
18.232716,5.348303809356048,0.0663708729902951
18.23732,5.370436538958218,0.0658527397877644
18.241912,5.39256926856039,0.0653393868073439
18.246516,5.411104260371969,0.0648425074239435
18.251104,5.432459740240637,0.0643337108445271
18.255704,5.44870712430034,0.0638840610604784
18.260292,5.468385919987858,0.0633873394894009
18.264888,5.485654923209352,0.062938928838263
18.269476,5.5020244919832,0.0624941867894048
18.274072,5.521703287670718,0.062007256687858
18.278668,5.540604833624734,0.0615157907761894
18.28326,5.562571237064131,0.0610023549268151
18.287836,5.58813537829412,0.0604832215393563
18.292428,5.608180728124077,0.0599877294350918
18.297008,5.627981708525743,0.0595098648688402
18.301592,5.650603176984497,0.059019890760883
18.306172,5.671670145976245,0.0585188650282307
18.310768,5.69147112637791,0.0580469225634869
18.315356,5.713193160389016,0.0575667659630287
18.319952,5.735281748542558,0.0570658222503151
18.324548,5.752750979743716,0.0565809796600507
18.329136,5.770997460678377,0.0561070449025132
18.333728,5.786545638270093,0.0556382527535508
18.338304,5.805036488633044,0.0551541277807618
18.342884,5.8209512203671965,0.0546706602156584
18.347496,5.838254125405581,0.0541569331678836
18.352072,5.847628446577907,0.0536992396267309
18.356664,5.854426649121438,0.0532349801970989
18.361256,5.864944774169705,0.0527627508573547
18.365852,5.870599172837295,0.0523186169715383
18.370456,5.879851309295475,0.0518741073682806
18.375044,5.880153242725807,0.0514863866759716
18.379636,5.876857438365547,0.0511013431558152
18.384216,5.876382122062375,0.050707211548911
18.388816,5.874763001883267,0.0503275774566745
18.393392,5.869301774485273,0.0499631946398554
18.397996,5.864373427392492,0.0496186173217014
18.402588,5.855847342509119,0.0492743595228091
18.407184,5.84605526903566,0.0489525220648452
18.411764,5.834997206972117,0.0486519103175843
18.41636,5.827659067413311,0.048342051641673
18.420948,5.81455776702618,0.0480537952993842
18.425544,5.803010966106054,0.047778627895262
18.430136,5.788277122986401,0.0475324647428776
18.434736,5.769456803219577,0.0473132884543195
18.439316,5.7465500068055775,0.0471209665127601
18.443908,5.723521025677432,0.0469339331124326
18.448484,5.697793741206342,0.0467432550044302
18.45308,5.664137872869196,0.0465953312193374
18.457672,5.62933820065611,0.04646030362914
18.46226,5.5879981178812,0.0463368732450024
