Time,Force,Position
17.921411999999997,1.8898458045849664,0.1601239674719047
17.925995999999998,1.9806042746885355,0.1582377752006306
17.930588,2.068820527980197,0.1561919164612198
17.935172,2.146976676184957,0.1548799172618949
17.939763999999997,2.219936445683494,0.1537957551956368
17.944356,2.290642509247041,0.1526460083465221
17.948952,2.3586061280190176,0.1515539035826399
17.953539999999997,2.4280359633607413,0.1501545716767053
17.958123999999998,2.488060758634922,0.1492484913745562
17.962719999999997,2.539457763575061,0.1487900613176346
17.9673,2.5900333773330697,0.1482646328553821
17.971904000000002,2.6312039510235348,0.148089556391457
17.9765,2.6755174254648977,0.1475745234613285
17.981088,2.720197454048698,0.1470184560501553
18.036212,3.245463569098576,0.146603025400342
18.040804,3.3016123553369843,0.146511035506317
18.045404,3.355840087965951,0.1465046162768684
18.049996,3.4142764819562377,0.1463077676763921
18.054576,3.473201614803107,0.1460386275831651
18.05916,3.529550629021178,0.1458457684526673
18.063748,3.590352674028861,0.1454425504253242
18.068336,3.6507440234454784,0.1450333118695812
18.072924,3.705816809441727,0.144677127890553
18.0775,3.762888692312934,0.1441786098274899
18.082096,3.8124765887260383,0.1438283792532304
18.086672,3.859688594490008,0.1434212953988189
18.091264,3.902603655995402,0.1430279414157638
18.095852,3.9490281723941294,0.1423972371337712
18.10044,3.99434278673381,0.1416697258829268
18.105036,4.035482641529058,0.140948092565834
18.109624,4.07179267176052,0.1402210711471274
18.114204,4.104949561609345,0.1394600647973628
18.118808,4.134176061342031,0.1386905032229413
18.1234,4.160615974834517,0.1378399771827378
18.127996000000003,4.185290921248596,0.1368819520388257
18.132576,4.202970620061156,0.1360032906084489
18.137172,4.212877821538694,0.1351796747510916
18.141752,4.217588644310008,0.1343788386545986
18.146344,4.217225273089244,0.133578148498791
18.150928,4.2107660887146094,0.1328083302258232
18.155520000000003,4.198866156205457,0.1320822284930681
18.1601,4.181769844990082,0.1313705132490843
18.164684,4.164751577040225,0.130568757001009
18.169276,4.140371507346412,0.1298516415968625
18.173868,4.117623980385119,0.1290332589154195
18.178456,4.092666888937466,0.128210192617131
18.183048,4.065255863575161,0.1274099525159321
18.187636,4.032326046812822,0.1267275708750457
18.192228,3.995431938117457,0.1261500934858782
18.19682,3.95379628775556,0.1256898856580128
18.201412,3.9119162679653714,0.1252501235866265
18.206004,3.87093568262283,0.1247794909147148
18.210596,3.827300935385974,0.1244276401854516
18.21518,3.784976318187831,0.1240816477617306
18.219768,3.741552038562377,0.1238470731408378
18.224352,3.697272465937904,0.1237034780583666
18.228952,3.6623979333809737,0.1234079393524819
18.233536,3.631165280063263,0.1231107225035897
18.238124,3.6052511901659225,0.1227931446254883
18.242716,3.586698902012538,0.1223927626906571
18.247308,3.568601450898848,0.1221052365534603
18.251912,3.551980455986644,0.1218982541540815
18.256488,3.535814298114133,0.1218048991381551
18.261088,3.525988322823785,0.1216610385911566
18.265676,3.5191491617533006,0.1215127316138891
18.270272,3.51750637938904,0.1213640144290376
18.27486,3.5235919529111723,0.1211006323187765
18.27946,3.5307432870437268,0.1208814858227224
18.284044,3.5408814353961446,0.1206591452590531
18.28864,3.562467862139693,0.1202371940164497
18.293228,3.5879405375507525,0.1197991398875889
18.29782,3.614356788858088,0.1194300032201593
18.302408,3.644537104118789,0.1190561522673271
18.307004,3.678848037475292,0.1186533548303579
18.311592,3.7201100769846858,0.1181567042097577
18.316176,3.7648476695705257,0.1176049394482411
18.320764,3.807297654404488,0.1171574377828482
18.325364,3.850769258400242,0.1166965284508159
18.329952,3.897183535167233,0.1161833000861141
18.334544,3.944497246381871,0.1156753210800711
18.339132,3.996141803671974,0.1150352428505151
18.343712,4.0498295992856645,0.1143433873371844
18.348304,4.104783383489439,0.1135969866171885
18.352888,4.159614982979068,0.1128826307580937
18.357476,4.2115039096974645,0.1122463499930987
18.362072,4.262859956110648,0.1115986985177071
18.366660000000003,4.311395514466741,0.1110267946304353
18.371248,4.3658164183653065,0.1103381090057505
18.375832000000003,4.422647114729895,0.1095787694364606
18.380432,4.47342613938924,0.1089127468510706
18.385024,4.521096165114576,0.1082578115649379
18.389616,4.567333876087053,0.1075982418764791
18.394208,4.611728576715607,0.1069043411546624
18.398796,4.652769908981861,0.1062546964261464
18.403396,4.687471058665951,0.1056400017270684
18.407976,4.721883697473121,0.1049923971780908
18.412576,4.755108390955725,0.1043193841528339
18.417160000000003,4.783058662466588,0.1037056083093933
18.421752,4.807000500595794,0.1031178557866973
18.42634,4.826034470895695,0.1025581361375621
18.430936000000003,4.844535560890385,0.1019892714561847
18.435524,4.859805467236921,0.1014319655846822
18.440116,4.875808481868331,0.1008196199833292
18.444704,4.886004194222789,0.1002355571961759
18.449292,4.891947103767298,0.0996746817961304
18.45388,4.894903199091944,0.099103964403435
18.45848,4.891030372977845,0.0985783581536969
18.463068,4.879184821549061,0.0981319526792145
18.467644,4.863863717043831,0.0977139291689956
18.47224,4.845067059462155,0.0973210699717078
18.476828,4.829213074651715,0.0968782419971119
18.48142,4.8148694478596505,0.0963748327030256
18.486008,4.798971321600582,0.0958668181024791
18.490592,4.775755535046184,0.0954385795956075
18.495192000000003,4.7504965101682,0.095044677715437
18.49978,4.7204959436236855,0.094713948521959
18.504372,4.689840312059815,0.0943671174528961
18.508956,4.6602062996577365,0.0939974737233879
18.513544000000003,4.627507429770279,0.0936818765685748
18.518148,4.595707994330466,0.093352067855817
18.522728,4.560066451671774,0.0930733473682611
18.527328,4.527245397070169,0.0927531052565179
18.531908,4.492014550002541,0.0924970361504124
18.536508,4.462424679049091,0.092164100180786
18.541092,4.43872015363811,0.0917351973963135
18.545692000000003,4.417591746855929,0.0912876219206523
18.550276,4.4045582501025775,0.0907623260105544
18.554872,4.396921360035114,0.0901854500625911
18.559468000000003,4.390838969434653,0.0896129976068144
18.564056,4.390275370234226,0.0889804568275011
18.568644,4.384848044653123,0.0884178614394213
18.57324,4.375089872996554,0.0879465582261435
18.577828,4.366641831378699,0.0874990561269914
18.58242,4.368576307541551,0.0869226510309848
18.587012,4.371165848723761,0.0863542186069549
18.591608,4.378130377430064,0.0857542254007507
18.596196,4.385505601727432,0.0851892276358207
18.600792,4.39737799826304,0.0845896061250131
18.605384,4.411459959285008,0.084004800925644
18.609968,4.427751484793339,0.083442686680422
18.614564,4.44535314034038,0.0829057690265188
18.619144,4.462710426459132,0.0823959315838107
18.623724000000003,4.482110950901469,0.0818527922066035
18.628332,4.50090055177308,0.0813698459000602
18.63292,4.521899717131051,0.0809167431444635
18.637516,4.5412663397565,0.0805336103206409
18.642104,4.560388592953657,0.0801787069439445
18.646692,4.57824485756073,0.0798642160176254
18.651292,4.594835133577718,0.079586937520825
18.65588,4.612857724347563,0.0793333652992674
18.660472,4.637420725679236,0.079021320483187
18.665052000000003,4.66725814898265,0.0786824955211307
18.669648,4.699671690914862,0.0783393292355737
18.674236,4.730574874828697,0.0780602044889235
18.678832,4.76969515348551,0.0777284389013005
18.683416,4.812901908789495,0.0773494337399623
18.688008,4.862771259369453,0.0769194082238787
18.6926,4.9103530021975335,0.0765429000879502
18.697192,4.964186644710521,0.0760837951301464
18.701792,5.018919721671155,0.0756264298599413
18.706384,5.075818221669523,0.0751365173748556
18.71096,5.1363144594584815,0.0746404470278497
18.715552,5.198243012000298,0.0741702453229685
18.72014,5.259516499522759,0.0736934770903194
18.724732000000003,5.318991118149924,0.0732354486254399
18.729312,5.380098279509611,0.0727254053035165
18.733892,5.439528756688149,0.0722239175801554
18.738480000000003,5.5023906454945015,0.0716727506991316
18.743056000000003,5.565619088443293,0.0710976263517165
18.747648,5.628192466372728,0.0705240667833455
18.752236,5.688189725673365,0.0699677489982873
18.756824,5.748020658811229,0.0693772141754321
18.761428,5.805642027462732,0.0687732814870708
18.766016,5.860032212466081,0.0681649013765475
18.77062,5.906449672154743,0.0675894105665038
18.775212,5.94775903603444,0.067077933428775
18.779796,5.98085130517116,0.0666106754486025
18.784392,6.014554497878607,0.0661088590376392
18.788984,6.039918411128933,0.0656543074355127
18.793588,6.061396075711746,0.0651787938628794
18.798176,6.080419806379909,0.0646992870324476
18.802776,6.091592996447532,0.0642305353209091
18.807368,6.1006788067429385,0.0637357510393246
18.811968,6.107310683123695,0.0632338717304086
18.816552,6.110833560570441,0.0627129558398592
18.821152,6.1116581346742445,0.0621990308041434
18.82574,6.110150959577542,0.0616695832856816
18.830332,6.099937950881279,0.0611946873043828
18.834924,6.088292627432158,0.0607002565072136
18.839508,6.071372882011295,0.0602094394693124
18.844104,6.049589410209759,0.0597469557209964
18.848696,6.023186581455834,0.0592981026018207
18.853276,5.992819460768882,0.0588742554387296
18.857868,5.96077565590078,0.0584419816668457
18.862456,5.928854035746824,0.0579978464135711
18.867048,5.894722851106506,0.057525586341965
18.871636,5.857526808980809,0.0570746461143333
18.876228,5.817632463512168,0.0566241920749955
18.88082,5.776838683595878,0.0561682420880807
18.885408,5.734778915089504,0.055730040415144
18.889992,5.693618581030777,0.0552863328776145
18.894584,5.655933800048496,0.0548400633741816
18.89916,5.618126834352072,0.0543976863220419
18.90376,5.580974933675002,0.0539651133881968
18.908340000000003,5.545255347750791,0.0535493909986334
18.912936,5.513011314903025,0.0531353008407049
18.917532,5.480400727912823,0.0527390263047565
18.92212,5.450488444265566,0.0523356807301141
18.926716,5.4229079098188135,0.051950416246041
18.931292,5.397781309286713,0.0515751364337608
18.935892000000003,5.375353012097556,0.0511946690894767
18.94048,5.351536541604169,0.0508406596071487
18.94508,5.333605416653252,0.0504500468262688
18.949668000000003,5.3160849872934,0.050086439694719
18.954268,5.298853068810468,0.0497593993344145
18.95886,5.282931280366248,0.0494603491362306
18.963456,5.269829979979118,0.0491485906178263
18.968044,5.259060428792495,0.0488587311929904
18.972636,5.253443114863467,0.0485819965411131
