Time,Force,Position
20.73737600000001,4.494343357389664,0.1533402158043743
20.74202,4.633335452418997,0.1522323698282193
20.74665999999999,4.763523191319775,0.1510584896006683
20.751287999999988,4.881553205729701,0.1499033185443363
20.755932,4.987669865077063,0.148758941331772
20.760568000000006,5.08187316936186,0.1475987381951351
20.7652,5.161386771975636,0.1465748793604462
20.76984400000001,5.234505810926882,0.1454101755302146
20.774472000000003,5.290236844864158,0.1444247637305683
20.77910399999999,5.336430414388008,0.1434773555320752
20.783744000000013,5.370887194643808,0.1427206490518615
20.788392000000016,5.405588344327899,0.1419640310127011
20.793020000000013,5.440000983135072,0.1411795683719752
20.79765599999999,5.470160819132295,0.1404657964421173
20.80228,5.499665590110165,0.1397552376457557
20.806916,5.520953266345057,0.1391902117016299
20.81155200000001,5.543629115884177,0.1385704749305826
20.816184,5.564139542385568,0.1380048691559771
20.82082,5.582073850258158,0.1374755280705937
20.825456000000003,5.599475277825539,0.1369384095537159
20.83008799999999,5.608293056507505,0.1365772711216736
20.834735999999992,5.610281913750725,0.1363070322078984
20.83936399999999,5.612881694564674,0.1359911083038748
20.844011999999992,5.613560421769182,0.1357131909592908
20.848659999999995,5.612195910650102,0.1354840616455296
20.85329999999999,5.611853018692816,0.1352313419772423
20.857935999999995,5.611754496163821,0.1349594919376396
20.862572,5.604871193644708,0.1348272351221247
20.89039199999999,5.5309576086181504,0.1347190182608416
20.895028,5.518966210290069,0.1346989765652336
20.899664,5.514414656971462,0.1345520906732829
20.904312000000004,5.509374364796271,0.1344421713122959
20.90894399999999,5.510097233449403,0.134223422426993
20.91358400000001,5.517116143236072,0.1339128391356199
20.91821200000001,5.525567367775599,0.1336069404481227
20.922856,5.541580622038747,0.1331694160553099
20.927492,5.560825059950051,0.1327033909823164
20.932124000000016,5.576882455661828,0.132315997904029
20.936768,5.597681393040135,0.1318469510291354
20.941396,5.621955883494889,0.1313380646714038
20.946032,5.64598600452135,0.1308518906081277
20.950668000000007,5.671814994443107,0.130343867764118
20.95531600000001,5.7054503835167765,0.1296944756772193
20.959948,5.74202844536168,0.1290064383990543
20.96458000000001,5.784369668034907,0.1282129057314635
20.969220000000007,5.8314524323746655,0.1273497854144189
20.973852,5.882255119219161,0.1264313268447538
20.97849199999999,5.927294645235334,0.12561992388158
20.983136,5.971434736803857,0.1248260281530726
20.987772000000007,6.011854905867644,0.124094918512551
20.99242000000001,6.047411348550755,0.1234513276074442
20.99705600000001,6.084355964538095,0.122764443813057
21.00170399999999,6.121422765239581,0.1220827797842415
21.006339999999994,6.152193524807533,0.1214874571254563
21.01097200000001,6.177567677689597,0.1209601731525261
21.015627999999992,6.198322473619276,0.1205012926151016
21.020268000000016,6.225739864824927,0.1199509065612667
21.02489600000001,6.2581431671254,0.1193202856468279
21.02954,6.290790838854165,0.1186854107823956
21.034179999999992,6.320329511648921,0.1180642061939498
21.038812000000007,6.350112553871967,0.1174316381035081
21.043444,6.378585466056301,0.1167927774957383
21.048088000000007,6.401417402126458,0.1162366398717704
21.05272,6.415787874025346,0.1157940196041328
21.057344,6.432445953676112,0.1153080055696817
21.061980000000005,6.444484676374493,0.1148801721669138
21.06661600000001,6.452925661282284,0.1144899769061896
21.071264000000014,6.463654253941952,0.1140498519992565
21.07589200000001,6.476303900211061,0.1135864530855827
21.080535999999995,6.487276862299021,0.113131020997303
21.08518000000001,6.506300592967184,0.1125541430696237
21.089811999999995,6.524424889187698,0.1119892272739056
21.09446800000001,6.536130959560532,0.1114945255135573
21.099092000000013,6.548614279666868,0.1109967623107343
21.10371599999999,6.564695337563794,0.110462088458515
21.108352,6.582819633784309,0.1098954653586534
21.11299199999999,6.592971204690139,0.1094065449235112
21.117624000000006,6.593517507548762,0.109041137472244
21.12226799999999,6.590099518474356,0.1087339283314029
21.126896000000016,6.589135463314604,0.1084169869742457
21.131528000000003,6.587027604278911,0.1081240483310412
21.136172000000016,6.583409387224842,0.1078767694056371
21.140804000000003,6.581956593208506,0.1075905645143684
21.14543599999999,6.584101536982761,0.1072696863213138
21.150076000000013,6.5775406471574565,0.1070608717844258
21.15470400000001,6.574944049265181,0.1067971789404593
21.159344000000004,6.575167939429995,0.1065014437317801
21.16396800000001,6.5779679482236055,0.1061908715809241
21.16861600000001,6.577947468960128,0.1059122582726415
21.17325199999999,6.587287888315566,0.1055362368111708
21.17788400000001,6.588944093233239,0.1052535588533553
21.18252799999999,6.593176416779709,0.1049573470659314
21.18716800000001,6.602028097278565,0.1046158359359395
21.1918,6.610224712758063,0.1042661976622997
21.19643600000001,6.619809501541792,0.103882904394387
21.201076,6.62861704059202,0.103501476590426
21.205708000000016,6.636036406338017,0.1031539243050122
21.210352,6.652283790397718,0.1026958545439592
21.214991999999995,6.669674978333359,0.1022161859473031
21.21962400000001,6.684612232354347,0.1017461813831973
21.224272000000013,6.701714909413067,0.101243112895768
21.228912000000008,6.721882443957169,0.1006988976923324
21.233540000000005,6.740783989911185,0.1001862917481827
21.23818,6.762872578064728,0.0996289683453229
21.24281200000001,6.79366699981783,0.0989749661639006
21.247456,6.820374944923758,0.0983813879989046
21.252100000000013,6.849126128353273,0.0977677512312202
21.256732,6.873257954830404,0.0971969000022267
21.261376000000013,6.897511966021679,0.0966188280270533
21.26600400000001,6.911383459432245,0.0961438159400497
21.27063200000001,6.927176006452253,0.0956487668816012
21.27527599999999,6.9407589889859,0.0951490850305825
21.279920000000004,6.953320352357754,0.0946643263067489
21.28456,6.9702567032537015,0.0941577738010692
21.28920400000001,6.985272000540207,0.0936738843098052
21.293848,6.999265678664919,0.0932035927190115
21.29848000000001,7.021187940655689,0.092648679649374
21.303124,7.042865833218166,0.0921149513638207
21.30776,7.062744856885349,0.0915926022743053
21.312396000000007,7.084300564733681,0.0910677456282665
21.317036,7.103935218972572,0.0905642503004596
21.321664,7.122670438763815,0.0900701164400416
21.32630800000001,7.141527843269204,0.0895706689211099
21.330948000000006,7.157564759717503,0.0890980376227933
21.33558400000001,7.1716806225563605,0.0886482166556724
21.34023200000001,7.187961908432951,0.0881699890470531
21.34486799999999,7.197458414319424,0.087752969297323
21.349496000000016,7.209897592977133,0.0873086445134562
21.35414,7.2240134558159905,0.0868619599264229
21.358772000000016,7.246712967540261,0.0863480376648682
21.36341200000001,7.270189728998034,0.085837981599897
21.36805200000001,7.293177751599224,0.0853558645383132
21.37269599999999,7.315388524466913,0.0848726911108226
21.37733600000001,7.337843666762895,0.0843828868276676
21.381968,7.358133386021142,0.0839210459367033
21.386607999999995,7.378178735851096,0.0834715217323342
21.391235999999992,7.39323817458623,0.0830743618113577
21.39587600000001,7.403800441083124,0.0827004891758488
21.400511999999992,7.416161576475315,0.082317933402996
21.405159999999995,7.42840052715336,0.0819435273337142
21.409796,7.439740043383757,0.0815737644481478
21.414432000000005,7.4512017443283,0.0811999145807193
21.419080000000008,7.46356287972049,0.0808234805951681
21.423724,7.473758592074947,0.0804734255106828
21.42836,7.479212762762875,0.0801559813537403
21.432996000000003,7.48442256402251,0.0798522522215138
21.437636,7.496294960558118,0.0795030055609862
21.442263999999994,7.509966225989022,0.0791493518762757
21.44689600000001,7.520939188076982,0.0788071536189753
21.451524000000006,7.526148989336617,0.0785079560740537
21.456156,7.52583999919622,0.0782355705072613
21.46080000000001,7.526308258789325,0.0779660725720429
21.46543600000001,7.529597006439519,0.0776804768052323
21.470064000000008,7.528266397137329,0.0774192983101181
21.474708,7.531799514215814,0.0771232648250641
21.479332,7.53839748877968,0.0767997547882824
21.483980000000003,7.5431965944482515,0.0764826390149122
21.48862,7.550816188173911,0.0761496838007015
21.49326400000001,7.56125626995666,0.0758029961061371
21.497907999999995,7.571285656148343,0.0754373352387724
21.50254799999999,7.579271804016441,0.0750886682194527
21.50717600000001,7.586236332722745,0.0747503671741217
21.51181600000001,7.596798599219639,0.0744029980797905
21.516448,7.610303538487769,0.0740348159730943
21.52108000000001,7.628672204136574,0.0736346011690768
21.52571599999999,7.645486370318376,0.073229816868917
21.53035600000001,7.660501667604882,0.0728344707236873
21.53499199999999,7.67179704238665,0.0724584251904381
21.539636,7.688855577996744,0.0720505244211417
21.544267999999988,7.706036298320981,0.0716367388411302
21.548900000000003,7.732822286692427,0.0711685578261024
21.55354,7.759319764186952,0.0706768212019152
21.558167999999995,7.783896188072035,0.070199185561367
21.562812000000008,7.809372046404769,0.0697186266513219
21.567448000000013,7.831127982232765,0.0692568533791792
21.572092,7.8509628644513185,0.0688084198496788
21.57674399999999,7.872718800279313,0.068349410177495
21.581368,7.895251985840811,0.0678970730049203
21.586004000000003,7.915986302507012,0.0674534338650435
21.59063599999999,7.936231880316633,0.0670338802500572
21.595271999999994,7.96326223811637,0.0665785988618933
21.59991199999999,7.989393161468459,0.0661264300914018
21.604556,8.009350228401157,0.0656867472540152
21.609192000000007,8.031350533657445,0.0652358752116405
21.61382800000001,8.053228654199586,0.0647946508634852
21.618472,8.076905643637021,0.0643513886808861
21.62310400000001,8.09853939475087,0.0639240363836931
21.627736,8.121972014760017,0.0634943430148658
21.632376,8.142706331426218,0.06307462841373
21.63700399999999,8.165483886416006,0.062642444035746
21.641639999999995,8.184541518901057,0.0622273236815658
21.646267999999992,8.207319073890845,0.0618053204186325
21.650915999999995,8.229319379147134,0.0613804568882448
21.65555599999999,8.253362922727007,0.0609439046192544
21.660191999999995,8.281248573525763,0.0604942287472841
21.66484,8.310400212914603,0.0600303173425342
21.669472000000013,8.341839460055324,0.0595467603070921
21.674112000000008,8.369025904386096,0.059060408245197
21.678748000000013,8.395679468411657,0.0585629104341186
21.683392,8.425642259350889,0.0580403749925902
21.688032,8.451230062766028,0.0575223912985093
21.692664000000008,8.477184420323605,0.0569900437567534
21.697304000000003,8.50313877788118,0.0564571795315157
21.70193599999999,8.524595963200516,0.0559315644952778
21.706568000000004,8.54065654183397,0.0554113254900943
21.71119999999999,8.552219948229178,0.0548946039260607
21.715836,8.560185616833799,0.0543780811631907
21.720472,8.565697351523767,0.0538539134118896
21.7251,8.565568110099555,0.0533425263507516
21.72974400000001,8.559020642827662,0.052838425909974
21.734380000000016,8.546832199441592,0.0523460516844593
21.739024,8.522995249684726,0.051893729003512
21.743668000000014,8.498136680766068,0.0514450176839091
21.74829600000001,8.46853657018088,0.0510066120773295
21.752924000000007,8.425855638472038,0.0505899958492755
21.757556,8.377167176506582,0.0501982781604988
