Time,Force,Position
21.154168,5.50414137941771,0.1340310372420473
21.158748000000003,5.578967821445322,0.1336715185212723
21.163340000000005,5.650342372581638,0.1330700735553827
21.167928000000003,5.707393776189366,0.1324783025996843
21.172516,5.743459436992537,0.1320337103523116
21.177112000000008,5.761325941231348,0.1317752451064324
21.181696,5.774773316497438,0.1315254598726635
21.186300000000003,5.791163364534762,0.1312200776463804
21.190895999999995,5.805466032799872,0.1309108130319109
21.195484000000008,5.81755913657862,0.130605237764598
21.200088000000008,5.826054502566777,0.1303543874077514
21.20468,5.830707761336051,0.1301734312156907
21.209276000000003,5.841246365647795,0.1298804098873795
21.213864,5.853173143263769,0.1295386469128783
21.218468,5.862523802250945,0.1292306099712336
21.22304800000001,5.865456235390441,0.1290167216766095
21.22765200000001,5.873374579624762,0.128702429331599
21.232240000000004,5.875241252153835,0.1284598016667346
21.23684,5.878129543844702,0.1281961784676575
21.241423999999995,5.8792189666402725,0.1279586313075096
21.24602,5.879408954988196,0.1277335015256663
21.250604,5.876411901136594,0.127580846660836
21.255192000000008,5.866263513152438,0.1275761151060759
21.259780000000006,5.8568923749017845,0.1275679883028419
21.264376,5.848298486384633,0.1275567769118843
21.268968,5.849432050628834,0.1273693813490278
21.273551999999995,5.85375265707256,0.1271118011372712
21.278140000000008,5.85459771043984,0.1268946836504516
21.282740000000004,5.855442763807121,0.1266777959148864
21.287328,5.859641185536702,0.1264318530877362
21.291923999999995,5.866537910609226,0.1261524894008906
21.29652,5.874578439557691,0.1258435856166175
21.301100000000005,5.881597349344361,0.1255583516067392
21.3057,5.890048573883889,0.1252774870901043
21.310288,5.898011059566835,0.1250320160980626
21.31488,5.914190639992757,0.1246742740824708
21.319468,5.931924719885682,0.1243155702604375
21.324056,5.957998079235732,0.1238452971554042
21.328668000000008,5.983294188852279,0.1233801487480461
21.33325600000001,6.007568679307032,0.1229336632428198
21.337860000000006,6.030332811743409,0.1225374453739845
21.34245200000001,6.05718342082696,0.1220642178801107
21.347044,6.085544387928887,0.1215344245194322
21.351640000000003,6.115171343620899,0.120971058795558
21.35623200000001,6.1495398409794415,0.1203412220172979
21.360824000000008,6.175324689452571,0.1198489171847638
21.365404,6.19804468044032,0.1194189253734499
21.37000400000001,6.224362409218659,0.1189506050648236
21.374596,6.254277875787591,0.1184472439614049
21.379192000000003,6.282105962584309,0.1179399647006608
21.38378,6.304659627409284,0.1174866332471329
21.388384,6.329256530557846,0.1170007706303696
21.392976000000004,6.353076183972906,0.1165212473463084
21.397568000000007,6.374441903473315,0.1160570397777854
21.402156000000005,6.393598058487361,0.1155900458575156
21.406748000000007,6.4104224643009,0.115132742794588
21.411344,6.421972448142698,0.1147259789896629
21.415936,6.4253053372415225,0.1144154591826253
21.420528000000004,6.428760411054491,0.1140976150750291
21.425120000000007,6.433481473457543,0.113746772762275
21.429711999999995,6.441511762774267,0.1133282722730063
21.434296000000003,6.44569994487211,0.112963289580958
21.438884,6.451686995865248,0.112580620742449
21.443480000000008,6.456530242982446,0.1122238627808298
21.448072,6.455077448966111,0.111931513875528
21.452648,6.459387815778099,0.1115619694218183
21.457244000000003,6.465741420913674,0.1111608016266871
21.461832,6.466454049935071,0.1108286843149341
21.466424000000004,6.462669506718228,0.1105420494327979
21.471008,6.458151855216511,0.1103013370328032
21.475596,6.457109756791241,0.1100328428784564
21.480188,6.454146604756529,0.1097901007781072
21.48478,6.449506768540665,0.1095568973686937
21.489368,6.443845313163009,0.1093390926508511
21.493964000000005,6.440759976414151,0.1091029346282498
21.498543999999995,6.438329704684649,0.1088738777125746
21.503152,6.440152235765096,0.108617539005662
21.50774,6.446105384941343,0.1083416717157569
21.512339999999995,6.45463465274639,0.1080504035702226
21.516915999999995,6.463818985570793,0.1077671026855401
21.521519999999995,6.477378305919291,0.1074553536708793
21.526104000000004,6.492614310448936,0.1071339506038871
21.53069600000001,6.509404814445588,0.1068149021679516
21.535292,6.530159610375267,0.1064462841792618
21.539876000000007,6.554389959381392,0.1060531339233659
21.544467999999995,6.573878766720986,0.1057156688667568
21.54906,6.591324335736993,0.1054106265511625
21.553647999999995,6.6126120119718825,0.1050594502460478
21.558244,6.634676937940275,0.1047081161911186
21.562832,6.659928906108194,0.1043075560964894
21.56741600000001,6.686324678152051,0.1038888182936451
21.572004000000007,6.712720450195909,0.1034715256091738
21.5766,6.739893471973269,0.1030550121256597
21.581192,6.771808035417159,0.1025895034830155
21.58578,6.801923729965754,0.1021403696814808
21.59038,6.830895620638409,0.1017146655021174
21.59496,6.86113349990115,0.101265875825203
21.599552000000003,6.894558421363418,0.1007757270071777
21.604147999999995,6.925407224196886,0.1003042941093018
21.608723999999995,6.957155461478004,0.0998295916368361
21.613316,6.981586038463791,0.0994202978959795
21.617912000000004,7.006260984877872,0.098997791162201
21.6225,7.029137062396655,0.0985921762498459
21.627095999999995,7.047149413534763,0.0982430514708512
21.631688,7.064384514939369,0.0978948447250897
21.636292,7.083540669953415,0.0975264507676168
21.64088,7.103840628843401,0.0971397151167522
21.645476,7.127205445218768,0.0967192376699954
21.650064,7.15375730379366,0.0962574973360653
21.654664,7.175567620702022,0.095841628518674
21.659244,7.196478503162736,0.095435473422423
21.663844,7.219432623947037,0.0950072558429005
21.668440000000004,7.24545160221672,0.0945461007300328
21.673036,7.269671711591106,0.0941012518790478
21.677616,7.297733928184376,0.0936242483538203
21.682208000000003,7.328328121957815,0.0931009833832251
21.686812000000003,7.354425143493015,0.092608005498701
21.691408,7.3711612664093,0.0921897933907912
21.695996000000008,7.387775204611437,0.0917790634848298
21.700588,7.402301763041361,0.0913543125780487
21.70518,7.4202597330991,0.0908766177225679
21.709776000000005,7.442304179804016,0.0903578672227905
21.714364000000003,7.462139062022569,0.0898298813922398
21.71896,7.484383736707146,0.0892621095553902
21.723552,7.509815453591252,0.0886592364019563
21.728148000000004,7.538434212674883,0.088022093530114
21.732744,7.564354668415568,0.0874004164763258
21.737331999999995,7.585777951918017,0.0868078945081436
21.741924,7.605280181811023,0.0862363179644852
21.746504,7.628213823331847,0.0856157527506582
21.75108400000001,7.647549727062079,0.0850130007881038
21.755696,7.666763446078164,0.0844213715999775
21.760284,7.681890688447078,0.083874170783799
21.764880000000005,7.696362865796635,0.0833215004399226
21.769472000000007,7.709036174250895,0.0827815260643333
21.77406000000001,7.719544059667423,0.0822704453332099
21.778648000000004,7.734016237016978,0.0817272308672442
21.783240000000006,7.754129390480713,0.0811462794136903
21.787840000000003,7.773465294210944,0.080563771424817
21.792428,7.791290839922801,0.0800143497771713
21.797032,7.802986670663897,0.0795229372196731
21.80162,7.811984198062047,0.0790478824902825
21.80622,7.822536224927203,0.0785772266785422
21.8108,7.829901209592832,0.078141753601939
21.815392000000003,7.830481414268345,0.0777553941555516
21.819987999999995,7.826975142296683,0.0774079154059517
21.82458,7.8235910550391665,0.0770532006427539
21.82916400000001,7.818818794477419,0.0767245015056434
21.833752000000004,7.810326611410936,0.0764147605509941
21.83834,7.798647386144926,0.0761381252636406
21.842935999999995,7.7915875178313,0.0758384828378612
21.847524000000007,7.781174281155376,0.0755400628306073
21.852112000000005,7.773170836945474,0.075205777968352
21.856700000000004,7.765045208021428,0.0748772573887067
21.8613,7.753321841306789,0.0745603116054624
21.865892,7.742497909039798,0.0742404230608003
21.870487999999995,7.726688065677986,0.0739581089549605
21.87508,7.711366961172756,0.0736524930598346
21.879664000000005,7.696168041381671,0.0733400456978592
21.88426,7.682235110180672,0.0730061467717067
21.888848,7.674842589541499,0.0726395604752584
21.893444,7.661320353931565,0.0723232344492024
21.898039999999995,7.6471430533022735,0.0719973128402498
21.902624000000003,7.634109556548922,0.0716556745854071
21.907232000000008,7.627860839785689,0.071271203914143
21.91182000000001,7.623777546060188,0.070864126123995
21.916428,7.62713409734416,0.0704272499363181
21.921015999999995,7.635476559722956,0.0699559044681113
21.925604000000007,7.647294575178197,0.0694798350169648
21.930208000000007,7.66463138203347,0.0689856721952185
21.93479600000001,7.681968188888743,0.0684956283466687
21.939392,7.7007373104968755,0.0680181451638496
21.943976000000006,7.719017693248425,0.067566171406414
21.948576000000003,7.737053706571683,0.0671266987341533
21.953164,7.759220337990743,0.066693582647947
21.957764,7.780609719676302,0.0662591350206011
21.962352,7.80956113108548,0.0657937228345176
21.96696,7.83790161892393,0.0653598818023827
21.971552000000003,7.871760898162413,0.0649133647337541
21.976147999999995,7.910117349639134,0.0644614964176198
21.980732000000003,7.950761408867735,0.0639910249784631
21.98532,8.000888551429396,0.0634820470277606
21.989916000000008,8.053225258477418,0.0629926712255329
21.994512,8.109936953049534,0.0625050154191325
21.999112,8.161540551812683,0.0620565162800716
22.003708000000003,8.211100912252244,0.0616252717901364
22.008296,8.253998677415833,0.0612270745594626
22.01288,8.296241377560065,0.060826325791195
22.017472,8.338850631846736,0.0604131233578772
22.022068000000004,8.376962713895166,0.0600107637357652
22.026660000000007,8.414541915638386,0.0595988340585353
22.031251999999995,8.453509290685837,0.0591678550489689
22.035848,8.490144916532778,0.0587265123910936
22.040440000000004,8.529068150131602,0.0582657115735854
22.04504,8.565781819244062,0.0577900474557093
22.049628,8.605315976413612,0.0573104502962109
22.05422,8.63933134218313,0.0568467144381794
22.058812000000003,8.671792208485645,0.05637636493935
22.063392000000007,8.698734283388124,0.0559207116442339
22.068,8.723344609090097,0.0554574976459424
22.07258400000001,8.745012262020834,0.055011286024962
22.077172000000004,8.762427112141628,0.0545628604943257
22.081760000000003,8.780697255261439,0.0540838116865511
22.086348,8.795736214733095,0.053596062505474
22.090952,8.815106020280217,0.0530785744417656
22.095536,8.835619629703277,0.0525518700633202
22.100132,8.854334370231044,0.0520250094479858
22.104712000000006,8.86794101494984,0.0515252775942135
22.109316000000007,8.880648225220991,0.0510278500955477
22.113904000000005,8.893233250777994,0.0505351486686337
22.118512,8.899810746078384,0.0500673016563074
22.123104,8.902179580017453,0.0496241279374477
22.127700000000004,8.905325663690023,0.0491848585043239
22.132284,8.898622109887096,0.0487786845403185
22.136880000000005,8.889997502474726,0.0483760818979874
22.141484000000005,8.869069323672207,0.0479960471943611
22.14608,8.845076287384309,0.0476285121936444
22.150672,8.816097340001587,0.0472777448050019
22.15526,8.780333612628748,0.0469430442470902
22.159848,8.737418551123355,0.0466399985968536
22.164435999999995,8.683754417694814,0.0463679497589489
