Time,Force,Position
18.99894,3.258713001178455,0.1761964370441193
19.003532,3.4517869819374587,0.1725458072469597
19.008124,3.628616761558434,0.1701184178479984
19.01272,3.797419434784357,0.1679586539211285
19.017316,3.954841633252928,0.1660924918247577
19.021908,4.100394618107566,0.1644751734950613
19.026488,4.236243812386,0.1629375821918752
19.03108,4.355482251383969,0.16178279938449
19.03566,4.470002810900559,0.1604519973881621
19.040251999999995,4.571221842050355,0.1592544502523127
19.044844,4.667722993718771,0.1579142584134482
19.049436,4.757218658153928,0.1565079966224006
19.054024,4.836111097565237,0.1551260151198454
19.0586,4.897982086105015,0.1539388883836415
19.063192,4.952280805289436,0.1528042372342939
19.06778,4.99243294273978,0.151999042522271
19.072368,5.032296569313207,0.1511800541386748
19.076968,5.068151762504975,0.1504338142266967
19.08156,5.101919575924528,0.1496893107318019
19.086152,5.13131240181999,0.1490443240049284
19.090748,5.156696794333794,0.1484598977567944
19.095336,5.179505068218799,0.1479285673323812
19.099928,5.201536092370304,0.1474021368640287
19.104508,5.222256986483096,0.1468809039987056
19.109108,5.240523946681235,0.1463933373460521
19.113696,5.256459157678867,0.1459244814725514
19.118296,5.270062619475991,0.1454786280659712
19.122884,5.28721967761508,0.1449110402371497
19.12748,5.297958509906486,0.1444777618806305
19.132064,5.309963330787979,0.1439989718316595
19.136656,5.313751056926496,0.1436834458009406
19.14124,5.315862098883862,0.143393110478127
19.145836,5.319239129431311,0.1430588460840388
19.150424,5.325803202178288,0.1426368311878809
19.15502,5.331834394620052,0.1422044455179679
19.159608,5.34003101009955,0.1417042928823606
19.164196,5.34144284558893,0.1413555867314446
19.168783999999995,5.338890389145283,0.1411001515238243
19.173376,5.336337932701635,0.1408440205212038
19.177968,5.332475346219273,0.1405795160989766
19.182556,5.327468955860975,0.1403508385803422
19.187148,5.323606369378613,0.1400869008124755
19.191728,5.322031390648129,0.1397515414882999
19.196324,5.317391554432264,0.1394933597463453
19.200911999999995,5.314672771825841,0.1391942919144382
19.205487999999995,5.316040465866593,0.138794515467122
19.2101,5.321128082412083,0.1383269153357284
19.214684,5.323028656758045,0.1379452978748107
19.219276,5.324929231104011,0.1375611436458988
19.223868,5.327607055183476,0.1371746868504799
19.228456,5.334659866787035,0.1367237775805976
19.23306,5.344777535875977,0.1362068551172439
19.23764,5.354895204964917,0.13569614997971
19.242244,5.365545754359068,0.1352047590869663
19.246832,5.37390869600134,0.1347800871309834
19.251432,5.38623592957664,0.1342733155773866
19.256012,5.403671258960909,0.1336473882813605
19.260616,5.426214684154145,0.132904381963955
19.265208,5.452478031852118,0.1321020862601249
19.269804,5.479274259855304,0.1313157125814842
19.274396,5.509790410363224,0.1304712766568814
19.278991999999995,5.53736388809991,0.1296910550936652
19.28358,5.564815181122452,0.1289284660992242
19.288172,5.595209146916226,0.1281121849802273
19.292764,5.625358743281712,0.1273211906767661
19.297356,5.655019600790613,0.1265786163576482
19.301944,5.680593981652342,0.1259289132539751
19.306536,5.707067796961716,0.1252661709207631
19.311119999999995,5.739182588385269,0.1245162706608875
19.31572,5.769498510913527,0.1237973921614027
19.320308,5.7972383148129865,0.1231097523136741
19.324884,5.815783546256306,0.1226113837718341
19.32948,5.831386104928389,0.1221697129289556
19.334056,5.847355217742909,0.1217071722451775
19.33864,5.86050384250034,0.1212838607318623
19.343236,5.874307532277129,0.1208729367367308
19.347816,5.888521917644981,0.1204895242763876
19.352424,5.903391368032192,0.1201182925521606
19.357,5.915440330362313,0.1197923711941757
19.361592,5.931575769339608,0.1193931683404017
19.366196,5.942314601631014,0.1190600362785079
19.370784,5.9568955411413045,0.1186695316692407
19.375376,5.973686045137955,0.118285902475319
19.379964,5.988066756668582,0.1179669620054246
19.384564,5.998605360980325,0.1177052132080756
19.389148,6.006445661949125,0.1174756289545649
19.393748,6.019926939032104,0.1171701511224182
19.398336,6.038927007515116,0.116800967735089
19.402936,6.055883837674542,0.1164740107839067
19.407532,6.075416786462764,0.1161291218388839
19.412124,6.09597135441278,0.1157673137469207
19.41672,6.1255983101047935,0.1152525632264627
19.421312,6.156246884958599,0.1147202394793745
19.425908,6.184485667346381,0.1142514783699435
19.430504,6.221430283333722,0.1136588256630344
19.435092,6.253633357654532,0.113132488876779
19.439684,6.286080801403633,0.1125962076599514
19.444272,6.314153257628641,0.112102203504687
19.448856,6.346312190500822,0.111547480999659
19.453444,6.373240842849892,0.1110901569634988
19.458036,6.407364970780144,0.1105656321491279
19.46262,6.4386686106533055,0.1100812039537202
19.4672,6.464287132963661,0.1096213818078103
19.471792,6.489861513825387,0.1091165183903928
19.47638,6.519644556048434,0.108537547127644
19.480968,6.552370271042716,0.1079204452229676
19.485576,6.576101641560519,0.1073907908400521
19.490164,6.588262548973045,0.1069643254247997
19.49476,6.597192272737418,0.1065495601601036
19.499352,6.603012997567783,0.1061398773785276
19.50394,6.607812103236353,0.1057460845695743
19.508536,6.610934524723774,0.1053654954057615
19.513132,6.615977999820635,0.1049633790580667
19.517728,6.620732964040578,0.1045315674751114
19.522307999999995,6.622789624917577,0.104128135169489
19.526912,6.628155512708249,0.1036651089396353
19.5315,6.632866335479562,0.1031978336824282
19.5361,6.642074330489116,0.1026952611372333
19.540688,6.645519164670345,0.1022607641656456
19.545288,6.648675487974656,0.1017956738469774
19.54988,6.645780139573722,0.1013687509931911
19.554476,6.642107541439286,0.1009413936959966
19.559068,6.643709365276592,0.1004794068812733
19.563664,6.645966254133253,0.1000250154499081
19.568252,6.651043631047004,0.0995473029687735
19.572844,6.652523270170164,0.0990972371803729
19.577448,6.659399515979211,0.0986046990413143
19.58204,6.676169540712384,0.0980367915396917
19.586628,6.696659487950294,0.0974376194666809
19.591216,6.717804500207561,0.0968476913332361
19.595804,6.740748381360124,0.0962459532484419
19.6004,6.761526839474953,0.0956828364923013
19.604988,6.781528047856281,0.095124059246453
19.609584,6.801284886809317,0.0945793313581789
19.614176,6.818221237705265,0.0940632088424643
19.618752,6.837489337801719,0.0935557306312063
19.623336,6.85291533067929,0.0930862068436339
19.627924,6.863721966604475,0.092655203695768
19.632512,6.877349090586749,0.0921998762177917
19.637124,6.894329582931326,0.0917362710310911
19.641704,6.914785628352347,0.0912581887776116
19.646296,6.937040542668664,0.0907703862527122
19.65088,6.955819903908536,0.090302043369936
19.65548,6.9776641226337865,0.0898015519983857
19.660072,6.995544049426011,0.0893480444347582
19.664664,7.018820582904121,0.0888657575562245
19.669256,7.042463670524668,0.0883672101573898
19.673843999999995,7.066473312287653,0.0878581096459249
19.678444,7.089216965460553,0.0873780365209223
19.683032,7.112860053081099,0.0868956022545193
19.687632,7.139690182901173,0.0863793911187302
19.692224,7.164843628540097,0.0858661379320094
19.696824,7.188975455017227,0.0853668980961343
19.701416,7.215150519817943,0.0848474856451276
19.706008,7.24132558461866,0.084328369051278
19.710595999999995,7.262348412161781,0.0838268139313104
19.715192,7.28901221581908,0.0832876422627558
19.71978,7.319518126695264,0.0827201859343729
19.724376,7.348591722818587,0.0821455710836682
19.728964,7.378154057798493,0.0815520655646263
19.733548,7.405018089435456,0.0809739601706348
19.738136,7.431227056053063,0.0803908730374948
19.742732,7.458213272404173,0.0798113905920124
19.74732,7.478414708765164,0.0792861089585199
19.7519,7.498982699268591,0.078744010938057
19.756492,7.514398452514424,0.0782158946116767
19.761072,7.529036956026754,0.077688397222284
19.765664,7.535869060387172,0.0772218802905946
19.770252,7.540247230832938,0.0767540280656545
19.774828,7.5430709018117,0.0762818762564326
19.779416,7.541030846409787,0.0758475284876
19.784008,7.54181127906496,0.075396948491737
19.788604,7.540915027538985,0.0749464074271707
19.793208,7.542062014336599,0.0744802561892296
19.797796,7.548194912229032,0.0739772368194035
19.8024,7.558169917340351,0.0734514590267339
19.806992,7.565690988537014,0.0729263205997183
19.811584,7.57063594110488,0.072405839158859
19.816164,7.577135393139752,0.0718926961002727
19.820764,7.581591606851038,0.0713991783693775
19.825351999999995,7.588091058885908,0.0708896405964829
19.829952,7.595489945368427,0.0703794430271679
19.834548,7.602233766831589,0.0698606865014467
19.839148,7.614496379694785,0.0693205336809872
19.84374,7.62561518868204,0.0687951416457073
19.848332,7.63636744352686,0.0682856903782272
19.852932,7.643810471458006,0.0678116464375808
19.857524,7.656239410483975,0.0673015871429901
19.862128,7.672388272014682,0.0667780852607968
19.866724,7.691113252174185,0.0662561384711811
19.871316,7.709960417047835,0.0657286527526103
19.8759,7.729951385797425,0.0651918322068342
19.880488,7.752762842604103,0.0646445069098714
19.885084,7.767767900258869,0.0641424003310087
19.889672,7.77598817792352,0.0636791630122158
19.894268,7.779100359779202,0.0632541604436443
19.89886,7.779924933883005,0.062855287142899
19.903452,7.782548376882104,0.0624535902491371
19.908044,7.785294004595348,0.0620479414287535
19.912632,7.78816181702274,0.0616374225358314
19.917228,7.790130195002482,0.061229795028708
19.921808,7.791199138534576,0.0608249082620562
19.926396,7.794189135676111,0.0604124197430045
19.930992,7.796646252512437,0.0599869130959832
19.935576,7.798326119615259,0.0595562902022523
19.94018,7.803193028917607,0.0590999317561092
19.944776,7.81611070680016,0.058597477217847
19.94936,7.825064092749684,0.0581161751155859
19.953968,7.829275937032676,0.0576519433739567
19.95856,7.82617012102034,0.0572003056737497
19.963164,7.824085924169799,0.0567420921394478
19.96774,7.817260185652728,0.0562995972316205
19.97234,7.80916845854557,0.0558750309457876
19.976928,7.810026934466264,0.0554043304746801
19.981528,7.814727517605839,0.0549190662529091
19.986112,7.825435631002029,0.0544027523442289
19.990712,7.837287548274159,0.0538739115954192
19.995296,7.846196792775055,0.0533587273581306
19.999892,7.851918995076424,0.0528674995376185
