Time,Force,Position
20.31092,1.76911399197772,0.200776450522341
20.315508,1.8423725119849157,0.1975237452084457
20.320096,1.9093688926754648,0.194904826547344
20.324684,1.9786867829347816,0.1915974904258479
20.329272,2.0398214802680124,0.1890635445179209
20.333864,2.099557764665273,0.1865352870388316
20.338456,2.1572405711072085,0.1838875431846997
20.343052,2.2060851196037,0.1817338304205185
20.34764,2.2517323862689267,0.1795642433687957
20.352224,2.2940601863887427,0.1774619498897173
20.356812,2.324484871077735,0.1759605067779504
20.3614,2.3541662078501138,0.1743032724852851
20.366008,2.376075047287471,0.1729790068417383
20.370596,2.3948748877908197,0.1717550871813047
20.375196,2.411587348521953,0.1705531373212483
20.379788,2.426989679214373,0.1693975212897188
20.384392,2.4435358137827325,0.168157897945184
20.388984,2.4603263177793835,0.1668915650226108
20.393584,2.474662887861382,0.1657170615999733
20.39818,2.489243827371672,0.1645144934917917
20.402772,2.511142427177291,0.1629498151960569
20.407376,2.5291989197640263,0.1615810937275196
20.411964,2.5474997817790537,0.1601712954999303
20.416568,2.5619585365751987,0.1590102279091035
20.421148,2.577194541104845,0.1578212472007576
20.425748,2.5874446345396698,0.1569481467101759
20.430332,2.594385501060822,0.1563127284045172
20.43494,2.6055791703919224,0.1555288368810647
20.439532,2.615629035847084,0.1548421361590583
20.49464,2.6398562019315364,0.154638230866193
20.499236,2.6490610140194164,0.1544920269451391
20.503828,2.660597575307804,0.1543110883906476
20.508416,2.671889767167899,0.1541676332860505
20.513008,2.68612463179923,0.153893020896816
20.517596,2.702280550040002,0.1535324083326411
20.522192,2.725754128576102,0.1529153885827552
20.526784,2.7474288382169063,0.1523784176549225
20.531372,2.771024601467153,0.1517797935571096
20.535968,2.7994840910980754,0.1509502722084139
20.54056,2.829986819052585,0.1500491350737966
20.545148,2.8634322197783293,0.1490253950133132
20.54974,2.898143609094159,0.1479054809728613
20.554332,2.929012891191105,0.1469461872221072
20.558936,2.957306054659253,0.1460478676632916
20.563512,2.987476130288215,0.1449439678029731
20.568108,3.019034379221408,0.1437393188605461
20.572688,3.049160313401741,0.1425577797187572
20.577284,3.0744225212013987,0.1415915066997734
20.581872,3.098252414248197,0.1406437013001706
20.586472,3.118484569504405,0.139819942943927
20.591064,3.1343417372365185,0.1391516501082594
20.59566,3.14439160269168,0.1386104414227185
20.646148,2.989104108365625,0.1380327097068424
20.650736,2.970107222804286,0.1377748400796071
20.655328,2.9550746291759755,0.1373541764739829
20.659908,2.9375881016330125,0.1369696982031092
20.664496,2.9202237588041964,0.1365639112250923
20.669092,2.902693089812605,0.1360782441956119
20.67368,2.880787433296921,0.1356991851350483
20.678284,2.860025580657176,0.1352561834918681
20.682876,2.836565424674488,0.1348860580092228
20.687468,2.814659768158803,0.1344997696788006
20.692064,2.7949195346808517,0.1339959270786448
20.69666,2.7775110504034064,0.1334637456029561
20.701264,2.761779250307112,0.1328921708640034
20.70586,2.751199687468412,0.1321913702802621
20.710468,2.7427855476674456,0.1313762926251722
20.715048,2.7434879370571035,0.1302716450618845
20.71964,2.7438237723043244,0.1292185898723397
20.724232,2.748246084198718,0.1279707197952889
20.728836,2.7542228955601176,0.126700970024201
20.733424,2.7567682952937,0.1256179938129649
20.738024,2.7569039025612567,0.1246884499143243
20.742616,2.7462904379056683,0.1241809713767212
20.747212,2.730446692726967,0.1239126374699736
20.7518,2.7169346967487717,0.1236200778378463
20.756396,2.7013794624469893,0.1234138996052145
20.760984,2.6930197037263897,0.1230014232153501
20.76558,2.6899343669775315,0.1224539990643537
20.770168,2.687748464676321,0.1218805931528119
20.774756,2.6887937460232654,0.1212616632183883
20.779344,2.698300491541477,0.120386080404794
20.783932,2.706174694327167,0.1196534488275325
20.78852,2.7131494626652093,0.1189426620532266
20.793112,2.716937188803725,0.118373505118929
20.797708,2.7264880757705643,0.1176278028452905
20.8023,2.737226908061972,0.1169387600603016
20.806896,2.744123633134496,0.1163839027552356
20.811476,2.751919792654669,0.1158072791424778
20.816068,2.7607817127852625,0.1153016524542623
20.820664,2.7696436329158565,0.1147975236297306
20.825252,2.7832470947129813,0.114154433699979
20.829848,2.797505621529463,0.1135227128715104
20.834444,2.820880677536568,0.1126588989398511
20.839032,2.849896709657852,0.1116471622021549
20.84362,2.878912741779136,0.1106503263474435
20.848212,2.910382707815072,0.109620988614789
20.852808,2.9359673283085383,0.1088107773588484
20.857396,2.963106448269009,0.1080162562951991
20.861996,2.992699502144132,0.1072189302911561
20.866584,3.022536925447546,0.1064008232128154
20.871184,3.045589568760842,0.105804259103785
20.875772,3.0677427776264907,0.1052218646305953
20.880372,3.0909176056539325,0.1046074539758937
20.884968,3.118056725614403,0.1038774094654583
20.889556,3.139432684746549,0.1033166108037413
20.894136,3.157455275516396,0.1027919753403385
20.898732,3.1736789973909465,0.1022972321147168
20.903328,3.1929675767508776,0.1017201961134071
20.907928,3.211967645233889,0.101092771479637
20.91252,3.232233702306986,0.1004128195141723
20.917112,3.251966879074872,0.099716800420554
20.921704,3.274887098042284,0.0989288082398811
20.926288,3.292655079752101,0.0982066700433045
20.930876,3.304127020328382,0.0975866129191641
20.935468,3.314943895885307,0.0969558017924831
20.940064,3.3284149333365467,0.0962109860929459
20.944656,3.3412309057684304,0.0954442211082695
20.949252,3.352081683142244,0.0946418652962083
20.95384,3.3586796577061104,0.0938775783819101
20.958436,3.3637231328029724,0.0931121732426918
20.963024,3.3683559123087696,0.0923018619982949
20.96762,3.3744990498329424,0.091409588183735
20.972216,3.3817859912330546,0.0904840756762295
20.976804,3.3866189987185145,0.0895703515765355
20.9814,3.3918185603464117,0.088612333121654
20.98598,3.397917556421956,0.0876374077949509
20.990568,3.40516035637344,0.0866172748073628
20.995164,3.408805418534332,0.0856504662934821
20.999744,3.409385623209844,0.0847560428976778
21.004336,3.4052242862188256,0.0839350946797996
21.008924,3.400041330066013,0.0831407342594915
21.013524,3.390361201674962,0.0823960626546804
21.018112,3.3846453652169397,0.0815729784855132
21.022716,3.3789295287589165,0.080737740806793
21.027308,3.368716520062654,0.0799383649601056
21.031908,3.354417034719217,0.0792320571387737
21.036496,3.342038602985224,0.0784898190355806
21.041092,3.3262287596234112,0.0778501634780472
21.04568,3.311073981280954,0.0772242413130832
21.050276,3.2955526487960616,0.0766357113644921
21.054864,3.2787653277210835,0.0760919244847742
21.05946,3.259446029465936,0.0756454692176631
21.064048,3.238982927334849,0.0752318619660174
21.06864,3.2164765868801752,0.0748553711086078
21.073228,3.194503126730712,0.074508951534506
21.077816,3.1744507201906904,0.0741291339154932
21.082408,3.1552977480983166,0.0737369653117006
21.087,3.13565603714936,0.0733972721969487
21.091596,3.1161365109145494,0.0730389623021248
21.096172,3.103934644975068,0.0726062393159994
21.100768,3.088667921550204,0.0722335784090428
21.105356,3.078797804811229,0.0718187341429168
21.109948,3.0653740917302894,0.0715213466224886
21.11454,3.0564475508875906,0.0711896177615606
21.119124,3.0553715506454298,0.0708277788415118
21.123712,3.0562166040127106,0.0704402435166786
21.128308,3.058616156846996,0.0700716737802732
21.132896,3.068455554690756,0.0696322008570874
21.137488,3.079072202268017,0.0691999529739442
21.142084,3.0905882842929264,0.0687618132110818
21.14668,3.1059464735367186,0.0682763074495228
21.151268,3.1270678236088347,0.067720266651263
21.155868,3.148844238700307,0.0671902585619935
21.160448,3.177693944658817,0.0666379896303176
21.165052,3.2056442161696794,0.0660919018371393
21.169644,3.2333501182522504,0.0655822303324058
21.17424,3.261588900640032,0.0651138075454631
21.178832,3.293791974960842,0.0645933044801163
21.183428,3.331513840681685,0.0640427244850027
21.188016,3.3632281761459124,0.0635911121882163
21.192612,3.4016051068861115,0.063075103072397
21.1972,3.4334416270644845,0.0626233969005333
21.201796,3.467443570280591,0.0621256221803911
21.206384,3.5013233287825507,0.0616519653351844
21.210972,3.5336485878175066,0.0611756832029553
21.215564,3.5620095549194333,0.0607526666718702
21.22016,3.587794403392564,0.060332356866179
21.224748,3.604340537960923,0.0599725440024531
21.229348,3.6249731491764567,0.0595580655445033
21.23394,3.645727945106136,0.05913386832615
21.573708,1.3607114122291335,0.0590137875123538
