Time,Force,Position
21.465648,2.240278744833874,0.1655324249209057
21.470248,2.3534316103097104,0.1638125002108947
21.474844,2.458234956696686,0.1622788764456061
21.699836,2.1376440044063045,0.1616435605186268
21.704428,2.157163530641115,0.1614503533000882
21.709016,2.185022336333048,0.1608793481937256
21.713624000000003,2.2163566951014264,0.1601910902372723
21.718212,2.2538649102891943,0.159281041272301
21.722812,2.3025328929911733,0.1578570365324081
21.727404,2.3536548096078045,0.1564040963430106
21.731996,2.4017118687390555,0.1551236358422077
21.736588,2.4470706245273623,0.1539652921794192
21.741184,2.496027118106261,0.1527453239958478
21.745788,2.5543445103040754,0.1511255615730039
21.750372,2.619202313063716,0.1492622522615781
21.754972,2.681606181908704,0.1474874442310707
21.759564,2.742988431591898,0.1457949653657903
21.764156,2.806658289026972,0.1439919924562754
21.76874,2.87465899253751,0.1419880278428184
21.773344,2.940327946847542,0.1401188168367784
21.777928000000003,3.0032985978146303,0.1383856751890971
21.782524,3.0613613809524143,0.1367784356073888
21.787116,3.118114034051485,0.135200038539123
21.791712,3.174455991559491,0.1336082399894126
21.7963,3.229854373171221,0.1320384108300412
21.800896,3.279323267791853,0.1306993978610621
21.805484,3.3258053481926213,0.1294094796485108
21.810072,3.3637818229734946,0.128309526526143
21.81466,3.3950515610297667,0.1273807530821117
21.81924,3.421779985399172,0.126484577156984
21.823836,3.450629691357682,0.1254071379628992
21.828428,3.4833995478005924,0.1241296098907011
21.833024,3.507419429195316,0.1230486160855998
21.837616,3.5238331394177917,0.1221164968217497
21.842212,3.5318634287345163,0.1213174598578927
21.8468,3.539727391888467,0.1204482701275171
21.851388,3.5497126366315235,0.1194249302865388
21.85598,3.555689447992922,0.1184434589263239
21.860568,3.5567583915250167,0.1175260092972296
21.865172,3.5547183361231034,0.1166233747164279
21.86976,3.552389769844269,0.1156655502923122
21.874364,3.550549942422018,0.1146421243886577
21.87896,3.546011811656824,0.1136692064295814
21.883548,3.537998127815184,0.1127469619579505
21.888144,3.5203791759263368,0.1120627693695283
22.016664,2.834708612843136,0.1117031163433
22.021268,2.848532781883402,0.1115932494058758
22.025864,2.873027979581296,0.1112934955326987
22.030468,2.8978116881561093,0.1110575341251827
22.035048,2.9284807422733925,0.1106470762316957
22.039648,2.963114088323704,0.110113789415524
22.044236,3.000079183574522,0.1095764405028209
22.048836,3.0376993438446966,0.1090602622875157
22.053416,3.0882781405243787,0.1082580970775728
22.058016,3.1342375802516758,0.1075824835041228
22.0626,3.177909412227093,0.1070128135026128
22.067196000000003,3.2286103936209205,0.106251936527975
22.071788,3.2773903214053064,0.1055827481370368
22.076384,3.328990737246782,0.1048748653022917
22.080972000000003,3.382267837269408,0.1041872529795679
22.085568,3.4368109258821176,0.103459852912173
22.090156,3.4945410566943544,0.1026301755981635
22.09474,3.5535371760966754,0.1017541048931083
22.099332,3.6157203376985234,0.1008265899490028
22.103924,3.6776149884234512,0.099864933986675
22.108512,3.736034086071933,0.0989419359453921
22.113092,3.789056577034528,0.0981286010086873
22.117684,3.836926830739528,0.097403967715022
22.122272,3.8855301927294006,0.096608898233467
22.126868,3.933356304985772,0.0958352464537929
22.131456,3.9822040364039366,0.0950591304217408
22.13604,4.029986007211679,0.0942411764810684
22.14064,4.074903348513705,0.0933971822503678
22.14522,4.1083724114246,0.0926887990116304
22.149824,4.143229647639725,0.0919270066123931
22.154416,4.178819992139725,0.0910958838572715
22.159004,4.206193241896747,0.0903815690846757
22.1636,4.228292069682029,0.089717491906847
22.168192,4.244461410476214,0.0890915761906524
22.172784,4.253146764812295,0.0884965916556562
22.177376,4.258600935500222,0.0879084834430858
22.181972,4.261845541701788,0.0873045699909608
22.18656,4.2621033336834895,0.086680187558763
22.19116,4.251567912293418,0.0861579327976016
22.195748,4.2367796880934,0.0856525887659559
22.200348,4.2233796371976124,0.0850900494049895
22.204944,4.204582979615936,0.0845716343479212
22.209536,4.178835215881368,0.0840915404174473
22.214124,4.149611899070356,0.0836274391088787
22.218716,4.114214725839954,0.0832041203235445
22.223308,4.073787500066103,0.0827873915702498
22.2279,4.029518167073368,0.0824192018393877
22.232488,3.9851266493664874,0.0820545693028576
22.237084,3.944332869450198,0.0816511700039838
22.241672,3.898264667562167,0.0812743636363256
22.246264,3.850153227350549,0.0809293233553935
22.250852,3.804085025462519,0.0805368535036143
22.255432,3.75993787718393,0.0801101505008357
22.260016,3.7200435317152887,0.0796625106166665
22.264604,3.6824809354471535,0.0792198251103852
22.269196,3.643652350588934,0.0788150611928775
22.273784,3.602536157978837,0.0784668761640935
22.278372,3.561708476245658,0.0781646697570044
22.28298,3.5252557820365724,0.0778321782873215
22.287572,3.49125702174214,0.0774959176797377
22.292160000000003,3.459057130343003,0.0771370984398061
22.296756,3.4335198342198385,0.0766848462721578
22.301344,3.4119909714783296,0.0762408954491848
22.305944,3.390872804327887,0.07583566616557
22.310536,3.373885255273245,0.0754284942398673
22.315132,3.357186217095524,0.0750742963404935
22.319712000000003,3.3440849167083937,0.0746864574449119
22.324308,3.334459169397709,0.0742815850886131
22.328888,3.324589052658734,0.0739023550587507
22.333488000000003,3.319626803749062,0.0735305327956458
22.338076,3.3194060965059213,0.0730988980144261
22.342676,3.321639323177433,0.0726761634391671
22.34726,3.325793603458385,0.0722294239815591
22.351852,3.3254507115010994,0.0718134152599407
22.35644,3.326784503724963,0.071398883125522
22.361036,3.3318382184535635,0.070948149910251
22.365628,3.346130647086934,0.0704208373598001
22.37022,3.3661862365486286,0.069832101828254
22.374812,3.3927822365721494,0.0691960419556408
22.379396,3.4202776710433183,0.0685614776493813
22.383984,3.445241128334317,0.0680143815860597
22.38858,3.472658519539969,0.0674924952994452
22.393172,3.503018583516855,0.0669360486400425
22.397764,3.537220754712624,0.0663390161779485
22.402356,3.575631587269713,0.0656778246245446
22.406944000000003,3.61968339594098,0.0649730483061076
22.41154,3.6655340735075432,0.0642707680094581
22.416128,3.708564263017017,0.0636003393756641
22.420716,3.7515944525264895,0.0629331081463754
22.425312,3.798955488111429,0.0622016885984282
22.4299,3.8442732853727817,0.061519419445506
22.434488,3.889835452062425,0.0608316407049955
22.439084,3.935031064609632,0.060189455732631
22.443672,3.983702230233283,0.0595469549027965
22.448268,4.030574526961639,0.05891386908608
22.452848,4.074870705061198,0.058287834852637
22.45744,4.111971407579573,0.057701733434283
22.462032,4.140488461212535,0.0571874689864164
22.466624,4.159522431512436,0.0567449125707439
22.471212,4.174836479307601,0.0563213554037685
22.475812,4.193826308158874,0.0558089261833016
22.4804,4.208441149486053,0.0553021706385007
22.484996,4.222278741079731,0.0547928010129573
22.48958,4.232640779596962,0.0542817797294002
22.494172,4.235318603676427,0.053826282598896
22.498764,4.230678767460566,0.0533921493804245
22.503356,4.222441193454112,0.0529627514038212
22.507948,4.212526935266509,0.0525211332341897
22.512532,4.200158743164253,0.0520581505437131
22.51712,4.177818728872351,0.0516874879070357
22.52172,4.151636607361569,0.0513388107032829
22.526308,4.119324770880025,0.0510559573490662
22.530900000000003,4.086113499950834,0.0507728908594429
22.535488,4.049426675945195,0.0504783671008973
22.540068,4.010940983044262,0.0501808771352431
22.544664,3.968368813496156,0.0499235836448632
22.549252000000003,3.9215879825867286,0.0497196112926542
