Time,Force,Position
25.011459999999992,1.857408230787888,0.164104903316517
25.01604799999999,1.867190064629607,0.1640372595783035
25.020632,1.8790592782435416,0.1639588166863223
25.02522,1.8928495454669176,0.1637362136877212
25.029812,1.908316496871444,0.163444977630371
25.034407999999992,1.9255823171712656,0.163055937925914
25.03899599999999,1.9495107327470595,0.1622114877528554
25.043592,1.9726618985893511,0.161409144504621
25.048172,1.9965903141651449,0.1606388143500039
25.05276,2.0197414800074363,0.1598743004818267
25.057364,2.042403906993145,0.1592389757522378
25.061956,2.0646997798364173,0.1586683600964051
25.066551999999994,2.0880172718414824,0.1580738272432216
25.071132,2.1170979246748725,0.1571677172093896
25.07572,2.1527189880700885,0.1559168754060752
25.080307999999995,2.1856417481223605,0.1548690319836589
25.08490799999999,2.222162245965224,0.1537085258568672
25.089504,2.2593378088274445,0.1525480840367486
25.094103999999994,2.3002332941944017,0.1512157711688384
25.09868799999999,2.3431720178849456,0.1497776973763339
25.103283999999995,2.384311872680195,0.1484464996638255
25.107872,2.4250410318843785,0.1471517899385385
25.112468,2.463438441888055,0.1459004455495079
25.117056,2.504534155234676,0.1445688824577963
25.12165199999999,2.5422765002189958,0.1433407659878476
25.12623999999999,2.5775649112886643,0.1421876240432673
25.130824,2.609377769281886,0.1411926555383519
25.135404,2.6405355622557525,0.140197088356667
25.14,2.6670298568286057,0.1392975864441512
25.144592,2.6943794444004774,0.1382527816455576
25.149184,2.719886021628427,0.1371650554676502
25.15377999999999,2.750212183788423,0.1357735172545679
25.158359999999995,2.775386108690824,0.1345552916355096
25.16294399999999,2.791810058545038,0.1336235625117305
25.16753599999999,2.802060151979864,0.1328962586245707
25.17212399999999,2.810100680928327,0.1321836807206345
25.17672,2.812456092313984,0.1315845918587777
25.181307999999994,2.812846308641572,0.1309521649476855
25.1859,2.8100053413210047,0.1303783154241514
25.19049599999999,2.804466070657494,0.1298882088778239
25.195091999999995,2.7972501158128336,0.1294318730270869
25.199688,2.7845153695681404,0.1291566172603064
25.20427999999999,2.7731687966276777,0.128775043323905
25.20888399999999,2.757691605591413,0.1284683981197695
25.213476,2.74299166428865,0.1281543821132729
25.21807599999999,2.729557711575972,0.1277517033467828
25.222656,2.716368128291586,0.1273077071806131
25.22725599999999,2.705221783330786,0.1267714424538275
25.23184,2.6943639492469065,0.1263004605862086
25.236444,2.680319072963501,0.1259822667687354
25.241036,2.6678286961470987,0.1256464581638665
25.245632,2.648309169912288,0.1256001769851873
25.250224,2.630466327858627,0.125520602780224
25.254812,2.616343408309703,0.1253167247909344
25.259399999999992,2.6042637270843665,0.1250194339680868
25.263996,2.591817491716593,0.1247787262698445
25.268584,2.5795375825115934,0.1246291947341178
25.273171999999995,2.570611041668894,0.124410124244421
25.27776,2.56516005390264,0.1241050821403907
25.282344,2.560364131155742,0.1238126278586011
25.28693599999999,2.556101088714055,0.1235514697132184
25.291527999999992,2.5580119026917583,0.1231279928925114
25.296119999999995,2.56021122754638,0.1227786456647488
25.300708,2.562699063277921,0.1224974705656406
25.305304,2.566208518171256,0.1221695599883758
25.309888,2.5698842992273647,0.1219356376689531
25.314475999999992,2.57397077587454,0.1217560352200801
25.319072,2.57589182948398,0.1216870737872778
25.32366,2.579856121417009,0.1215298773838434
25.328268,2.5910158889312203,0.121177731155332
25.33284799999999,2.599765863979408,0.1209683029849566
25.33743599999999,2.611091957656393,0.1206965789077392
25.342036,2.624994169962176,0.1203762945831132
25.34662799999999,2.6400843275925263,0.1201080759883856
25.35123199999999,2.65534081138565,0.1199316351294605
25.35582,2.673173413807572,0.1197021345391502
25.360424,2.6930492545530806,0.1193829470150719
25.365012,2.713824529746238,0.1190571868971038
25.369612,2.7343554355111035,0.1187873610914271
25.374199999999995,2.7615489365519417,0.1183318035490182
25.378796,2.795649402297042,0.117659935691696
25.38338799999999,2.821943468890232,0.1172389585720808
25.387984,2.847582470464065,0.116807423978023
25.392572,2.87820738313272,0.1162129562280031
25.397168,2.912552218306112,0.115542368199693
25.401756,2.9491846612313823,0.1147820066778383
25.406348,2.985039854423151,0.1140270467953195
25.410948,3.024859339547948,0.1131701617392043
25.41554399999999,3.063779390225097,0.1123424044335516
25.420132,3.1013893108635333,0.1115334040171747
25.424716,3.142919381986369,0.1105204837718417
25.429308,3.1857154416992897,0.1094496670322073
25.433896,3.223237079440469,0.1084722792634035
25.438488,3.256628099085847,0.1075289558298825
25.44308,3.290874411730244,0.1064867466439992
25.447676,3.319968487117045,0.1055089042689156
25.452263999999992,3.3475080630368423,0.1045380665914346
25.45686399999999,3.372593705041987,0.1036062411107741
25.461452,3.3895844370183013,0.1028150807969921
25.466048,3.3979473786605734,0.1021586500703369
25.470635999999992,3.3964165413787204,0.1016788510636014
25.47522399999999,3.4015041579242093,0.1009517938093321
25.47982,3.4067139591838456,0.1002111555654256
25.484412,3.4020299815193558,0.0996357946844839
25.489016,3.3929710163307703,0.0991241159730485
25.49361199999999,3.377616010008652,0.0987140047836877
25.49819999999999,3.359029820038378,0.0983147063296271
25.502796,3.3328816003444848,0.0980776470097036
25.507388,3.306322685059526,0.0977880512975059
25.511992,3.2722017400509475,0.0976564518811338
25.51657199999999,3.233872133681049,0.0976477811461738
25.52118,3.195664712025297,0.0976115495884017
25.525767999999992,3.159378343978985,0.0975325474182289
25.53036799999999,3.126034648703909,0.0973775235613302
25.534956,3.090892084533538,0.0972376742872253
25.53956399999999,3.06151268119149,0.0969641173012051
25.54416,3.033277081725381,0.0966393766838839
25.548759999999994,3.0040198630974797,0.0963371144918003
25.553352,2.982446858907342,0.0958636258217837
25.55794799999999,2.963083419203566,0.0954053768294074
25.562528,2.9489944014715324,0.0948771510748938
25.567124,2.933517210435268,0.0944213680374291
25.571712,2.9170184002372093,0.093990954499598
25.57630799999999,2.9086145000679817,0.093440337198331
25.5809,2.900987849632256,0.0928902561233582
25.585484,2.89503788337768,0.0923216244409935
25.59006399999999,2.8942401543807006,0.0917040169782822
25.594664,2.898306151764397,0.0909689420585479
25.59925599999999,2.9043373442061635,0.090294590186013
25.603852,2.917686196943258,0.0894987939254099
25.608444,2.9337333530232965,0.0886632837420042
25.613036,2.9495361396750432,0.0878704789569383
25.617632,2.968936664117381,0.0870392268429932
25.622224,2.9880928191314275,0.0862445110387895
25.626804,3.0086812888983334,0.0854792283511342
25.631392,3.0277594006468624,0.0848152293153551
25.635975999999992,3.048025457719959,0.0842138223818498
25.64056399999999,3.068824395098266,0.0836457018204466
25.64515199999999,3.0901562127817845,0.0831297606626111
25.64974399999999,3.1121430954846594,0.0826352786833253
25.654356,3.1337634240450973,0.0821906526800404
25.658948,3.1541177640154503,0.0818035222280246
25.66355199999999,3.178069841776395,0.081382033780628
25.668147999999995,3.2047202228802827,0.0809502066857434
25.67274799999999,3.2301046153940858,0.0805701741381809
25.677328,3.2637061026508647,0.0801061115536095
25.681924,3.2962859707458505,0.0796732259967493
25.686503999999992,3.328499284698399,0.0792905766651756
25.69110399999999,3.3600575336315908,0.0788946398627396
25.695688,3.388795294507694,0.0785470450698366
25.700275999999995,3.4177774248120887,0.0781808140973215
25.704864,3.4449606862211875,0.0778331081049836
25.70946,3.4693234595731965,0.0775299259434641
25.714048,3.494463482658709,0.077234690283715
25.71864399999999,3.519481321030075,0.0769562538860941
25.72323199999999,3.544088463810376,0.0766362784580824
25.72782399999999,3.566486042104316,0.0762895492727052
25.732416,3.588350740093045,0.0759106296122965
25.737003999999992,3.604818831395887,0.0755767699272631
25.74159199999999,3.616012500726988,0.0752682045497323
25.746183999999992,3.626795474467023,0.0749167080054433
25.75078,3.637045567901848,0.0745325599164548
25.755368,3.643942292974372,0.0741548699764838
25.759968,3.644542976913362,0.0738289369165303
25.764555999999992,3.646654018870728,0.0734318271404676
25.769148,3.6387490971898218,0.073121525761523
25.773744,3.6276129918607607,0.0727964969276682
25.778332,3.6160661909406353,0.07242641606451
25.782936,3.6020654561058567,0.0720472005803462
25.787524,3.586265852375784,0.0716778098671652
25.792112,3.568423010322123,0.0713437974811729
25.796708,3.5469824304778705,0.071029291115462
25.801296,3.521166863109525,0.0707275262007379
25.805892,3.4948184154359683,0.0703903196044487
25.810483999999995,3.465893849133614,0.0700563460970057
25.81508,3.4359476636694657,0.0697358488855393
25.819659999999992,3.4051020437576702,0.0694136959655971
25.82425999999999,3.377076911902964,0.0690574626569985
25.828848,3.351994452819491,0.0686538926089935
25.833452,3.332919523992635,0.0681463686178169
25.83804399999999,3.3107797376803982,0.0676892142393284
25.84264,3.287740516920514,0.0672316512312951
25.84722399999999,3.264579111446483,0.0667818716147463
25.85182,3.241417705972453,0.0663254662607096
25.856424,3.219810799965427,0.0658835696940948
25.861011999999995,3.2001249475678426,0.0654111336224505
25.8656,3.1828930290849105,0.0649462778395297
25.870196,3.164395122011893,0.0645228245061099
25.874788,3.147451714405879,0.0641134922298621
25.879372,3.1342282293046035,0.0636718127480704
25.883959999999995,3.121249113631619,0.0631992549753972
25.888552,3.1185303310251977,0.0626417152299448
25.893144,3.1240286431617537,0.0620346417866024
25.897736,3.1304263897459563,0.0614283679395147
25.902332,3.1397668091013937,0.0607847798957628
25.906912,3.152704966247424,0.060133736503725
25.91150799999999,3.1709175453651945,0.0594840239390472
25.91609599999999,3.187086886159378,0.058874389097544
25.920684,3.202889672811125,0.0583065052240075
25.92528,3.220002589501584,0.057796218639824
25.929872,3.245699155077457,0.0572199821749995
25.934459999999994,3.2758928928915707,0.0566378537867219
25.93904399999999,3.305842261277391,0.0560804485810941
25.94363599999999,3.340166617187306,0.0555297965986385
25.948236,3.3735915386495727,0.0549921664775119
25.95282799999999,3.408570959578844,0.0544752269551182
25.95743199999999,3.4455936188317016,0.0539381846552154
25.96201999999999,3.48429296226571,0.0534113383286348
25.96662,3.5237695554332205,0.0528982985939645
25.971208,3.5605478452577874,0.0523985076203505
25.975808,3.5969595809399166,0.051937731732188
25.980388,3.6265865366319296,0.0515484684932736
25.984992,3.6541702540003542,0.0511967273782304
25.989575999999992,3.680487982778695,0.0508859635739094
25.994172,3.7036186693575086,0.0506270383328217
25.99875199999999,3.720208945374496,0.0503993624178997
26.00334399999999,3.730014441401367,0.0502258990254831
26.007936,3.7399421221423834,0.0500417586956965
