Time,Force,Position
23.206807999999995,2.5537124695847564,0.1338255630317565
23.211404,2.549571611857216,0.1335546736823476
23.215992,2.5438321132140422,0.1331976278379493
23.220592,2.5391142337326618,0.132800994827143
23.225179999999995,2.533907615394699,0.132481591815225
23.229768000000007,2.534141745191252,0.1321082214189834
23.234356000000005,2.5399388078364646,0.1316686566180903
23.238944000000004,2.5550187258350765,0.1310415817245619
23.243552000000008,2.574884326948847,0.1303644095308967
23.248140000000006,2.5926286464735124,0.1299001232301228
23.252752,2.614914279685045,0.129403790779037
23.257344000000003,2.6436622801928875,0.1288211216186914
23.261948000000004,2.6759299752258032,0.1282533842614142
23.266536,2.713227722802169,0.1275991577415997
23.271128000000004,2.75375665402669,0.1269177161909897
23.275735999999995,2.7976389536135104,0.1261774811220478
23.280328,2.848594544067368,0.1252618799728711
23.284932,2.900205199540581,0.1243721127095751
23.289528000000004,2.955413592804388,0.1233487945557532
23.294124,3.0083343783163143,0.1224812994759392
23.298711999999995,3.0601113599523027,0.1216822478643733
23.303315999999995,3.1033046927028765,0.121186367811177
23.307896,3.143677537396361,0.1207905667744326
23.376744,3.2957709328128235,0.1207828118785842
23.381336000000005,3.2874214137239623,0.1207037371065335
23.385928000000007,3.275840710986948,0.1206545615630633
23.390519999999995,3.263604943230576,0.1205943551128932
23.395108000000008,3.2577432598732563,0.1203012919103767
23.399692,3.253269749820168,0.1199300805331278
23.404284000000004,3.2510838475189576,0.1194553154459848
23.40888,3.251185552969626,0.1188850876795308
23.413464000000005,3.257172603962764,0.1181442013941809
23.418071999999995,3.2591953630228736,0.1175158154479394
23.422664,3.264282979568364,0.116779512482692
23.427264000000008,3.269248411399708,0.1160545591361672
23.431848,3.27204842019332,0.1154156501481425
23.436448,3.277668917044021,0.1147023378760475
23.441036,3.280102371695196,0.1141072739540942
23.445628,3.2806147727369286,0.1135730867528347
23.450216,3.28088280435037,0.1130698465862324
23.454816000000008,3.282949704859108,0.112531165404599
23.459404000000006,3.2855494856730565,0.1120193662871161
23.463995999999995,3.2838184204115395,0.1116695293926112
23.468588,3.286340157959971,0.1112587124255113
23.473184000000003,3.287351537490025,0.1109462617452463
23.477772,3.2917162853823805,0.1105910558018602
23.482364000000004,3.2977577174558856,0.1102157722611048
23.486956000000006,3.2993461187397792,0.1100198203281745
23.491544000000005,3.2967258586623527,0.1099688875962918
23.514488,3.301389357063365,0.1099543512428058
23.519076,3.3068301051978803,0.1099413780594621
23.523668,3.3159907758371334,0.1098490023562692
23.528251999999995,3.3262952503523247,0.1097154158513419
23.532827999999995,3.3414634512481927,0.1094604055509329
23.537424,3.353444609944534,0.1093098997993349
23.542016000000004,3.3654257686408755,0.1091593940477368
23.546604,3.3742198851376903,0.1091140796325309
23.55120000000001,3.3821145671868584,0.1090843150253877
23.555792,3.396916213940289,0.1088708671263078
23.560384,3.4127394798555133,0.1086344277446994
23.564976,3.4266416921612963,0.1084427733175442
23.569576,3.44193207777131,0.1081838015156001
23.57416000000001,3.4574668328096148,0.1079007817240764
23.578760000000003,3.4760664453333,0.1075311640607153
23.583348,3.50042921868531,0.107027425060231
23.587940000000003,3.5242591117321087,0.1065095253038878
23.592536,3.542570213378874,0.1060857207727144
23.597132,3.5601040652921383,0.1056602429472644
23.601724000000004,3.5749396138624583,0.1052849946425179
23.606316000000007,3.5912855204511547,0.1048262214386225
23.610907999999995,3.603789319820968,0.1044546847255024
23.615504,3.612451011971899,0.1041723233490633
23.620088,3.6179256619233033,0.1039902533548801
23.624684,3.620457639103473,0.1038804145297748
23.629276000000004,3.626054473769024,0.103686329143419
23.633864000000003,3.63177349314872,0.1034788900633351
23.638452,3.641701173889736,0.1031467137846012
23.643048000000007,3.65444934268784,0.1027602273395058
23.64764,3.660168362067537,0.1025548465763773
23.652232,3.6613902092089936,0.1024200973036714
23.656828000000004,3.668741771321211,0.1021267624079003
23.661416000000003,3.6740500951098416,0.1018895843205773
23.666,3.6774373652890313,0.1016924920861183
23.670592,3.678126332125277,0.1015351204196323
23.67518,3.6771386147803726,0.1013917711849298
23.67979200000001,3.679093570206704,0.1011895499420571
23.684372,3.689632174518448,0.1008287896609946
23.68898,3.7031134516014266,0.1004092650138858
23.693572000000003,3.717616347846199,0.0999673299873206
23.69816,3.7328964938244735,0.0995325772123492
23.702756000000008,3.751363682002274,0.0990129437140516
23.70734400000001,3.772362847360245,0.098398547319946
23.71194,3.796549054917742,0.0977039387483774
23.716536000000005,3.822900685512972,0.096957312939303
23.721140000000005,3.849618870250638,0.0961841362511096
23.725719999999995,3.877236489435953,0.0954047209256025
23.730312,3.9020336205641777,0.0946776001541973
23.734904,3.9251540675112535,0.0939669519056663
23.739508,3.953626979695588,0.0931176817724087
23.744096,3.986963618260598,0.0921884250789903
23.748692000000005,4.009673369616609,0.0914469434377635
23.753280000000004,4.03430417458206,0.0906807103363027
23.75787200000001,4.059834413995159,0.089904031296792
23.762460000000004,4.084465218960612,0.0891322323399638
23.767056,4.1094625780685,0.0883362720602088
23.771640000000005,4.127020092166914,0.0876505947992467
23.776236,4.139958249312943,0.0870317080942582
23.780824,4.149420853382527,0.0864398726211302
23.785416,4.160393815470486,0.085789721600216
23.790008,4.170956081967381,0.0851105146405864
23.794604000000007,4.180374544588336,0.0844657691976854
23.799195999999995,4.187627584171559,0.0838739030497112
23.803780000000003,4.19295957014534,0.0833134661050177
23.80837200000001,4.193672199166737,0.0828027679178553
23.812960000000004,4.191442155416898,0.082336791251127
23.817556,4.187657612200056,0.0818637656499942
23.822136,4.187715176202095,0.0813420768560862
23.826724,4.188017109632427,0.080799382618329
23.83134,4.1856207397198135,0.080279623790279
23.835928,4.178360643426526,0.0798270831346537
23.840524,4.177885327123355,0.0792791809987895
23.845108,4.169315100791354,0.0787869659139855
23.849695999999994,4.161111428601789,0.0782612937588923
23.854288,4.155073179449956,0.0776870562260778
23.858875999999995,4.146747322546246,0.0771696576922819
23.863472,4.139320900090184,0.0766405102173868
23.86806,4.1327939120817705,0.0761037751834018
23.87266,4.129986846578093,0.0755310945607016
23.877247999999994,4.1211722508178,0.0750483045081346
23.881851999999995,4.106350124800892,0.0746530568562033
23.886436000000003,4.09189455292642,0.0742230664212751
23.891036,4.077316796337803,0.0738019206568376
23.895620000000008,4.062861224463331,0.0733683099219515
23.900208000000006,4.050082336770011,0.0729305449944869
23.904804,4.038202883524336,0.0724837662336383
23.909400000000005,4.027222864726311,0.0720293874258606
23.913988000000003,4.012278553995257,0.0716309062845884
23.918584,3.9940250163505313,0.0713016409526666
23.923172000000008,3.9774481628869554,0.0709702668881847
23.927760000000006,3.9629145477469674,0.0706037301240451
23.932348000000005,3.9483809326069776,0.0702367230095838
23.936944,3.9457843347147024,0.0697825058460985
23.941531999999995,3.941921748232342,0.0693655393711713
23.946124,3.9369153578740415,0.0689744862693173
23.950716,3.928966294744508,0.0686157256974901
23.955304,3.918973993291387,0.0682845422903269
23.959896,3.910003311000059,0.0679372123570875
23.964484,3.8959245328997634,0.0676677997510444
23.969072,3.888263980647148,0.067354320551084
23.973668000000004,3.883301731737477,0.0670224465571896
23.978256,3.877972928685369,0.0667246566217864
23.982844,3.875342428976204,0.0664140730849569
23.987436,3.8715681253911,0.0661300016472249
23.992028000000005,3.869592690701292,0.0658373073466572
23.996632000000005,3.8701933746402815,0.0655441110827639
24.001224000000008,3.871571308312773,0.0652593596578238
24.005816,3.873726491718767,0.0649813111835445
24.010396,3.882666455114878,0.0646313597787728
24.014996,3.889318810759112,0.0643349598952505
24.019583999999995,3.8956046122609074,0.0640730468330865
24.024184000000005,3.902423294067914,0.0638435019421607
24.028776000000008,3.905277683941893,0.0636662168410922
24.033376000000004,3.9110747465871074,0.0634582513425738
24.037972,3.919447927861119,0.0632524791616111
24.042559999999995,3.9365269427346887,0.0629657599638548
24.04714,3.962189606493673,0.0626110719762537
24.051732,3.988507335272013,0.0622806402389807
24.05632,4.018789355983381,0.0619050332569802
24.06091600000001,4.048294126961248,0.0615313139075271
24.065504000000004,4.083684243481584,0.0611046067727528
24.070092,4.120218163877859,0.0606595190325399
24.074684000000005,4.157118638416572,0.0601932718310379
24.079276000000007,4.195940166564726,0.0597148702542855
24.083867999999995,4.233207195245875,0.0592249870617668
24.08846,4.269696974193523,0.0587340071445897
24.093052,4.303244080369935,0.0582709451586395
24.09763600000001,4.339200979012372,0.0577599418001759
24.102228,4.368739651807128,0.057279087902949
24.106808,4.400688117067908,0.056746664382429
24.111396,4.431981517309332,0.0561965514104036
24.11599200000001,4.460043733902601,0.0556262722460327
24.120580000000004,4.483608778257629,0.0550651316688527
24.125168,4.504231149841424,0.0545329654763597
24.129763999999994,4.521377968348774,0.0539989698359102
24.134352000000007,4.529163888237208,0.0535115810439821
24.138943999999995,4.529387778402022,0.0530673494785381
24.143536,4.524459431309239,0.0526090461095604
24.148128,4.517732215321162,0.052152926151047
24.152712000000008,4.506141272952407,0.0517301900718851
24.157308,4.491607657812419,0.0513327080319071
24.161896,4.474131369901196,0.0509552101513034
24.166495999999995,4.452690790056943,0.0506078654052126
24.171080000000003,4.429451341317395,0.0502601241984501
24.175676,4.406089707863701,0.0499185889972508
24.180268,4.3819508246765055,0.0495663736122036
24.184864000000005,4.359077930079394,0.0491814525026212
24.18946,4.333140177996903,0.0488238026927175
24.194060000000007,4.310922348419148,0.0484525094036979
24.198652,4.285517476641868,0.0481173056611281
24.203240000000008,4.25921317041694,0.0477780227415649
24.207828000000006,4.235240613392517,0.0474660273969563
24.212416000000005,4.212289675529888,0.0471398319911412
24.217004000000003,4.188317118505466,0.0468206620466982
24.221596000000005,4.166920680109843,0.0465101331638481
24.226188000000008,4.147855990914725,0.0462259457407509
24.23077600000001,4.128424747577171,0.0459686166937774
24.235376,4.11222468788777,0.0457395048171493
24.239964,4.096801877931872,0.0455194113448698
24.244556000000003,4.080357448814182,0.0453060705500976
24.249148000000005,4.059948727763461,0.0451209072980844
24.253736000000004,4.04211612534154,0.0449464668239478
24.258332,4.023261903757824,0.0447795892277839
