Time,Force,Position
22.653892,2.2766727055007734,0.1733875096923077
22.658476,2.402502753219263,0.172276849846949
22.663056,2.518472923830516,0.1717641932805448
22.667644,2.635909311011516,0.1710070530377921
22.672239999999995,2.747083558875872,0.1704854816706636
22.676824,2.855515361948655,0.1701232831881856
22.681412,2.9635364694303727,0.1697306401375869
22.686008,3.0712249245865446,0.1692411041750733
22.690596,3.176415304379435,0.1687930994156568
22.6952,3.281351075112295,0.1680377445875279
22.699784,3.382434498994533,0.1671610904602999
22.70438,3.480198456331361,0.1661695583863117
22.70896,3.573865697389276,0.1650960631412108
22.71356,3.662048048864048,0.1640675297929953
22.718143999999995,3.739226719355643,0.1633409031484398
22.722736,3.812675227710763,0.1625060363497001
22.727324,3.871644502006261,0.1620371386518891
22.731916,3.9330133291360423,0.1612030010401814
22.736508,3.988364386377471,0.1603896079838409
22.741104,4.035365924530039,0.1596275754922869
22.7457,4.069442728089989,0.1591461530426026
22.750296,4.111403974067367,0.1583088548891355
22.754884,4.151644394414969,0.1574366405616561
22.759471999999995,4.184112317427547,0.1566955279701062
22.764064,4.214492860667911,0.1559714753472032
22.768648,4.23607928741146,0.1553921819887239
22.77324,4.254512573772371,0.1547924792422719
22.77782,4.267627296712913,0.1542628586421413
22.782412,4.275912195089668,0.1537424096377707
22.787004,4.282231898408354,0.1532182327009955
22.791599999999995,4.28965126415435,0.1525871466901528
22.79618,4.295105434842277,0.1519442802123755
22.800772,4.299493844919783,0.1512693487476878
22.805368,4.301261994919861,0.1505758826840012
22.80996,4.305562122100111,0.1497637772016876
22.814564,4.307652684793999,0.1489686329773633
22.819151999999995,4.309454736610968,0.1481221389502918
22.82374,4.301118640075519,0.1475391840070856
22.828336,4.287874675710765,0.1470301212640471
22.832927999999995,4.275896699936097,0.146458900406606
22.837524,4.267105766360954,0.1457707446302526
22.842112,4.2499755533286905,0.1452965522883788
22.846712,4.230147036953483,0.1448826800683501
22.851292,4.213505562777801,0.1443499527461964
22.855888,4.195065219706824,0.1438561807723576
22.860476,4.182265852750025,0.1432068646194128
22.865068,4.168567051345578,0.1425763663763062
22.869652,4.154257326370403,0.1420080808473391
22.874248,4.140768992577359,0.1414992741459884
22.878836,4.126547550499439,0.1410664507639452
22.883427999999995,4.1085281426512665,0.1408083219855684
22.88802,4.094394983470603,0.1405110363003641
22.892612,4.084148072957452,0.1401769251544726
22.897192,4.081507333616549,0.1397194149492627
22.901776,4.078910735724274,0.139332370252562
22.906364,4.081222005661303,0.1388868373072531
22.91096,4.090484381751224,0.1383231937755998
22.915548,4.107597298441682,0.137619097714124
22.920136,4.132971451323747,0.1368067361579273
22.924732,4.159166995387942,0.1360624772632691
22.929308,4.1870833650819135,0.135375650378545
22.933896,4.225426394005224,0.1345283825728145
22.938492,4.273174462996077,0.1335499211985913
22.943076,4.32035574986483,0.1327097005762787
22.947668,4.374243773458184,0.1317979972075557
22.952264,4.4324287413101136,0.1309225210854281
22.95686,4.496543196153142,0.1299921817245626
22.961456,4.564133204072615,0.1290150848576634
22.966048,4.635320949782679,0.1279870646247887
22.970644,4.70884044469325,0.1269521492526105
22.975232,4.783914439070826,0.1258995432305038
22.979828,4.859765683181903,0.1248716268212638
22.984408,4.933818058397686,0.1239003399820397
22.989011999999995,5.002884522518646,0.1230708544979765
22.9936,5.073872040249048,0.1222179446089929
22.9982,5.14089526604642,0.1214728972064941
23.002796,5.202277515729616,0.1208444959043176
23.007388,5.262882515679308,0.1202399844444538
23.011972,5.3215223205709306,0.1196355911178946
23.016568,5.379751429871489,0.1190094575142201
23.021156,5.435893159399833,0.1183836833018152
23.025752,5.484306533041782,0.1178599611541333
23.030339999999995,5.526912604406779,0.1173974087369942
23.034928,5.570862707627378,0.1168392626411653
23.039516,5.606307205228081,0.1163651140443646
23.044104,5.633979205493762,0.1159195505614004
23.048692,5.656865522644283,0.115504992714786
23.053284,5.678808263898531,0.1150557712780055
23.057868,5.696209691465909,0.1146120813375075
23.062456,5.708536925041209,0.1141533339260286
23.067052,5.719509887129171,0.1136283883149939
23.071632,5.725164285796762,0.1131075514883983
23.07622,5.7270546205109865,0.1125850587889476
23.080816,5.727835053166162,0.1119780392613205
23.085404,5.720965173200461,0.1113736415152541
23.089991999999995,5.709143283956828,0.1107378063676525
23.094588,5.695722753797562,0.110047217732065
23.099176,5.673385922427334,0.1093906647528922
23.103772,5.6452417887801545,0.1087632980366015
23.108352,5.613455775893756,0.1081177800653234
23.112952,5.577006264606345,0.1074712598931579
23.11754,5.536548319937276,0.1068301401291149
23.12214,5.491304692153048,0.1061944063312627
23.12672,5.4351456662829,0.105679287172521
23.131316,5.381396432878778,0.1050883177880683
23.135908,5.326747765027007,0.1044973957674256
23.140504,5.264004187146405,0.1039896973507951
23.145092,5.194964568132268,0.1035421171643459
23.149684,5.124248264936982,0.1030926320719271
23.154276,5.05929512257002,0.1025344875984007
23.158868,4.996140849098353,0.1019398891863538
23.16346,4.9327422061983945,0.101352688026891
23.168052,4.870242997746084,0.1007435759256497
23.172644,4.8080323001706935,0.1001581883701712
23.177232,4.749707851262814,0.0995603249953126
23.18182,4.69400366243236,0.0989946782869733
23.186408,4.6451283950406514,0.0983737212746479
23.190999999999995,4.604269994412257,0.097732259564208
23.195588,4.570773395527819,0.0970633524220647
23.200188,4.541163045310892,0.0963926228246676
23.204775999999995,4.515438943761475,0.0957196860932406
23.209372,4.495155590346574,0.0950490994225306
23.213956,4.480312985066187,0.0943810197978186
23.21854,4.478595342358083,0.0936059607434345
23.223144,4.477699090832108,0.0928926901906014
23.227736,4.481344152993,0.0921964017616137
23.232324,4.499013612173821,0.0913914053845198
23.23692,4.52290106922266,0.0905929191380097
23.241508,4.5509632858159295,0.0898433016939598
23.246103999999995,4.578458720287098,0.0892227929216789
23.250692,4.606531176512106,0.08869400773353
23.255284,4.640044380871629,0.0881820459440144
23.259872,4.677854529489728,0.0877171810116598
23.264472,4.717507688451751,0.0873022899170489
23.26906,4.763623214710083,0.0868968644828164
23.27366,4.8148909782260105,0.0864679464964437
23.27826,4.865425633457066,0.0861137839742709
23.282848,4.919558026478709,0.0857442272337583
23.287428,4.973323865357917,0.0854149464573612
23.292016,5.033141375942368,0.0850732788257204
23.296616,5.096722950480184,0.0847601269157897
23.301207999999995,5.165823316418034,0.084411548677965
23.3058,5.241097538775272,0.0840422704772938
23.310392,5.317026826151867,0.0837028625561646
23.314972,5.399374339376144,0.0833250032040891
23.319552,5.485808329247594,0.0829049849331822
23.324152,5.568278027186016,0.0825482712739356
23.328748,5.653934767323964,0.082152131882219
23.33334,5.741101865480288,0.0817157998412861
23.33792,5.825692845007814,0.0812877853651777
23.342516,5.910650378677777,0.0808401038104446
23.347104,5.99646320534676,0.0803520957720423
23.351696,6.080310836957673,0.0798394049103311
23.35628,6.166690445748756,0.0792813951986696
23.360868,6.248162186710534,0.078736006184488
23.36546,6.329467601509539,0.0781643521230792
23.370052,6.407786202088681,0.0775824649327618
23.374644,6.480175315676726,0.0770213672374264
23.379248,6.551620853368494,0.0764302048111524
23.38384,6.612517547116779,0.0758831202024044
23.388436,6.66821786215884,0.0753056535699014
23.393012,6.71361370268571,0.0747534608414838
23.397611999999995,6.748827253411534,0.0742186863256727
23.402192,6.7748801334981055,0.0736863020841782
23.406792,6.791650158231278,0.0731636397953524
23.411387999999995,6.7987707734686165,0.0726680057292193
23.415988,6.801472259733233,0.0721385816106439
23.420584,6.795668140377954,0.0716154320123521
23.425176,6.787776641250458,0.0710701266162911
23.429764,6.7761210781696,0.0704960114761873
23.43436,6.757758778364139,0.0699161842859066
23.43896,6.72848108047276,0.0693758338098601
23.443548,6.697116002809165,0.0688069818514097
23.448128,6.657778199830885,0.0682539120168618
23.452715999999995,6.613288159595009,0.0676986795632736
23.457304,6.565444750996833,0.0671370006634551
23.461904,6.5151474084840055,0.0665634486182513
23.466491999999995,6.462929012361736,0.065996311618668
23.471088,6.400450283172904,0.0654683612505098
23.475684,6.341036411469451,0.0649046821690265
23.480272,6.285342462270736,0.0643181911696468
23.484868,6.234145685310261,0.0637127679790017
23.489448,6.187568265302169,0.0630831283345378
23.494043999999995,6.146143082551675,0.0624484792046889
23.498628,6.1071718337158325,0.0618146989317113
23.503212,6.072331202975791,0.0611862428345196
23.5078,6.038678517560318,0.060583489628784
23.512395999999995,6.014142361335469,0.0599532898246418
23.51698,5.986419162911094,0.0593517915071647
23.521584,5.966913059229694,0.0587266887187356
23.526176,5.955135311434689,0.0581057905823129
23.530772,5.954150777011459,0.0574639120411254
23.535352,5.952310949589207,0.0568682631707098
23.539952,5.956400609158056,0.0562823696545196
23.54454,5.965398136556205,0.0557142992715095
23.54914,5.975461424564779,0.0551875793734596
23.553728,5.986590473183773,0.0546988684324669
23.558328,6.000417825145713,0.0542059156360775
