Time,Force,Position
24.354488000000003,2.3753502642941884,0.1511366020804285
24.35912400000001,2.5199903921477653,0.1511149998654087
24.363760000000013,2.666840084487704,0.1510986382472507
24.368392,2.818964198799382,0.1508845935487066
24.373031999999995,2.974686050901653,0.1505650453713721
24.37766400000001,3.1256663613373927,0.150543792426611
24.382304000000005,3.2766466717731326,0.1505098326051992
24.386956,3.428149622882345,0.1502011942356689
24.391588000000013,3.5767335634054724,0.1494088074990908
24.396232,3.7141033553340224,0.1486803561211909
24.40087600000001,3.843978921172731,0.1478606080757651
24.405508,3.964028511721092,0.1469959222777008
24.41015200000001,4.076872387056531,0.1460527354431905
24.41479200000001,4.178179701103583,0.1453001086868114
24.419423999999992,4.268561377432977,0.1446666120406127
24.424064000000016,4.351571012386675,0.1439377862042754
24.428696,4.43105071318356,0.1430017678609196
24.43332799999999,4.501892384014665,0.1420430077506351
24.437972,4.562707851575761,0.141123157478523
24.44260399999999,4.611331692829111,0.1403206849903408
24.447236000000004,4.647763907774719,0.139624445849155
24.45187999999999,4.670816551088016,0.1390082227040658
24.456512000000004,4.683965175845447,0.1383979405644275
24.46114399999999,4.68618816288522,0.1378272029098268
24.465776000000005,4.680061630836131,0.1372481836029833
24.470404,4.667795144184542,0.1366462699279675
24.475044,4.6528642560069,0.1359666159273377
24.479668000000004,4.627628893314066,0.1354520210393778
24.48432,4.59855142340235,0.1350249961291713
24.48895999999999,4.568574519042986,0.1346118348356508
24.493596,4.537209441379392,0.1342586779497442
24.49824000000001,4.507398863182801,0.1338866105094553
24.502868000000007,4.481186022776802,0.1334410338340858
24.5075,4.456527681837809,0.1329823872036932
24.512139999999988,4.4306033523087285,0.1325729384892774
24.51678799999999,4.403168664761273,0.1322340587037356
24.521416000000016,4.372957630605355,0.1320155101549258
24.526048000000003,4.3429129226122125,0.1318453556249159
24.530684000000008,4.314422714086072,0.1316620462971735
24.535320000000013,4.289163689208088,0.1314452896060295
24.539952,4.268401836568344,0.131140719800368
24.54458400000001,4.252958547348968,0.1308095162352813
24.54921200000001,4.242956006264108,0.130440436708197
24.553856,4.235573725256673,0.130097345282481
24.558484,4.226070162660134,0.1298898930241963
24.563132,4.222618271768839,0.1295873178638349
24.56776400000001,4.216101523392164,0.1293711871110898
24.57241200000001,4.217190946187736,0.1290515353665903
24.57704799999999,4.224987105707908,0.1286489630317683
24.58168800000001,4.234870645000296,0.1282535968110789
24.58632399999999,4.24708593349319,0.1278431092859323
24.59096400000001,4.260366982596505,0.1274753246815822
24.59559999999999,4.274835977024389,0.1271403479363534
24.600228000000016,4.290737286205131,0.1268078205230017
24.60486800000001,4.308848159872234,0.1264724446778895
24.60950400000001,4.328924228597406,0.1261576535305395
24.614136,4.349288808199498,0.1258836731803346
24.61876000000001,4.373661821183245,0.1255796429204215
24.623400000000004,4.401021648386857,0.1252736331487597
24.62803199999999,4.431857028666915,0.1249231463227025
24.632667999999995,4.463880354271539,0.124607079625957
24.637304,4.495004245428516,0.1243098316637136
24.641952000000003,4.523063279100111,0.1240948917183396
24.64658,4.548956889733973,0.1239410609487827
24.651219999999995,4.578936977015012,0.1236784239454022
24.655864000000008,4.605974391524814,0.123491419022821
24.660508,4.638408412720504,0.1232198177909522
24.66515200000001,4.671086803344485,0.122938633121899
24.669792,4.698368587282578,0.1227491228048518
24.67442800000001,4.729492478439554,0.122486643671873
24.679068,4.760860739024822,0.1222055413702331
24.68371200000001,4.792473369038383,0.1219089107545108
24.68835200000001,4.823186564604294,0.1216314923073834
24.692984,4.857086802369731,0.1212793023592818
24.69762399999999,4.894174082334695,0.1208543319398811
24.702264000000014,4.936247273394481,0.1203347036241538
24.70689200000001,4.980485887492,0.119759873196721
24.711535999999995,5.023170002122513,0.119201030270428
24.716163999999992,5.0635223675525225,0.1186549398189545
24.720811999999995,5.103219667963173,0.1181166034595943
24.72544400000001,5.1405852191733175,0.1175897894525889
24.730087999999995,5.178195139811754,0.1170470713078218
24.734724,5.218337037630359,0.1164260044573705
24.73935600000001,5.2649752045621625,0.1156563846703612
24.74399600000001,5.309692317884526,0.1149255212498632
24.748639999999995,5.355919789225266,0.1141450819694269
24.75327200000001,5.396217773574906,0.1134255928613172
24.757900000000006,5.433284574276392,0.1127347939783545
24.76254,5.47059574440617,0.1120230340486596
24.767164000000008,5.50557516533544,0.111329622971016
24.771800000000013,5.540798955693002,0.1106245114389637
24.77642800000001,5.572669377688263,0.1099463130228579
24.78106,5.605395092682546,0.1092148884416844
24.78569999999999,5.635666873762176,0.1085088465879576
24.790344000000005,5.659764798422417,0.107868141754079
24.794972,5.674091128872678,0.1073291048544121
24.799620000000004,5.688373317874309,0.1067438440798332
24.80425199999999,5.698647073494285,0.1061711538429574
24.808896000000004,5.708387948809048,0.1055818975773983
24.81352799999999,5.711832782990278,0.105058387779565
24.81816800000001,5.71576635602809,0.1045008763488534
24.82280800000001,5.717490364579542,0.1039361589533642
24.82744400000001,5.714961570321044,0.1033997650655219
24.83208400000001,5.706913984662514,0.1029289584292449
24.83672000000001,5.697678453679418,0.1024311769127356
24.84136000000001,5.683945750458082,0.1019759695009182
24.845996000000014,5.6700908625226,0.1015267996389956
24.85064,5.653171117101737,0.1011278354277001
24.855276000000003,5.63919404445211,0.1006850306219152
24.85991999999999,5.621497049297746,0.1002832760817188
24.864556,5.60326717383817,0.0998627404752907
24.869195999999988,5.586713982559745,0.0994323689339009
24.873828000000003,5.562110022701117,0.0991272935259337
24.878464000000008,5.536484443680696,0.0988370369737828
24.883092000000005,5.514456602450865,0.0985117314067729
24.887740000000008,5.4989691717828615,0.0981094569836643
24.89236400000001,5.485813490315365,0.0977096026244935
24.897008,5.47793223081961,0.097270708529468
24.901644000000005,5.474548143562095,0.0967953620067926
24.90628000000001,5.477704466866403,0.0962498505775612
24.910912,5.478573182418836,0.0957523423843911
24.915548,5.484471950514717,0.095238243527264
24.920180000000016,5.495400771154048,0.0947069562118914
24.92482000000001,5.5089057104221775,0.0941653987865932
24.929464,5.526419083071964,0.0936246030149163
24.9341,5.54728582408405,0.0930723587806931
24.93874400000001,5.569051999543784,0.0925113506966869
24.94338400000001,5.596459151117696,0.0918933060606767
24.948016,5.6217008796538765,0.0913192584889099
24.95266000000001,5.651972660733506,0.090730323203208
24.95730800000001,5.682410767975909,0.0901888342674624
24.96194399999999,5.715669363275403,0.0896255796981033
24.96659600000001,5.758533226622102,0.0889535962349719
24.971228,5.800253286092863,0.0883062623186822
24.97586799999999,5.844671648906567,0.0876512309331996
24.98050800000001,5.890111630882065,0.0869961141161146
24.985152,5.93056570176274,0.0864111912969687
24.98978,5.968443654014618,0.0858448197677298
24.99441200000001,6.002479499047613,0.0853259524933325
24.999048000000016,6.032673236861727,0.084850837655178
25.00368800000001,6.068507950790017,0.084330664783918
25.008332,6.102010915517801,0.0838131611329919
25.012968,6.133959380778581,0.0832983739308651
25.01760400000001,6.163331727410562,0.0827960439996319
25.022244,6.192293378451479,0.08227641993314
25.026876000000016,6.22227664865419,0.0817496578899663
25.031511999999992,6.255324776342281,0.0811904245942735
25.036159999999995,6.287717839011016,0.0806304510591597
25.040787999999992,6.324197378326923,0.0800301981454692
25.045424,6.35961115703241,0.0794032253369618
25.050052,6.391793752089743,0.0787716615404748
25.054696000000007,6.417558121299395,0.0781792796274919
25.059324000000004,6.4397247527184565,0.0776110368249402
25.06395599999999,6.46712166466063,0.0769854173048305
25.068600000000004,6.488222535469269,0.0763915743797354
25.07323600000001,6.503560245449584,0.075844826327223
25.077876000000003,6.5193866942864815,0.0752693037940203
25.082519999999988,6.534435893389877,0.0746922202779921
25.087152000000003,6.546131724130972,0.0741142836689964
25.091788000000008,6.556150870690916,0.0735344953789513
25.096428000000003,6.560118345545618,0.0729689801716109
25.101056,6.5608987782007935,0.0724425073189545
25.105692000000005,6.56077977640832,0.0719211550211994
25.110344,6.560416405187556,0.0714129370734562
25.114976000000013,6.5592757842332885,0.0709042326057113
25.11961199999999,6.553515806326637,0.0704185424109343
25.124259999999992,6.547633643705842,0.0699425770777976
25.128892000000008,6.537787189152016,0.0694996374714767
25.13354000000001,6.5224219431981565,0.0690821721881902
25.13818000000001,6.504891274206567,0.0686900654693738
25.142811999999992,6.4922243315956525,0.0682622836999084
25.147456000000005,6.485320549813062,0.0677963366120585
25.152096,6.478538952744619,0.0673237722170957
25.15672800000001,6.464728206257766,0.0669102493277174
25.16136800000001,6.452716328666208,0.0664892245888014
25.16600400000001,6.442625504684091,0.0660540378317287
25.17063200000001,6.432534680701974,0.065617535239591
25.17526799999999,6.4248977906345095,0.0651878331246962
25.179904,6.421635888091138,0.0647516178679484
25.18454,6.424792211395448,0.0642938390997275
25.18918,6.4322013375097065,0.0638388626943394
25.193816,6.443819124985285,0.0633429480079353
25.198456,6.456214162194365,0.0628538521184754
25.203104,6.471551872174678,0.0623474312684051
25.207732,6.488688451050289,0.0618431633057041
25.21238,6.510688756306576,0.0613111119773684
25.21701999999999,6.53076800795342,0.0607929006940272
25.221664000000004,6.554811551533295,0.0602503482557762
25.226316,6.582452832903759,0.0597039581506537
25.23094800000001,6.6131589717596055,0.0591375440750176
25.23558,6.643498556473013,0.0585973526547107
25.240216000000004,6.671917087576982,0.0580713448231047
25.24485999999999,6.704710606205042,0.0575523034811948
25.249496,6.742612220642071,0.0569974759610939
25.25413599999999,6.784355942297982,0.0564305551525963
25.258759999999995,6.828020717563335,0.055858505806427
25.26339999999999,6.874383796171631,0.0552881349083577
25.268040000000013,6.918948005884631,0.0547245242503088
25.272672,6.962612781149983,0.054165664958744
25.27730400000001,6.9999815152818,0.0536175527666808
25.28194400000001,7.035551380518322,0.0530751197459464
25.28656799999999,7.065235900212374,0.0525634515826109
25.29121599999999,7.094020985458778,0.0520552554404513
25.295860000000005,7.119086148200445,0.0515579910707969
25.300508000000008,7.135078923200116,0.0511139771230114
25.305152,7.149028459876202,0.0506860063362957
25.30977999999999,7.162078562104638,0.0502590922215568
25.314412000000004,7.169243318790605,0.0498588062573336
25.31904800000001,7.1687238610388055,0.0494841187858565
25.32368,7.163096307478039,0.0491412238343517
25.328316,7.151827777803094,0.0488111520829603
25.332948000000016,7.138516009804563,0.0484925647157118
25.33758800000001,7.113922289577673,0.0481992263491937
25.342224000000016,7.079478931875284,0.0479469158729264
25.346868,7.034530871678043,0.0477232902775406
25.351500000000016,6.982675846776538,0.0475285140076497
25.356132,6.922892238008975,0.0473696407019524
25.360780000000005,6.855302230089502,0.0472404441903335
25.365408,6.787712222170028,0.0471075217609287
25.370048,6.717834606498677,0.0469961004428056
25.37468000000001,6.642193829999001,0.0469005750985326
