Time,Force,Position
23.494276,2.5651008879184376,0.1791194336698879
23.498856,2.7323561183874223,0.17805453768129
23.503456,2.8933050680911334,0.1770450845581774
23.50804,3.0513452468404982,0.1762176759915057
23.51264,3.2071317196548748,0.1754077592984711
23.517232,3.359476541209696,0.1745437869164491
23.521828,3.517452099246956,0.1730771291535438
23.526416,3.6757398303462856,0.1712739968329769
23.531004,3.83000888843222,0.1694114244006334
23.535592,3.981114566503779,0.167342623074632
23.540184,4.121372650123197,0.1655865092281583
23.544772,4.25785643015751,0.1637308032867076
23.54936,4.385335626083607,0.1619456881521128
23.553948,4.5033554008617935,0.160095613811576
23.55854,4.602432671159008,0.1586226325555178
23.563124,4.686653913622422,0.1573092101181313
23.567712,4.755486247946831,0.1561078416500898
23.572308,4.806275512237915,0.1551064008750951
23.576896,4.8487933007056565,0.1540801577512568
23.581488,4.885048949856753,0.1530781963060219
23.586076,4.916963513300645,0.1520215189248721
23.590664,4.941183622675033,0.1509937930615082
23.59526,4.958119973570981,0.1500017814530747
23.599844,4.964952077931399,0.1491295292091625
23.604444,4.96114705545108,0.1483547713960498
23.609032,4.9508355242258215,0.1476109943776656
23.61362,4.92698833483722,0.1471141994336821
23.618212,4.894757724542866,0.146751103949537
23.641164,4.624131462439766,0.1466914398648128
23.645764,4.565807013531883,0.1466538591002933
23.650348,4.509525802947588,0.1465524330068103
23.654944,4.451323538753856,0.1464999997962892
23.659524,4.39647464292242,0.1463768854558252
23.664116,4.348288342366958,0.1460783502786151
23.668704,4.299857672383203,0.1457893298276097
23.673296,4.256701424371189,0.14538223825784
23.677884,4.21959684806442,0.1448585267364637
23.682468,4.184213097387428,0.1443670931396971
23.68706,4.155946779026102,0.143798126697638
23.691652,4.133365578227584,0.1431543413571517
23.696244,4.122643351411262,0.1423204045676223
23.700832,4.118016937748811,0.1414448945134831
23.705428,4.12038577168788,0.1405035480542146
23.710016,4.123986692400144,0.139648087265497
23.714612,4.133561241552135,0.1387632728810009
23.7192,4.146655485229199,0.1378789467686831
23.723788,4.173651941212046,0.1367475017031069
23.728392,4.210830686995939,0.1354569757116146
23.73298,4.252672931180845,0.1341538846845406
23.737572,4.293293328224295,0.1330027427966279
23.742164,4.33821066952632,0.1318645900733985
23.746752,4.391389247019951,0.1306359462535397
23.751348,4.44628865014336,0.1294788411755977
23.75594,4.503930498058339,0.1283701088444099
23.760536,4.561127748565365,0.1273740117833072
23.765112,4.618413281969647,0.1265353437023986
23.769712,4.6751320332518285,0.1258324816436586
23.7743,4.737535902096816,0.1250914541442327
23.7789,4.8039482043234605,0.1243491405437296
23.783488,4.872570071036466,0.1236226353765855
23.788076,4.936983276388152,0.1230308900500578
23.792672,5.0021737314733405,0.1224512518931722
23.797268,5.073005162672707,0.1217950497466393
23.801864,5.14755651637681,0.1210789140958318
23.80646,5.223373858671,0.1203399468526226
23.811048,5.30188950430813,0.1195743669282068
23.81564,5.373087489649935,0.1189470897901265
23.820224,5.437745064429911,0.1184362369143274
23.824808,5.497006032524001,0.118007183681181
23.829396,5.554956870579377,0.1175700337880027
23.833992,5.611841948024332,0.1171120975807606
23.838584,5.66165373460225,0.1167437002303109
23.843176,5.710521945283893,0.1163463058911152
23.847768,5.75652552645982,0.115951704131794
23.852348,5.803873139491346,0.1154608296099885
23.856944,5.844714243777937,0.1149522202284884
23.861532,5.883423826843684,0.1143831207775598
23.86612,5.916037596755559,0.1138278762114745
23.870716,5.941778303780059,0.1132890607621729
23.875304,5.96334425126013,0.1127300440873206
23.879908,5.979836004748124,0.1121531867219885
23.8845,5.991253564244039,0.1115632967858046
23.889092,5.991833768919551,0.1110454180099199
23.893692,5.986562529869482,0.1105115724505573
23.898284,5.972130620180161,0.1100295966490027
23.90288,5.951602897336968,0.1095457611145804
23.90746,5.930498152739936,0.108992853958926
23.91206,5.909960190265005,0.1083440690879287
23.916648,5.88872302132209,0.1076327606231241
23.921248,5.865109961730038,0.1068691791556842
23.92584,5.833113481232237,0.1061465987594518
23.93044,5.802461032590039,0.1053233004946761
23.935024,5.761015370576066,0.1045995184872555
23.939616,5.710575364085615,0.1039585231704782
23.944208,5.657026358661155,0.1033087162409122
23.948804,5.602700103503194,0.1026480888624111
23.953392,5.544898295268788,0.1020037946042542
23.957988,5.484398183691435,0.1013760402642938
23.96258,5.420955399342849,0.1007809608008177
23.967172,5.355469376670676,0.1002092105688963
23.971764,5.294358341522596,0.0995899424345857
23.976348,5.233902371393873,0.0989672726272851
23.980936,5.173979281570361,0.0983530600924793
23.985532,5.115488506499707,0.0977351172350931
23.990124,5.063826652867799,0.0970649583441766
23.994712,5.016539786759985,0.0963488199165836
23.999312,4.967253823777211,0.0957159991615083
24.0039,4.919933055852508,0.0951038207309291
24.008492,4.874577482985874,0.094513893542856
24.013084,4.831719985482519,0.0939666873552072
24.017672,4.799044777780212,0.0933631927730641
24.022276,4.767968210993536,0.09281402862667
24.026864,4.74923935704564,0.0921689593849177
24.031476,4.745678703993611,0.0914011701866642
24.036068,4.747314429647806,0.0906671504277093
24.040672,4.7581108259412535,0.0899109078235866
24.045268,4.779089512035746,0.0891207884481333
24.049856,4.806652750140692,0.0883200086131287
24.054452,4.841455605275452,0.0875211215067261
24.059032,4.883620262154167,0.0867206393635574
24.063624,4.924929626033863,0.0859892551747387
24.068216,4.972046292190511,0.0852595456301741
24.072816,5.030611236738288,0.0844768982877274
24.077396,5.095638548582376,0.0837114015523455
24.082004,5.166839716845852,0.0829384086117766
24.086596,5.237962841843812,0.0822438434043864
24.09118,5.321267353517775,0.0814590461319179
24.095776,5.411645156058776,0.0806689084189253
24.100372,5.506275761409724,0.0798848240808803
24.104964,5.602583050941822,0.0791116606895931
24.109556,5.700689209369218,0.0783585875434782
24.114148,5.803414724748997,0.0775939982469323
24.118744,5.906795305148132,0.0768652043029568
24.123336,6.004534909433089,0.0762081373650295
24.12792,6.100064949231686,0.0755476686674411
24.132512,6.19428485899157,0.0748898102411069
24.137104,6.284007596513215,0.0742715962551698
24.1417,6.377816810682034,0.0736301085769428
24.1463,6.471459698688078,0.0729640978475388
24.150892,6.5657135102648505,0.0722830012385407
24.155484,6.66621922152653,0.0715458767552452
24.160084,6.764148814159412,0.0708288807516536
24.164664,6.851529562848812,0.0701531645044371
24.169244,6.935024062870699,0.069473615367457
24.17384,7.010545837577904,0.068829765425622
24.178416,7.086922905284127,0.0681487155128447
24.183004,7.151362955742637,0.0675314255489429
24.1876,7.203210923934075,0.0669591127234344
24.192184,7.252194262619797,0.0663688267541908
24.196788,7.301011275142746,0.0657522200682618
24.20138,7.3446760504081,0.0651467275197901
24.20598,7.380490285072913,0.0645550129870736
24.210568,7.4136842596603,0.0639319939956888
24.215168,7.443769235313677,0.0632957654711656
24.219756,7.471155907624112,0.062667286481557
24.224352,7.491347104353365,0.0620567637373541
24.228936,7.504709379643872,0.0614410341878683
24.233536,7.508300060724397,0.0608423139999762
24.238128,7.508537373442622,0.0602409544724593
24.242724,7.497859288074928,0.059662635484898
24.247312,7.478186858230754,0.0590993908838759
24.251904,7.453484375843133,0.0585242973936342
24.2565,7.427882459007862,0.0579449373836754
24.261092,7.398682804381999,0.0573677833334623
24.26568,7.3658854119655475,0.0567899244737065
24.270272,7.328346477882563,0.056226741586228
24.27486,7.285943817418902,0.0556789422373018
24.279436,7.242763907221739,0.0551171420582995
24.284032,7.1935764667679605,0.0545863964288669
24.288624,7.137604246324065,0.054080924648506
24.293216,7.077912103375432,0.0535787750020307
24.297796,7.0159323526749215,0.0530955748691576
24.302388,6.946434713699419,0.0526729646834522
24.306972,6.875548901419685,0.0522691523995571
24.311556,6.805440338873454,0.0518655693554109
24.316152,6.735742471918288,0.0514799080444289
24.32074,6.668498538877774,0.0510966100524162
