Time,Force,Position
22.108548,3.948294068090013,0.1436973976076284
22.113144,4.066609410455184,0.143632527866524
22.117732,4.174365669245134,0.1435738349623953
22.122344,4.27185135533678,0.1435598016678283
22.126932,4.363563640968366,0.1434759730630652
22.13152,4.447415146367671,0.1433370637292765
22.136116,4.525326925144141,0.143075001701938
22.140704,4.59766553144021,0.1426521139023358
22.145296,4.656991120246406,0.1422810579103191
22.149888,4.704491636887296,0.1419767565079305
22.154496,4.737346593305789,0.1417995566993093
22.159076,4.755555989501886,0.1417457267602832
22.163676,4.765127355732204,0.1416381249214114
22.168252000000003,4.771579483396774,0.1413567015466379
22.17286,4.76837196193377,0.1410552949549116
22.177448,4.758203094686135,0.1406772369090142
22.182048,4.739562523635495,0.1402972715293977
22.186644,4.720012278505468,0.1397391771444571
22.191232,4.701195141660315,0.1391099571824109
22.195824,4.68580941644298,0.1383548539486322
22.20042,4.6625731506251045,0.1377283054313379
22.205016,4.63177485508361,0.1372691754257247
22.209616,4.60338635200814,0.1367102225429793
22.214208,4.574831522769895,0.1360944904237533
22.218804,4.543045509883496,0.1355090072436566
22.223392,4.512036746730599,0.1349107755626212
22.227976,4.4809057988635566,0.1343171439180577
22.232564,4.448631047120575,0.1337558984402876
22.237160000000003,4.418810229292245,0.1331595587292336
22.241752,4.3909104650733575,0.1325118617262796
22.246344,4.368285122826211,0.1317679754814186
22.25094,4.349912583389013,0.1309540486448769
22.255528,4.332605804562236,0.1301713976200602
22.26012,4.3072482571552575,0.1296075000345798
22.264712000000003,4.281690481768615,0.1291312325947868
22.2693,4.255277413382952,0.1287354374786123
22.273896,4.234793831988387,0.128249918997269
22.278484,4.213088403452367,0.1278812872128357
22.283072,4.192204366098476,0.1275724046342692
22.287668,4.173818404107865,0.1273010316633425
22.292256,4.163693678308859,0.1269333903210156
22.29686,4.165794480634487,0.1263703806875047
22.301452,4.165163077800281,0.1260026238940836
22.306056,4.168950803938797,0.1256331020582939
22.310636,4.179200897373621,0.1252063508257757
22.315236,4.189372947542928,0.1248604903764266
22.319824,4.198323150570778,0.1246316004821594
22.324424,4.2097714289619095,0.1244455820534908
22.329004,4.2247394018781135,0.1242776901142464
22.333592000000003,4.240406581262303,0.1241847887540929
22.338184,4.2571395212569145,0.1241324406056509
22.34278,4.27878032908083,0.1240364905905275
22.347368000000003,4.305573374162341,0.1238757414420971
22.351964,4.3399725904161,0.1236161045397825
22.356564,4.377192294726947,0.1232987168687227
22.36116,4.419442051581246,0.1229257068188487
22.365748,4.46210250402661,0.1225987705327789
22.370344000000003,4.507216890386625,0.1222534239303553
22.374932,4.553108526480143,0.1219073269013953
22.379528,4.595524609497215,0.1216124396140187
22.384116,4.6351202044571975,0.1213808280510263
22.388712,4.666376519960059,0.1213071297421236
22.393308,4.700409182071381,0.1211138354369646
22.397896000000003,4.7337867791633474,0.1209197604915934
22.402488,4.763688823178867,0.1207746674975988
22.407076,4.793302356317467,0.1205899472793361
22.411668,4.827735474388116,0.1202456490524112
22.416252,4.863268254886076,0.1198129773475603
22.42084,4.896835840325966,0.1193659427815116
22.425444,4.931380903479023,0.1188385990677789
22.430032,4.963960771574008,0.1182898700998553
22.434644,4.991344260962769,0.1177477910962981
22.439236,5.012143198341076,0.1172610941141203
22.44384,5.032365113965545,0.1167054200620232
22.448436,5.0485785962083565,0.1161713730213842
22.453024,5.062171818373743,0.1156123962620088
22.457632,5.068403238795173,0.1151006632708593
22.46222,5.068949541653796,0.1146217999311783
22.466816,5.063155661930255,0.1141656145956102
22.471404,5.056296021596293,0.113669815900428
22.476004,5.044772882861318,0.1131827269665526
22.480592,5.032061798801776,0.1126645881151687
22.485192,5.018162769417666,0.1121180039746506
22.48978,4.998334253042457,0.1116230113899121
22.49438,4.977684345485119,0.111066080406032
22.498976,4.955724307889066,0.1104882316134512
22.503576,4.930166532502424,0.1099550265923636
22.508168,4.898967781001603,0.1095080616890375
22.512764,4.861595173081392,0.1091282748485902
22.517352,4.819725392922943,0.1088016904783786
22.521948,4.782841523859315,0.1083680199538396
22.526536,4.74420292734902,0.1080137607450659
22.531132,4.70544214612458,0.107666209581494
22.53572,4.666314810757701,0.1073408820111842
22.540308,4.632584082076711,0.1069437045265443
22.544896,4.59746518009149,0.1065935108907826
22.549496,4.567498515363865,0.1061954513717589
22.554084,4.542928457322127,0.1057292584128795
22.558664,4.528007808776223,0.1051630143251663
22.56326,4.518650093078979,0.1045845805987057
22.56784,4.519719036611075,0.1039147461014585
22.572432,4.529537955191356,0.1031676254827306
22.577024,4.540056080239623,0.1024931105441191
22.581604,4.559079810907784,0.1017605710613266
22.586212,4.578436193901494,0.1011280118783463
22.590792,4.600290652258485,0.1005481769561457
22.59538,4.626808609016489,0.0999784223484985
22.599976,4.6628537905561815,0.0993395891065289
22.604568,4.71075794607807,0.0986314938560561
22.609164,4.769088760829296,0.097853833774478
22.613744,4.823743794524412,0.0972023500867152
22.61834,4.887393172696008,0.0964686083479138
22.62292,4.964289698154031,0.0956481882091386
22.62752,5.044950287565418,0.094863396217166
22.632108,5.12769825674902,0.0941286691264488
22.636712000000003,5.214332474600133,0.0934046220622277
22.641304,5.307917798604138,0.0926628378556528
22.6459,5.40743260959924,0.0919268024412027
22.65048,5.506336497023615,0.0912620050561319
22.655076,5.608060872505079,0.0905942979848697
22.659668,5.706842575215307,0.0899926505602965
22.664264000000003,5.803581039601948,0.0894444155096566
22.668852,5.904283795921617,0.0888555808427532
22.67344,6.006130356117226,0.0882688583216221
22.678032,6.115006065731244,0.0876012559487047
22.68262,6.228090436706582,0.0868846544647535
22.687212,6.338598689053122,0.0861920155929506
22.691804,6.445753573037362,0.0855307407715152
22.696396,6.55016601223003,0.084866223399003
22.700988,6.6491818447368125,0.084254480167781
22.705576,6.751262534728974,0.0836145774337161
22.71016,6.84933479133948,0.0829914548573577
22.714736,6.9328939120734745,0.0824675711713474
22.719332,7.011667349692309,0.0819463551516584
22.723916000000003,7.085777288910132,0.0814228087018533
22.728528,7.158166402498175,0.0808662349731214
22.733116000000003,7.222172095180468,0.0803336180163495
22.737704,7.276894932509365,0.0798256210689683
22.7423,7.325277587256098,0.0793088367682029
22.746892000000003,7.365032451668789,0.0788194994744001
22.751488,7.398324948785171,0.0783258960850775
22.756076,7.429774435557629,0.0778058114088018
22.760676,7.459380911986164,0.0772616467714481
22.765252,7.481503401956596,0.0767241483637096
22.769856,7.49716352463072,0.0761844843555061
22.774444000000003,7.506361280008535,0.075639729993561
22.779044,7.509096668090041,0.075082606161613
22.783628,7.505125319446947,0.0745262929479482
22.788224,7.493059060775021,0.0739982247287285
22.792816,7.475429869254436,0.0734530793264598
22.797408,7.449050702685663,0.0729245981503999
22.802004,7.4164976796975,0.0724080511604885
22.806596,7.384799949708357,0.0718426711428827
22.811184,7.348971601623413,0.0712688368934275
22.815772000000003,7.3104449501955235,0.0706997752764606
22.82036,7.265744442348247,0.070138707510726
22.824956,7.215525143100936,0.0695936946704632
22.829548000000003,7.161585921348888,0.0690588806128547
22.83414,7.110589372368075,0.0684971268413202
22.838732,7.061636061710851,0.067911616604974
22.84332,7.013215631358835,0.0673355978480543
22.847912,6.956211552121408,0.0668008073136968
22.8525,6.891523258446213,0.0663043402335552
22.857096,6.82544679146679,0.0658281423594653
22.861688,6.757204901449633,0.0653674669180718
22.866276,6.6874526534141,0.0649335900338107
22.870888,6.624895880959751,0.0644736835400367
22.875476,6.565692476867699,0.0640106549871448
22.88008,6.510086810566242,0.0635317056282742
22.884668,6.460410631255882,0.0630521076069672
22.889256,6.4171526777932,0.0625461253661257
22.893852000000003,6.379291331016407,0.06202324332853
22.898444,6.345438417621271,0.0615131979524515
22.90304,6.314572318445999,0.0610239862837693
22.90762,6.285138534023583,0.0605474185205877
22.91222,6.266620147687088,0.0600420219887815
22.916808,6.261959832207748,0.0594934219249266
22.921408,6.262451753986004,0.0589448313641078
22.925996,6.261311133031738,0.0584376469791451
22.930596,6.259681773220889,0.0579562909388797
22.935192,6.263693389524218,0.0574543964290495
22.939784,6.282340326418204,0.0569201673791143
22.944368,6.31165829196982,0.0563798250185592
22.948964,6.345473429759675,0.0558334666763153
22.953556,6.384196435378834,0.0553093079229735
22.958152,6.42549555962679,0.0547884935255226
22.96274,6.464384891408723,0.0543079668096578
22.967332,6.5067497762671005,0.0538349065881663
22.971924,6.55132422561184,0.0533890295615938
22.976508000000003,6.59193438302355,0.0529688507229372
22.981096,6.634099039902265,0.0525663552770591
22.985692,6.67679657708619,0.0521875909604942
22.990284000000003,6.719494114270117,0.0518128169775493
22.994864,6.761414401720541,0.05143205699972
22.999464,6.804234123618614,0.0510520432993447
23.00404,6.835816034736956,0.0507504430236172
23.008636000000003,6.854850005036858,0.0505030392278294
23.01322,6.874128344765051,0.0502443562632621
23.017812,6.895572107530976,0.049967170477022
23.0224,6.914317566953956,0.0496900886673786
23.026996,6.927055496120323,0.0494475010030438
23.031584,6.925568800287097,0.0492473512588733
23.03618,6.912022902492012,0.0490685948780448
23.040772,6.894512712763899,0.0489087261605358
23.045372,6.867885993845162,0.0487558937168092
23.049956,6.837539352421688,0.0486085052151407
23.054552,6.80167391959818,0.0484668906520099
23.059144,6.756325403441611,0.04835088875513
23.063744,6.702759792542067,0.0482411503310844
23.068332,6.647273128033081,0.0481367923954246
23.072932,6.580382326581592,0.048065414001965
23.256584,2.594122756423205,0.0480336534564046
23.26118,2.532061779535503,0.0480187776146158
23.265768,2.471799671543097,0.0479962824636408
