Time,Force,Position
23.104892,2.3277234233686595,0.1556187503208757
23.109492,2.4723635512222364,0.1543135133512771
23.114076,2.614760212772563,0.1537680029925823
23.118668,2.756990548160116,0.1532151013004312
23.123264,2.8889503108493666,0.1529065071858264
23.127844,3.0202889103361503,0.1523351932638864
23.132436,3.1427892518774905,0.1519392692339189
23.137024,3.26197012687342,0.1515775385037567
23.141612,3.3744001236961214,0.1513259820050656
23.146204,3.479179807897946,0.1512316203075271
23.17836,4.010616596445541,0.1511330007802331
23.182944,4.056905505576712,0.1511131075286063
23.18754,4.093412580866164,0.151093698386167
23.192128,4.124879363980427,0.1509365108401706
23.196732,4.157069015747825,0.150465735739063
23.201320000000003,4.18548436393012,0.1497968972802308
23.20592,4.206693996899491,0.1490808166778791
23.210512,4.220864240818717,0.1483845184469023
23.215108,4.232780778802953,0.1476278898120236
23.219696,4.236391939146956,0.146942427707383
23.224288,4.240447696898913,0.1461376554609464
23.228884,4.232400111240383,0.1455750953309152
23.233484,4.2231204388086585,0.1449181568961139
23.238076,4.209666006832503,0.1442531897677463
23.242668,4.1935913147789226,0.1435648709641345
23.247256,4.172853124324328,0.1429196715385132
23.251848000000003,4.1461854468786346,0.1423796108243324
23.256436,4.124092984936699,0.1416426021139809
23.261028,4.102367077137201,0.1408572223781132
23.26562,4.0763883665277545,0.1401490084307377
23.270212,4.040926572585247,0.1397135490624938
23.274804,4.001744856138002,0.139367263652958
23.279396,3.9651392583195553,0.138961814891874
23.283988,3.923669934120432,0.1387036580449412
23.288576,3.8792579371500735,0.1385193765125777
23.293164,3.8343572013231326,0.138379321177467
23.29776,3.789867161087257,0.1382750579714476
23.302348,3.746565066175948,0.138190957203649
23.306956,3.7098475232750943,0.1379893255729878
23.311552,3.6753836863092295,0.1378566018591514
23.31614,3.6410861755061386,0.1377748571421494
23.320736,3.6159493353423,0.13754731670416
23.325324,3.592288951379948,0.1373919672005969
23.329928,3.574602195857323,0.1372065468565552
23.334524,3.5667311759933056,0.1368814065198844
23.339116,3.565733219016663,0.1365104910976803
23.3437,3.572752128803333,0.1360478706290122
23.3483,3.581003125363199,0.1356933267792951
23.352888,3.598170423134025,0.1352363823756012
23.357488,3.6235989570964566,0.1346787478610601
23.36208,3.662152453631169,0.1338666463304695
23.366676,3.700916417777283,0.1331783480782537
23.371268,3.744343880324409,0.1324783580232787
23.375856,3.7939893407395537,0.1317181233627293
23.380444,3.847931745413275,0.1309804571638294
23.385036,3.9052716598979234,0.1302728897826394
23.389628,3.972016614450116,0.129435723595652
23.39422,4.04264781766982,0.1285873635390749
23.398808,4.108703805385765,0.1279354437009814
23.403396,4.182854703130542,0.1271430087068183
23.407984,4.25921516536168,0.1263667557033549
23.41258,4.336230692612175,0.125621335035258
23.417172,4.418642826548557,0.1248009173317082
23.421764,4.502198764360878,0.123963362804272
23.426360000000003,4.575616553820781,0.1233508540152149
23.430948,4.648912158566539,0.1227657115027497
23.435536,4.721674883007085,0.1221880432371659
23.440124,4.79427128128486,0.1215677293369502
23.444704,4.863636495914477,0.1210010207634608
23.449316,4.926461299982269,0.1205692317640808
23.453904,4.986832170135409,0.1201818661127699
23.458492,5.052144809934743,0.1196286843523637
23.463088,5.111283593314687,0.1191670516162699
23.467676,5.173198723303091,0.1186145810711963
23.472272,5.228284931852751,0.1181330020601801
23.476852,5.280750880324986,0.117626151276039
23.481448,5.324056158157966,0.1172111231321381
23.486036,5.3649855453418125,0.1167591997178496
23.490628,5.406359529933615,0.116213499466167
23.49522,5.4394722783338105,0.1157402905028762
23.499824,5.468943147494787,0.1152635705756764
23.504416,5.494117072397189,0.1147750045014497
23.509012,5.51229574969807,0.1143116823859401
23.513604,5.525033678864436,0.1138631320613208
23.5182,5.539770704905761,0.1133180255120117
23.522796,5.545957983878562,0.1127887728993347
23.527384,5.547481764450351,0.1122720841439108
23.531984,5.545241481068774,0.1117535453786429
23.53658,5.536661015105034,0.1112539715733016
23.541168,5.526848462368099,0.1106726922870916
23.545764,5.510040662029644,0.1101010061974578
23.550352,5.486526124966587,0.1095728650021855
23.55494,5.460391327826105,0.1090073325472162
23.559528,5.425873109779873,0.1084932732752706
23.564124,5.3935983580368925,0.1078611588417604
23.568716,5.360380030397635,0.1071783417797712
23.573308,5.325851572719663,0.1064704961219734
23.577904,5.28412763946051,0.1058336406799022
23.582484,5.239050337839058,0.1052088821314482
23.587076,5.191519102302951,0.1045864064838147
23.591664,5.136792391185662,0.1040375663226371
23.596244,5.081166245620726,0.1034882804960477
23.600848,5.02439629617985,0.1029579226319372
23.605428,4.968403596472477,0.1024173868529747
23.61002,4.910734212583954,0.1018744573328991
23.614624,4.860260304276613,0.1012394997747486
23.619212,4.809664211255128,0.1006042967384034
23.623816,4.758457194662913,0.1000104679324679
23.628396,4.7112586114523545,0.0993988675661505
23.632992,4.664104169690425,0.0988384738822882
23.63758,4.618670553558273,0.0983215591549066
23.64218,4.573647633017187,0.0978273340763583
23.646772,4.5352092644865545,0.097299670641487
23.65136,4.50413269769988,0.0967411548072589
23.655956,4.473633152667043,0.0962604679647787
23.660552000000003,4.44665330215928,0.0958108007472574
23.665144,4.426258003661973,0.0953363472577957
23.66974,4.415800625537418,0.0948236677875631
23.67434,4.41360448360447,0.094285452053815
23.678936,4.418770143415478,0.0937296364507586
23.683536,4.441680122751151,0.0930278057141053
23.688132,4.468109796611897,0.0923645078193187
23.69272,4.496260296102422,0.0917523788056628
23.697308,4.53075097817511,0.0911518633196826
23.701904,4.574035776744615,0.0905631503395087
23.706488,4.621984073715132,0.0900082213752359
23.711076,4.676516922696103,0.0894526629550008
23.715672,4.741842985048848,0.0888228575674569
23.720264,4.815141772716279,0.0881625934373316
23.724856000000003,4.897190535431896,0.0874655056348416
23.729456,4.988233642623992,0.0867149020580791
23.734044,5.089825593759572,0.0859210761335852
23.73864,5.195015282685743,0.0851344389868863
23.743228,5.298039548574182,0.0844055144599418
23.74782,5.406582605862652,0.0836454853046438
23.752416,5.515902912884624,0.08290731951491
23.756992,5.626122654354245,0.0821920678164317
23.761596,5.7359317002328,0.0814730407357541
23.766196,5.839322520263675,0.0808151360509542
23.770784,5.94410151359878,0.0801435250523052
23.775384000000003,6.038087293562112,0.0795598222748554
23.779976,6.133583431543819,0.0789413780488159
23.784572,6.231611546705696,0.0782690348631247
23.789160000000003,6.323954544304766,0.0776027899240044
23.79376,6.408569186017442,0.0769675127700167
23.798348,6.486887786596585,0.0763780468964907
23.802948,6.558255281022835,0.0758175490381109
23.80754,6.618829562077312,0.0753207162196138
23.812132,6.669632248921807,0.0748738914585354
23.816724,6.713728199041702,0.0744405042644878
23.82132,6.747153120503969,0.074051587830482
23.825916,6.7719502516321946,0.0736868004507098
23.830512,6.785954169388646,0.0733679773914109
23.8351,6.798892326534674,0.073016849705468
23.839692,6.8069226158514,0.0726635251314526
23.844284,6.808368353157671,0.0723039295302532
23.848876,6.801841365149255,0.0719681224924327
23.853468,6.785420598216715,0.0716667819578863
23.858056,6.769610754854902,0.0713303107524233
23.862636,6.7455838167501145,0.0710284829643539
23.867228,6.722045617501908,0.0706975133295361
23.87182,6.694376800157899,0.0703599513662107
23.8764,6.666175102508679,0.0700042756522401
23.880996,6.636418905392455,0.0696376313121863
23.885584,6.607518001275252,0.0692213064208036
23.890176,6.578328586281128,0.0687722848271951
23.894764,6.550527344591235,0.0682907107251957
23.899352,6.5248915259390765,0.0677803183360885
23.90396,6.4945141656203855,0.0672903580041462
23.908552,6.459639633063454,0.0668084963052503
23.91314,6.4287293924395525,0.0662920198189423
23.917736,6.396020282920356,0.0657761662618343
23.922324,6.367153280620041,0.0652316569353381
23.926928,6.336365224710285,0.0646955497707679
23.93152,6.3016128768675,0.0641852055762979
23.936112,6.270991147120518,0.0636806577689291
23.940692,6.242168286268832,0.0631665210036462
23.945292,6.221440335445977,0.0626279859151058
23.94988,6.201489634356624,0.0620924740446293
23.95448,6.185913920791364,0.061550765222093
23.959072,6.16960509894123,0.0610493035228322
23.963668,6.155628026291603,0.0605615159747309
23.96826,6.1402627803377445,0.0601036805157355
23.972852,6.13209300996507,0.0596320684968656
23.97746,6.124866815488669,0.059205406240018
23.982056,6.118828566336838,0.0588099425888037
23.986644,6.115899316119014,0.0584368848765374
23.991244,6.117345053425284,0.0580653410256563
23.995832,6.132771046302856,0.0576468660816449
24.000428,6.157069198942759,0.0572233709691553
24.00502,6.182799666335522,0.0568211335324043
24.009604,6.2116391326622935,0.0564409870646135
24.014192,6.245753020960805,0.0560654177920795
24.018784,6.284119712069266,0.0557006888701707
24.02338,6.328782444311262,0.0553295596939243
24.027964,6.376387849324492,0.0549481835846875
24.03256,6.430167110757112,0.0545710178766098
24.037148,6.485623056370881,0.0542050939939647
24.041732,6.541611882289861,0.0538614447994926
24.046316,6.596579089047049,0.0535275131214065
24.0509,6.65730945663256,0.0531731806215267
24.055488,6.7194721389709295,0.0528406427793424
24.06008,6.782412071042802,0.052516221231277
24.064672,6.842042776201003,0.0522322261987126
24.069264,6.900774046911555,0.0519505472442687
