Time,Force,Position
27.883488,2.94994757729603,0.1650446958866644
27.888084,3.1310711182539084,0.1646919797719667
27.892668,3.3105416372157874,0.1635797306756501
27.897256,3.479042377011379,0.1626688916942054
27.901844,3.636328968212393,0.161944950696548
27.906436,3.780069661618322,0.1614042259186989
27.911028,3.919625355848082,0.1606385809938216
27.915616,4.047966901483264,0.1599674575549582
27.920212,4.164927972361094,0.1592939012445576
27.924788,4.274228490986308,0.1584676157219824
27.929384,4.37022748124473,0.1577155191083123
27.933976,4.461386407307626,0.156761352968876
27.938556,4.5424749886518825,0.1558268504857003
27.94316,4.6121830952387874,0.1549154746486285
27.947748,4.6675680542971065,0.1541251912310682
27.952336,4.7119832341891374,0.1533771410390304
27.956932,4.750092133315895,0.1525949103678733
27.961528,4.776175732297682,0.1520059733017122
27.966124,4.796896626410472,0.1514211702145166
27.970704,4.821249160130743,0.1506312697669471
27.9753,4.842859249059442,0.1498433287860081
27.97988,4.862259773501781,0.1490829151789879
27.984476,4.874587007077082,0.1484682711031305
27.989064,4.886503545061317,0.1478300794614252
27.993668,4.8963327032733375,0.1471903200672942
27.998252,4.904607362018354,0.1465598867453839
28.002848,4.905686545182188,0.1460805770103646
28.00744,4.907132282488457,0.1455680740250862
28.012036,4.911276323137672,0.1450027946789146
28.016624,4.914276559910947,0.1444775130275377
28.021216,4.920219469455458,0.1438755494288211
28.025808,4.926939628733469,0.1432781449537359
28.030392,4.937379710516217,0.1426074991656375
28.03498,4.949252107051825,0.1419392846615111
28.039568,4.961779568606789,0.1412755853155696
28.04416,4.975084279895256,0.1406127961598395
28.048756,4.988144621755431,0.1399760863758513
28.053348,5.004025451672695,0.1392817049951234
28.057936,5.016963608818726,0.138660689608453
28.062536,5.028269223232233,0.1381273737939877
28.067112,5.041906586846246,0.1375802606751588
28.0717,5.057631330232476,0.1370468203948995
28.076292,5.076220703124421,0.1365111302741609
28.08088,5.096120206055081,0.1359894934191939
28.085468,5.119905957653252,0.1354445762254277
28.09006,5.149621196242521,0.1348261731762092
28.094648,5.185265921822887,0.1341347923598251
28.09924,5.222220777441967,0.1334580267633609
28.10382,5.259830698080402,0.1327991185773873
28.10842,5.299772367919345,0.1321271228936852
28.113,5.341024167797,0.1314762811059642
28.117596,5.37626843741804,0.1309661068872011
28.122184,5.408447849553699,0.1305368501568696
28.126784,5.439850011955857,0.1301171337812636
28.13138,5.473828292986812,0.1296709072024875
28.135972,5.5056411509800345,0.1292843648661569
28.14056,5.539130693154407,0.1288867185192755
28.145156,5.572742420042925,0.1284874653116684
28.149744,5.610851319169682,0.1280285728355321
28.154336,5.647039164686998,0.1276074620805485
28.158928,5.684370814080253,0.1271640886515646
28.163512,5.716183672073476,0.1268082331080724
28.1681,5.748118714780844,0.1264440405607109
28.1727,5.777722008287705,0.1260921004360867
28.177288,5.8092022139553805,0.1256667425537753
28.181884,5.83859503985084,0.1252413077377076
28.186476,5.865900485974084,0.1248150964290266
28.191056,5.895982278705789,0.1243057195677085
28.195648,5.921933453341692,0.1238303880604682
28.200236,5.947718301814822,0.1233194201586417
28.204828,5.971415770515737,0.1228043211786984
28.209424,5.999444085292116,0.1221946855166713
28.214012,6.027306073905723,0.1215486239884819
28.218608,6.054512997499972,0.120900124061548
28.223196,6.079388171893713,0.1202645970235349
28.227784,6.106795323467628,0.1195622511794666
28.23238,6.130194041659883,0.1188829381466251
28.236972,6.150239391489839,0.1182315451706743
28.241568,6.166398492652284,0.1175968642448609
28.246148,6.181614017918453,0.116924217093071
28.250744,6.193353990108176,0.1162878661379317
28.255332,6.206071440011065,0.1155828226771705
28.259936,6.217967498731823,0.1148339909421087
28.264524,6.231251730756812,0.1140435712903866
28.269124,6.235052879448739,0.1133846841086942
28.273716,6.23627790951187,0.1127475013286089
28.278308,6.233905201784407,0.1121483244765343
28.282888,6.221394345704527,0.1116697160567416
28.28748,6.211948347110029,0.1111368677678376
28.292068,6.20196946821032,0.1105894085126733
28.296664,6.190191720415314,0.1100590126880742
28.301252,6.174038985096216,0.1095653388988381
28.30584,6.153266892824732,0.1091222566531772
28.310428,6.130940301086244,0.1086789028720387
28.315024,6.105260340985455,0.1082526639781954
28.319616,6.074305958912926,0.1078689884883287
28.324208,6.042574327106894,0.107482455907168
28.3288,6.010964880015007,0.1070840227792053
28.333388,5.977190009885389,0.1067247142124945
28.337972,5.947912311994009,0.1063167459771172
28.342572,5.9181017337974176,0.1058893575893686
28.347164,5.887680232030099,0.1054995177206477
28.35176,5.857791610567991,0.1051218939649984
28.356348,5.82688136994409,0.1047571070019162
28.360944,5.802755909310305,0.1042965434857561
28.365528,5.780184948143526,0.1038330228159512
28.37012,5.76031229031969,0.103341456243972
28.374716,5.75033341141998,0.1027553188987363
28.379308,5.738311294196683,0.102201895356109
28.383912,5.723879384507362,0.101704097277687
28.3885,5.709325290103895,0.1012116128999603
28.393096,5.698246748776875,0.1006931937976069
28.397672,5.692564814135742,0.1001235852220933
28.402272,5.686516325352171,0.0995760377586256
28.40686,5.684965008806839,0.0989866155009005
28.41146,5.686400506481371,0.0984043223148901
28.416044,5.691067187804057,0.0978146205934412
28.42064,5.699087237489043,0.0972118976865983
28.425232,5.708783971355182,0.0965988559140021
28.429828,5.712595359678846,0.0960679091268941
28.434416,5.719637931650668,0.0955331483191455
28.439,5.729500991679578,0.0949675328097011
28.443592,5.742184539765578,0.0943769498036653
28.448176,5.757199837052082,0.0937925475158223
28.452764,5.774669068253239,0.0932121466001442
28.457364,5.794059353063839,0.0926146471676158
28.461952,5.814226887607941,0.0920223049010716
28.466548,5.829897249913804,0.0914694323768245
28.47114,5.845323242791375,0.090932449604312
28.475728,5.865612962049621,0.0903426933362687
28.480312,5.891665842136193,0.0896972043206334
28.4849,5.914653864737385,0.0890953191185997
28.489492,5.937519702624429,0.0885065520955883
28.494084,5.970112993272826,0.0878230533381727
28.498672,6.00258409920708,0.0871548851463172
28.50326,6.037342812893209,0.0864505645219216
28.507848,6.073367515169425,0.0857259432809633
28.512436,6.108492782997992,0.0850144088114016
28.517032,6.1466829083119405,0.0842696193581246
28.521612,6.188592956130625,0.0834962032748872
28.526204,6.230747373377602,0.082719008456212
28.530796,6.274945028948165,0.0819279897571441
28.5354,6.317343815623433,0.0811592973049516
28.53998,6.358310287545843,0.0803855515661082
28.544564,6.391836914458775,0.079667319543323
28.549152,6.423564672476415,0.0789647853345044
28.553748,6.4554146152082,0.0782609420824813
28.558336,6.490984480444722,0.0775395630643171
28.562928,6.527575964843038,0.0768082040182562
28.56752,6.560203157308325,0.0761210320643172
28.572108,6.588621688412292,0.0754929904444123
28.576696,6.623047749772875,0.0748115548448656
28.58128,6.65849543029525,0.0741262119624748
28.585868,6.681272985285039,0.0735513456358408
28.590464,6.703928355560683,0.072987498519683
28.595056,6.722741618617443,0.0724539493973823
28.599636,6.740777631940701,0.0719226469719481
28.604232,6.758935829978104,0.071388195562192
28.60882,6.777993462463155,0.0708573537743122
28.613416,6.799094333271794,0.0703126934461472
28.618012,6.818274150470993,0.0697847585533487
28.622592,6.832834610717804,0.0692807799065393
28.627188,6.844452398193381,0.0687991729632749
28.63178,6.857502500421818,0.0683342752247372
28.636368,6.8770930132120816,0.0678385213313607
28.640956,6.896683526002344,0.067344938551856
28.645548,6.91537460434496,0.0668567322891755
28.650156,6.930223575468692,0.0663943980798646
28.654748,6.945194731306568,0.0659272325325141
28.659352,6.961554060448677,0.0654334933905903
28.663932,6.978646497875659,0.0649036707005919
28.668524,6.992019012797904,0.0643941888407858
28.673104,7.003837028253145,0.063879718665713
28.677696,7.022684193126794,0.0633130222690157
28.682292,7.039610304391003,0.0627577799423228
28.686876,7.0624217611976805,0.0621705714813661
28.691472,7.081146741357185,0.0616161649114127
28.69606,7.098072852621394,0.0610672998232865
28.700648,7.1112790413808655,0.0605347918265276
28.705244,7.120765307635599,0.060017850134642
28.709828,7.130251573890333,0.0595022684595602
28.714416,7.143457762649804,0.0589764756693382
28.719004,7.155642332247481,0.0584557304931115
28.723588,7.16753839096824,0.0579098076012287
28.728184,7.1741600277172575,0.0573670353166087
28.732776,7.181803283628067,0.0568191219243691
28.737368,7.188669289805375,0.0562670257282149
28.741956,7.19757853430627,0.0557021083828341
28.746552,7.208286647702462,0.0551380389882877
