Time,Force,Position
26.471204,3.1964536328970308,0.1706244378113185
26.475792,3.392337862081385,0.1668064934576857
26.48038,3.578928996280602,0.1637500590509263
26.484967999999995,3.7526292977040905,0.1614700465967352
26.489556,3.917158688856588,0.1593870692698088
26.494152,4.070063235823443,0.1576712832199438
26.498732,4.214896534946617,0.1559126681968029
26.503316,4.340298590732236,0.1545563901464499
26.507895999999995,4.457673540122804,0.1531563921546203
26.512476,4.568575882585325,0.1517403967830357
26.517084,4.670962379796211,0.1503342441196195
26.521671999999995,4.759558609783721,0.1490576008532084
26.526276,4.83534205026102,0.147793096942815
26.530864,4.905508176809291,0.1463872065283164
26.535456,4.96122897111483,0.1451104177017563
26.54004,5.000793847179597,0.1440790291787938
26.544632,5.030132291994689,0.1431972559931448
26.549228,5.05251963065689,0.1424592617985376
26.553812,5.076828022928532,0.1416848552045672
26.558412,5.097905231552019,0.1409516776011171
26.562988,5.1132192793471845,0.1403520705374778
26.567592,5.123913970189963,0.1398472915491556
26.57218,5.130111488794503,0.1394285579618821
26.57678,5.134754507932039,0.1390244833833017
26.581371999999995,5.139886265926156,0.1385825853597745
26.585968,5.143096970310835,0.1381881188458283
26.590556,5.139400709991248,0.1379578569577305
26.595147999999995,5.141834164642423,0.1375662354637445
26.599736,5.140669881503006,0.1372395723996036
26.604332,5.13218793806826,0.1370526475982167
26.60892,5.120352626271216,0.1369089671892388
26.613504,5.1121150522647625,0.136700957962004
26.618092,5.104043804421081,0.1365388455185564
26.622692,5.091886079930227,0.1364803108011356
26.627275999999995,5.0812828549063775,0.1364098558216933
26.63186,5.075543356263204,0.1362305388584067
26.636455999999995,5.0686600537440905,0.1360871677964673
26.641044,5.061410197082542,0.1359743299110898
26.645636,5.052894351830908,0.1359066040516222
26.650216,5.04724313608499,0.1358389554003173
26.654804,5.046866342310815,0.1356904809142918
26.6594,5.053929393546113,0.1354019820158878
26.663984,5.064590182572002,0.1350532852908092
26.668575999999995,5.0729633638460125,0.1347738825463591
26.673168,5.079948371815793,0.1345529813357905
26.677755999999995,5.0828469031384,0.1344315521665425
26.682351999999995,5.093063094756334,0.1341801852824737
26.68694,5.107409904470073,0.1338924332915743
26.691544,5.127153320869697,0.1335206120059382
26.696124,5.151516094221707,0.1330656733854335
26.700724,5.179476605364309,0.1325539698870124
26.705312,5.208458735668704,0.1320282824009692
26.70992,5.244103461249071,0.1313843958210125
26.714507999999995,5.280647621277084,0.1307301983180025
26.719108,5.317313966019244,0.1300768741435102
26.7237,5.354513191066615,0.1294456675784234
26.728296,5.394532904171074,0.1287731349587037
26.732884,5.4376174747609145,0.1280413183168173
26.737476,5.478903176455459,0.12733766232577
26.74208,5.519778182558938,0.1266174764486338
26.746676,5.559998123643062,0.1258995012966244
26.751264,5.594821458041299,0.1252684908338103
26.75586,5.628334662400821,0.1246319123738626
26.760448,5.669121385607045,0.1238447091968811
26.765035999999995,5.708475794060409,0.123057047311471
26.769624,5.752161048589239,0.1221626984494521
26.774216,5.786974143355737,0.121380003821712
26.778808,5.81099402475046,0.1207446910341586
26.783387999999995,5.829084419154086,0.1201700900705486
26.787988,5.843044195461909,0.1196285282367907
26.792576,5.854916591997516,0.119080568794714
26.797168,5.861636751275528,0.1185861060841254
26.801764,5.860872924095437,0.1181537035195785
26.806352,5.8577773477148405,0.1177281290647432
26.810944,5.849529534076648,0.1173511458185604
26.815535999999994,5.840460329256325,0.1169260137870982
26.820124,5.823540583835463,0.1165808379483339
26.82472,5.803389654766446,0.1162513011033869
26.829304,5.780007542049274,0.1159368809275916
26.833908,5.752250441808009,0.115666065402975
26.838504,5.720240538756796,0.1154302009051676
26.843096,5.6894966242956695,0.115153612145273
26.847684,5.657076025653391,0.1148861084614163
26.852284,5.615294528392198,0.1147480275306345
26.856872,5.572735781397502,0.1146089283285854
26.861472,5.528500350221657,0.1144761351485525
26.866064,5.491826948769432,0.114229866949079
26.87066,5.465780434526206,0.1138116343471283
26.87524,5.443209473359427,0.1133583236049787
26.879836,5.426157303592681,0.1128326698239303
26.884424,5.409271459988707,0.1123486696021809
26.889019999999995,5.394839550299386,0.1118496915619088
26.893612,5.383394454829928,0.1113528363575528
26.898204,5.372726609093974,0.1108525517956572
26.902784,5.368110435063262,0.1102993154727343
26.907376,5.36402714133776,0.1097642109910354
26.911956,5.369593257108095,0.1091394819657342
26.916548,5.376469502917141,0.1085326309992648
26.921144,5.392995158222023,0.1078414075414813
26.925732,5.413651431622707,0.1071267924927351
26.930324,5.444323668661663,0.10630929441608
26.934912,5.478471458777065,0.1054769551295417
26.939508,5.517649301435919,0.1046250660420291
26.944092,5.563656065533515,0.1037249969635303
26.94868,5.617513370231653,0.1027780223887344
26.953275999999995,5.674479673863799,0.1018407334333216
26.957864,5.728914000315776,0.1009806786223101
26.962452,5.779916915139934,0.1002183139379823
26.967048,5.831697079697594,0.0994661525112071
26.971647999999995,5.881067451789231,0.098782786966324
26.97624,5.9326032469186005,0.0980650151188635
26.980832,5.986959530105059,0.0973253994005332
26.985432,6.039272574967932,0.0966192475897578
26.990024,6.095061172907249,0.0958984491848743
26.994623999999995,6.147129848341829,0.0952219981374519
26.999212,6.195767112148592,0.0946161813943147
27.003816,6.239007769269467,0.0940631894101956
27.008404,6.281348991942695,0.0935214449914573
27.013008,6.317638542910678,0.0930234006691356
27.017599999999995,6.354172463306954,0.0925143169234286
27.022192,6.383266538693755,0.0920850774281396
27.026779999999995,6.404798584356936,0.0917334608621603
27.031375999999995,6.42015677360073,0.0914218207968915
27.035964,6.434571386948246,0.0910741365748702
27.04056,6.438437156352278,0.0907882350087661
27.045148,6.439971176555805,0.0904999966765699
27.049736,6.445303162529588,0.0901293245023296
27.054316,6.446504530407567,0.089765981332638
27.058907999999995,6.446151398818541,0.0894010418205928
27.063492,6.446531375514389,0.0889937053010731
27.068084,6.447522275780966,0.0885534140078941
27.07268,6.4433609387899455,0.0881318174026574
27.077268,6.4389110909220095,0.0876779877922809
27.081852,6.431230059405916,0.0872251168288805
27.08644,6.42338270172705,0.0867326024805754
27.091028,6.419455494532585,0.0861521201113829
27.095636,6.416017026194703,0.0855418591942387
27.100216,6.4102468086563125,0.0849232838033423
27.104828,6.404476591117922,0.0843034898495747
27.109416,6.399072927721969,0.0836643500264517
27.114004,6.393913633754309,0.0830096862096424
27.118607999999995,6.392963001147967,0.082296834318747
27.123196,6.394055606865211,0.0815570247524882
27.127792,6.395026027868311,0.0808284389737932
27.13238,6.398816936928499,0.0800729127208835
27.136984,6.400031727359891,0.0793222479262465
27.141563999999995,6.39932546418184,0.0785939705857831
27.146164,6.400662439327378,0.0778401008411613
27.150752,6.401344349453557,0.0770766879694263
27.155352,6.39806196764671,0.0763502407214259
27.159948,6.391470358926188,0.0756731690340572
27.164536,6.389375922443908,0.0749764347953684
27.16912,6.3908792237522185,0.0742657207475735
27.173704,6.39238252506053,0.0735545144955167
27.178308,6.398138629178787,0.0728423016993919
27.182896,6.404427613602255,0.0721530662527953
27.187487999999995,6.413292716654523,0.0714640018943221
27.192084,6.42857604555447,0.0707492562887492
27.196672,6.443859374454418,0.0700347474669831
27.201263999999995,6.457998899478427,0.0693408806186847
27.205852,6.473815108683586,0.0686504375056895
27.210448,6.490408567622247,0.0679681568960425
27.215039999999995,6.509700329903851,0.0672816875463066
27.219636,6.526704484433576,0.0666299030439662
27.224228,6.550126864810983,0.0659598816609342
27.228815999999995,6.577146982978981,0.065281634742313
27.233396,6.604699981452189,0.0646281933810218
27.237984,6.632663675516463,0.0640009961177852
27.242568,6.663203488209535,0.0633790788294591
27.24718,6.698851396711573,0.0627176528828296
27.251768,6.737564162698994,0.0620358427833779
27.256367999999995,6.775377494238765,0.061363944747855
27.260964,6.814212444940331,0.060694052422036
27.265552,6.85574569898484,0.0600248690751058
27.270156,6.898178387476997,0.0593658640171042
27.274752,6.939711641521507,0.0587161625153258
27.279356,6.9795682113848665,0.0580701904107699
27.283947999999995,7.013539435705756,0.0574621715669183
27.288543999999995,7.050331148083735,0.0568488264746668
27.293124,7.087122860461714,0.0562388901681606
27.297723999999995,7.121993519230251,0.055640217251487
27.302304,7.15572037412285,0.0550587544782766
27.306904,7.183684068187123,0.0545024522540051
27.311488,7.211647762251397,0.053946004182511
27.316084,7.232826676325552,0.0534245508079518
27.32068,7.253761220971419,0.0529185998930711
27.325272,7.265212682284221,0.0524413153758112
27.329868,7.275886893863523,0.0519589911627905
27.334464,7.284517867119238,0.0514925471939082
