Time,Force,Position
27.545068,3.145585386882709,0.1509009768211701
27.549664,3.352571819579235,0.1496793014002636
27.554264,3.545645800338238,0.1489126984766602
27.55886,3.728937947255522,0.1482207221097853
27.563448,3.908333605873557,0.1473445488338919
27.568044,4.079746299545167,0.1465174870303316
27.572632,4.248939189098678,0.1454451959673071
27.57722,4.406507234466546,0.1444197160813786
27.581812,4.555026554277568,0.1434184063728899
27.586396,4.694663474694519,0.1424173630956948
27.590992,4.825540180431544,0.1414163556354316
27.59558,4.945080552859844,0.1404686534315476
27.600176,5.049686854188829,0.1396277393696814
27.604768,5.14577731026618,0.1387346520397238
27.609359999999995,5.228976933567802,0.1379085408731752
27.613948,5.295565801588959,0.1371987717735998
27.618524,5.3464433487773,0.1365946685785174
27.623132,5.382553151029098,0.1361240770561477
27.62772,5.408602848193997,0.1358033947601821
27.632307999999995,5.434486219196121,0.1354431768291671
27.6369,5.456483341530736,0.1351101769753786
27.641496,5.482322571084235,0.1347026372702963
27.646092,5.504153367256075,0.1343269410803207
27.650684,5.522097914760404,0.1339746949142946
27.655288,5.533091356111843,0.1337254078324561
27.659868,5.540320733509916,0.1334927208595547
27.737928,5.142758395417669,0.1334736643355647
27.74252,5.116932588417582,0.1333998909059509
27.747104,5.093805084760439,0.1332816673555498
27.7517,5.068145603923127,0.1332536467598409
27.756288,5.047760545057556,0.1331473487957051
27.760876,5.034570961773168,0.1329237162225334
27.765471999999995,5.020770454918053,0.1327496063030696
27.77006,5.011633446463952,0.1325485177464761
27.77466,5.003317829191981,0.1323984914104481
27.779252,5.000521003320042,0.1321500770048693
27.78384,5.001976980258051,0.1318514271036578
27.788439999999994,5.011405682510746,0.1314359483203815
27.793032,5.025986622021036,0.1309592341933546
27.797628,5.043554375751189,0.130483521983682
27.802215999999994,5.066274366738938,0.1299489451277053
27.806816,5.095168214146076,0.1293271863463468
27.811404,5.133300775457983,0.1285558587761623
27.815999999999995,5.1755639548656935,0.1277508966902807
27.820592,5.22183556765506,0.1269268425606969
27.825188,5.270316744930788,0.1261039652253091
27.829788,5.31446707613105,0.125404268975875
27.834388,5.35363149623649,0.1248107132072227
27.83898,5.391774297180136,0.124244101400124
27.843576,5.434903009218606,0.1235721599961966
27.848184,5.477909536542929,0.1229210435591486
27.852776,5.521571128886608,0.1222981628482418
27.85738,5.564577656210931,0.1216629629685228
27.861968,5.611015595163072,0.1209469318864593
27.866556,5.660640576314739,0.1201591208690569
27.871148,5.706423450247523,0.1194469924935157
27.875736,5.749796531714283,0.1188176689326938
27.880328,5.790593494552246,0.1182294934477194
27.884916,5.827015469866113,0.1176963866114914
27.889516,5.860206261531828,0.1171893261826748
27.894108,5.891309673425327,0.1166812539328419
27.8987,5.922124574441907,0.1161502798028692
27.903288,5.947420684058454,0.115700320750999
27.907875999999995,5.9706294139027865,0.1152441127299617
27.912472,5.988808091203666,0.1148253120713418
27.91706,6.00412213899883,0.114396774808225
27.921648,6.020169295078869,0.1139186563727326
27.926255999999995,6.041691101110311,0.1133268177324532
27.930836,6.061658407674749,0.1127371887762406
27.935444,6.080970649219831,0.1121466645122993
27.940036,6.096152272669111,0.1115801842674611
27.944636,6.101806671336702,0.1110946031474257
27.949224,6.112691350527405,0.1105147597663449
27.953812,6.118301607746367,0.1099865778919487
27.958408,6.122479550212471,0.109455166144886
27.963004,6.129189469858744,0.1088585385435713
27.967596,6.130703010798793,0.1082496816005966
27.972184,6.130129171966627,0.1076290603757021
27.976783999999995,6.128000833667457,0.1070069114069641
27.981376,6.123418561453636,0.1063929545936222
27.985976,6.114216932287427,0.1058287999679868
27.990568,6.103338618940069,0.1052749213704538
27.995163999999995,6.089351306658702,0.104719685808944
27.999759999999995,6.072665691034393,0.1041871062967188
28.004355999999994,6.057490433428459,0.1036027565406773
28.008952,6.0456244027361965,0.1029514431079471
28.013548,6.033225491738724,0.1022829042427942
28.018136,6.016329408503013,0.1016544035947507
28.022732,5.998778260247946,0.1010133046534961
28.027324,5.977873743630577,0.1003848589283206
28.031915999999995,5.959911899784444,0.0997134612973785
28.036504,5.944526174567109,0.0990187862732466
28.041092,5.923255103807304,0.0984023553700945
28.04568,5.901861848333351,0.0977899372906783
28.050276,5.879569158411754,0.0971827504460144
28.054868,5.85486667602413,0.0966294095930835
28.059459999999994,5.836993115075254,0.0960380298779287
28.064048,5.820551868879235,0.0954550878571359
28.068636,5.80680892602616,0.0948477461934601
28.073228,5.795642101801883,0.0942243049087927
28.077816,5.788972449815845,0.0935628285809088
28.0824,5.780015190077928,0.0929462848139778
28.086996,5.774044744559875,0.0923390737992359
28.091587999999994,5.772082732423479,0.0917290369754328
28.096176,5.77245246948759,0.0911249055892014
28.100767999999995,5.77196691355268,0.0905801833925576
28.10536,5.772669302942337,0.0900634056300138
28.109956,5.776480691266004,0.0895539204684357
28.114536,5.787365370456707,0.0890055551675031
28.119136,5.804057351924364,0.0884488171647908
28.123715999999995,5.8238583323260285,0.0879061090123214
28.128316,5.852898026632462,0.0872967259346739
28.132904,5.887212142910638,0.0866628441132754
28.137504,5.928599550055852,0.0860003334910801
28.142092,5.975261379172806,0.085323576885312
28.146684,6.023722077185055,0.0846387072590408
28.151276,6.0711611560355125,0.0839788467957605
28.155871999999995,6.117578615724176,0.0833379557563025
28.160476,6.169637051527017,0.0826667204217341
28.165068,6.220429498739773,0.0820249844332343
28.16966,6.273920249295472,0.0813810271728726
28.174252,6.335750279308294,0.0806910924509277
28.178844,6.402566220415938,0.079961283536887
28.183432,6.471669769275461,0.0792080866712756
28.188012,6.53860789509725,0.078492513047832
28.192595999999995,6.607589259242629,0.0777650786102833
28.197192,6.6755490042262124,0.0770529875408255
28.201775999999995,6.74477473779988,0.0763288348728855
28.206371999999995,6.811302168030605,0.0756330942032786
28.21096,6.875375664346677,0.0749466737470177
28.215556,6.934174738691008,0.0742824273845474
28.22014,6.983612914416424,0.073684006223932
28.224732,7.031985329531418,0.0730629358633626
28.22934,7.072385019331727,0.0724727078070208
28.233923999999995,7.111352394379176,0.0718823629561445
28.238512,7.152607377178504,0.0712676882559477
28.2431,7.190508991615533,0.0706561599347839
28.247688,7.2267339218714115,0.0700454407595816
28.252292,7.254497387956023,0.0694858870002679
28.256879999999995,7.286591700116099,0.0688820249521222
28.261488,7.313289405590288,0.0682990570765811
28.266072,7.332258755178083,0.0677281333213756
28.270672,7.344276998612987,0.0671688708595774
28.27526,7.35102082007615,0.0666209118983206
28.279864,7.356576696214745,0.0660466693005774
28.284451999999995,7.356858150381599,0.0654806589503328
28.289052,7.35889433199512,0.0648718808439909
28.293636,7.353368483885021,0.0642968373650904
28.298232,7.341424409927242,0.063739998197566
28.30282,7.327148586768957,0.0631700340485394
28.307416,7.317081424971991,0.062562535453114
28.312003999999995,7.310445674802843,0.0619117109536072
28.316596,7.298579644110581,0.0613035747586111
28.321183999999995,7.286713613418319,0.0606910709671664
28.325772,7.264342880231203,0.0601226512023737
28.33036,7.236331170929906,0.0595743629491921
28.334952,7.211017764971556,0.0590197698464376
28.339548,7.182883870956117,0.058470013444409
28.344131999999995,7.154872161654821,0.0579092478614708
28.348724,7.121874541258705,0.0573783371511099
28.353311999999995,7.087078051967292,0.0568445872096047
28.357907999999995,7.049871770209856,0.0563382177605682
28.362488,7.012831814615192,0.0558628807416599
28.367076,6.976202554611595,0.0554075677873874
28.371672,6.941249978789148,0.0549527088116774
28.376259999999995,6.90797408714785,0.0544979528174827
