Time,Force,Position
27.021048,2.5257592147588794,0.1757661138669405
27.02564,2.66331581211368,0.1729026389371518
27.030235999999995,2.7959984434560665,0.1703881476181829
27.034832,2.926383227414835,0.1680683569897437
27.039432,3.04739687312295,0.1662312380703049
27.04402,3.1598166303139124,0.1648758302795785
27.048616,3.2618436300924265,0.1638592796730297
27.053204,3.3534778724584937,0.1631592266984107
27.057787999999995,3.437051106612619,0.1626306657722022
27.06238,3.5138293211448883,0.1621428001896289
27.066984,3.5829130816076527,0.1617143112123118
27.071576,3.6482666799339416,0.161127063206844
27.076164,3.701795206094925,0.1607453482980243
27.080756,3.750327581529346,0.1603214638178337
27.085344,3.788511340999948,0.1600912072819899
27.08994,3.820965841459115,0.1599232027971525
27.094528,3.8555416235073854,0.1596063569604528
27.099124,3.896535631403339,0.1591281935622528
27.103708,3.9420268115375303,0.1585363592330906
27.108296,3.986496372509929,0.1579902933646505
27.112908,4.031620998501683,0.1574634612889687
27.117484,4.080054851407109,0.1568025802136135
27.12208,4.125257520664381,0.1562047544732448
27.126676,4.165963017683414,0.1557431955014465
27.131268,4.2087117530260345,0.1552167459392876
27.13586,4.24655262053935,0.1547783275256093
27.140448,4.288069269108774,0.1541844099430981
27.145048,4.328275787639485,0.1535873808687653
27.149636,4.368926903578151,0.1528873912770748
27.154232,4.413253800572926,0.1520523755000706
27.158815999999995,4.458558175280867,0.1511307079972197
27.163416,4.505617277435475,0.150121096619777
27.168012,4.547524142332486,0.1492000893774997
27.172604,4.587221442743138,0.1482958049571947
27.177184,4.63390375112357,0.1471153935376293
27.18178,4.6769441802647815,0.1459640852286128
27.186367999999995,4.713644426823832,0.1449239362499385
27.19096,4.741961252477131,0.1440452373951736
27.195552,4.769745197825219,0.1431727672546134
27.200136,4.794542328953444,0.1423116753317042
27.204724,4.815575396128304,0.1414770673644138
27.209312,4.83505396383616,0.1406676249440322
27.213896,4.857963943171834,0.139748920289501
27.218484,4.880707596344733,0.1387851913250207
27.223071999999995,4.898665566402474,0.1378715558603761
27.227647999999995,4.921487262840889,0.1368456188264392
27.232244,4.936624744841542,0.1360014896269069
27.23684,4.950207727375189,0.1351671137395913
27.241428,4.960603667709311,0.1344312699530949
27.246024,4.962782513300454,0.1338596410320386
27.250612,4.964061924443951,0.1333084066418917
27.255199999999995,4.964319716425654,0.1327892238721763
27.259796,4.968541800340386,0.1321721294025287
27.264396,4.972886068969262,0.1315430882352552
27.268992,4.977108152883994,0.1309372593494852
27.273572,4.981085867370433,0.1303507930856987
27.278168,4.979833301333761,0.1298981929481577
27.282751999999995,4.978091996440504,0.1294865267439497
27.287352,4.971731334594864,0.1291613195439546
27.29194,4.9706450947209655,0.1287570450689132
27.29654,4.9711133543140695,0.1283430761707349
27.301124,4.968516756421795,0.1280046640652425
27.30572,4.962610931615847,0.1277636638554909
27.310312,4.95838179099105,0.1275044546518745
27.314908,4.959304887623848,0.1271806176982368
27.319496,4.958062561218914,0.1269179350981258
27.324092,4.960784526747008,0.1265668628801316
27.32868,4.968780914246844,0.1261451974574818
27.333268,4.976655117032535,0.1257320671505248
27.337855999999995,4.987349807875313,0.1252652524219889
27.342452,4.995879075680359,0.1248579507712184
27.34704,5.002853844018401,0.1244611495408331
27.351636,5.01354853486118,0.1240062414928271
27.356227999999994,5.03066145155164,0.1234582428217708
27.360816,5.0408674035378365,0.1230530174967673
27.365407999999995,5.056059266618855,0.1225504648706121
27.369996,5.078035909689992,0.1219167744378088
27.374592,5.101278541351212,0.1212408371568611
27.379176,5.128118910803025,0.1205167265288636
27.383764,5.153404780787834,0.1198094940191443
27.38836,5.182288388563233,0.119063512224174
27.392948,5.214481223252304,0.118234464825135
27.397535999999995,5.245363927902663,0.1173897291802217
27.40214,5.272282340619992,0.1166244895385301
27.406728,5.298301318889674,0.1158832055895217
27.411331999999994,5.322643612978204,0.1151576507569537
27.415928,5.3525046984667695,0.1143694333113682
27.420524,5.378890230878889,0.113627499521613
27.425112,5.410383859099975,0.1127933359498835
27.429708,5.443431986788066,0.111962867514357
27.434292,5.480566591123332,0.1110601302871003
27.438892,5.519133510211456,0.1101720799708186
27.443484,5.551570714328818,0.1094067764525879
27.44808,5.57902200735136,0.108742841351285
27.452672,5.60929378843099,0.1080354789224417
27.457268,5.636500712025239,0.1073969186541387
27.461864,5.665628689228929,0.1067433705792662
27.46646,5.695656100880269,0.1060854393341835
27.471056,5.724784078083958,0.1054437284955768
27.475656,5.755466554754653,0.1048102207121952
27.480248,5.782795663063048,0.1042045436552899
27.484832,5.810413282248363,0.1036386660538296
27.489424,5.843060953977128,0.103051496887698
27.494012,5.880572352086569,0.1023998970076324
27.4986,5.916162696586567,0.1017785125461897
27.503192,5.9544513444295095,0.101136013107517
27.507788,5.989020069767715,0.1005503390678808
27.512376,6.024366044839423,0.0999690575506985
27.516972,6.057546596873399,0.0994390993834798
27.521552,6.089294834154516,0.0989056286841033
27.526132,6.1172009642167495,0.0984231364958049
27.530728,6.144574213973774,0.0979298847525804
27.535308,6.174723810339259,0.0973590633302605
27.539896,6.202541657504236,0.0967869205463834
27.544492,6.230848243525796,0.0961863264271353
27.549088,6.256456526204413,0.0956079857452732
27.553692,6.2773232672165,0.0950863104727536
27.558276,6.295369520171497,0.0945941023038768
27.562872,6.311983458373635,0.094094735021912
27.567452,6.324344593765824,0.0936165579008981
27.572044,6.336705729158015,0.0931403588504764
27.576623999999995,6.34697948477799,0.0926477732248719
27.581228,6.355288045339895,0.0921348776048708
27.58582,6.359343803091853,0.0916406607024733
27.590412,6.365154288290478,0.0910900650083671
27.595008,6.368633024288598,0.0905373076557825
27.599592,6.36749240333433,0.0900217987316402
27.60418,6.364020033179559,0.0895016154763757
27.608776,6.358338098538424,0.0889704309995018
27.613368,6.352778348611437,0.0884322088696132
27.617951999999995,6.347707337541033,0.0878634173189839
27.622544,6.338016969518242,0.0873280003949453
27.627128,6.329103851228956,0.0867950512988502
27.63172,6.319291298492019,0.086264132739843
27.636312,6.314098102707469,0.0857028870437293
27.640908,6.309271461065355,0.0851170257639365
27.645488,6.304933558279823,0.0845007820795603
27.65008,6.3046821321414654,0.0838355624681586
27.654668,6.303409086841314,0.0831809776375657
27.659264,6.30393491043646,0.0825154968899405
27.66386,6.304216364603313,0.0818653934037651
27.668448,6.306296687665463,0.0812069804524436
27.673044,6.306089402975734,0.0805883579818869
27.677632,6.308336052200657,0.0799704022282217
27.682236,6.308050724245411,0.0794060257194278
27.686828,6.30956426518546,0.0788339239441571
27.691416,6.31414266361089,0.0782256570906389
27.696012,6.324117668722206,0.0775954421190339
27.700604,6.333726119691086,0.0769867957787416
27.705196,6.3420685820698806,0.0764042558091893
27.709788,6.35364222809683,0.0758305862411607
27.714388,6.371634099971459,0.0752231048141993
27.718968,6.392202090474888,0.0746187917103645
27.723564,6.421475914577874,0.0739532452153895
27.728152,6.443964958690745,0.0733469225730526
27.732748,6.470828990327708,0.0727342665631928
27.737344,6.505787931993502,0.0721034075469999
27.74194,6.5396030697833565,0.071496906208051
27.746528,6.578814814259097,0.0708773872479995
27.751124,6.61994761234428,0.0702517334657048
27.755708,6.661324779857754,0.0696159245365308
27.760304,6.701435958781143,0.0690074731561144
27.764892,6.743468191313974,0.0683903214171106
27.769484,6.7857447932750965,0.0677661781640397
27.774072,6.831086252721599,0.0671190764777501
27.778668,6.877204961901603,0.0664838797142019
27.783256,6.924100920815111,0.0658585882526848
27.787852,6.965355903614439,0.0652667835193746
27.792444,7.008531940023208,0.0646673600860628
27.797032,7.054772833917359,0.064046481699531
27.801632,7.09766035944921,0.0634277932558454
27.806208,7.138093951066408,0.062810464396794
27.810804,7.174030370445367,0.0622094743763663
27.8154,7.201138771510621,0.0616691078077959
27.819987999999995,7.226692673108871,0.0611173724181618
27.82458,7.2515915096877634,0.060562054208549
27.829168,7.263409525143006,0.0600579812405884
27.833756,7.272529237255303,0.0595593996679056
27.838352,7.273309669910478,0.0590868020344635
27.84294,7.268571311165619,0.0586284021410569
27.847532,7.264199506563199,0.0581522232595081
27.85212,7.25671870302677,0.0576547900690214
27.85672,7.246539596147397,0.0571605400084112
27.861308,7.229697893992053,0.0566896304601212
27.865911999999994,7.207992465456032,0.0562414776621133
27.870496,7.1788471919105366,0.0558111706884075
27.875096,7.1477808647556,0.0553877038201966
27.879687999999994,7.118635591210104,0.054953874972939
27.88428,7.08666982960752,0.0545270460939358
27.88886,7.0490630918907575,0.0541147133833285
27.893448,7.009290931136261,0.053718529568524
27.898036,6.966209543468094,0.0533517922030086
27.902632,6.919041679152752,0.0530086838753976
27.907219999999995,6.871873814837411,0.0526617052563143
