Time,Force,Position
27.05692,2.730954485741923,0.1699336873954035
27.066092,3.0516407776396286,0.1696236296813429
27.070692,3.19834462308027,0.1691666281685151
27.07528,3.3415524361809883,0.1677758343733211
27.07988,3.4712923947521395,0.1666515773096131
27.084475999999995,3.585809771347056,0.1658383570587442
27.089076,3.6903789879374793,0.1650693749427748
27.09366,3.7800141334285855,0.1645824547670754
27.098256,3.8589238691816985,0.1641302692598621
27.102852,3.9326269865968486,0.1635048464255575
27.107448,3.997403563169298,0.1628470934483042
27.112044,4.053419925061822,0.1622382327975522
27.116644,4.095523835016825,0.1618104786192164
27.121236,4.130910768615488,0.1613120679287299
27.125828,4.158070367839436,0.1608417281845079
27.130416,4.180844739907552,0.160259443583376
27.135012,4.197234787944876,0.1597181903656392
27.139596,4.212392749209005,0.1591037346146344
27.144192,4.217779116263154,0.1587462512334423
27.148784,4.227496329392768,0.1582201268948156
27.153375999999994,4.236358249523359,0.1577933495075751
27.157968,4.253603590559704,0.1572042993136631
27.162555999999995,4.271792507492324,0.1566732798847523
27.167151999999994,4.29542217255946,0.1560927417173812
27.17174,4.319995413522872,0.1555581484528269
27.176328,4.347922022848583,0.1549573633303489
27.18092,4.378302566088947,0.1543247099246486
27.185508,4.416000769624638,0.153513412425583
27.190096,4.455497842055627,0.1526689976479419
27.194692,4.489764633963501,0.1520067640231421
27.199279999999995,4.52505304503317,0.1513237004787437
27.203876,4.558420402493398,0.1506985139822082
27.208472,4.589622336915891,0.1501443860573372
27.213064,4.620047021604884,0.1496071178022097
27.217652,4.652392759903317,0.1490263912266493
27.222252,4.684616313487605,0.1484615769781394
27.226831999999995,4.7199047245572725,0.1478085247574573
27.231432,4.75212827814156,0.1472584092012196
27.236024,4.78651725476358,0.1466258108398229
27.240612,4.8175528630233,0.1460603127489344
27.245204,4.845601657063157,0.1455178925942634
27.2498,4.871318701902507,0.1450132843146701
27.254404,4.8922500636267,0.1445678440679296
27.258992,4.904431450302705,0.1442868346396814
27.263592,4.913626022758846,0.1440213032370179
27.268176,4.92612982212866,0.1436516893160014
27.272768,4.932704134507375,0.1433735493132234
27.277356,4.935392198218581,0.1431328516126967
27.281944,4.93460470885334,0.1429511128819032
27.286536,4.937493000544208,0.1426294296258133
27.291124,4.937805173606279,0.1423499124327372
27.29572,4.936029966896133,0.1420663053314731
27.300312,4.935642933490218,0.1417197273528174
27.3049,4.934723019779094,0.1413586048470749
27.309492,4.933636779905193,0.1409530517335608
27.31408,4.933283648316169,0.1404847636621141
27.318672,4.932519821136078,0.1399951237642318
27.323256,4.931345298364922,0.1394786355037496
27.327844,4.927961211107406,0.1389661548394089
27.332452,4.9221231899352365,0.1384791466853812
27.337039999999995,4.916285168763068,0.1379907236347865
27.341628,4.905172725619159,0.1375882416720698
27.346224,4.894959716922895,0.137167406802291
27.350815999999995,4.891042749360168,0.1366311742081484
27.355419999999995,4.895587245968709,0.1359220359952476
27.36,4.894612951177217,0.1353225501483648
27.3646,4.9003012516616975,0.1345818818431701
27.369188,4.903701944394299,0.133913532366851
27.373776,4.911721994079284,0.1331599543765316
27.378364,4.918476055174185,0.1324571398499947
27.382964,4.926662431021946,0.1317563305518395
27.387556,4.9409004785749495,0.1309748971484675
27.392152,4.959757883080337,0.1301171133078844
27.396732,4.979148167890936,0.1292806228548278
27.401323999999995,4.994984856359572,0.1285642350346399
27.405912,5.008289567648038,0.1279397936219145
27.410508,5.019184486470482,0.1273993163930965
27.415099999999995,5.0307344703122805,0.1268651955324184
27.419688,5.04923556030697,0.1262449882996927
27.424276,5.076486625349847,0.125518041679619
27.428867999999994,5.108357047345109,0.1247234302235632
27.43346,5.149221813816849,0.1238050196833549
27.438052,5.192662698917389,0.122864352028794
27.442643999999994,5.235326334284426,0.1219453630864787
27.447224,5.270838635518907,0.1211990220793882
27.45182,5.311625358725131,0.1203964190804686
27.456408,5.351023908627124,0.1196601664598556
27.460995999999994,5.394142381033853,0.1188691440005145
27.465592,5.435461984545287,0.1181160379245502
27.47018,5.478580456952018,0.1173474962827501
27.474788,5.522187668215331,0.1165500025387417
27.479384,5.562974391421554,0.1158087764794871
27.483971999999994,5.601962245732482,0.1151060791382577
27.488564,5.640050665595762,0.1144175630655889
27.493164,5.679527258763273,0.1136821456994439
27.49776,5.72219089413031,0.1128823012772608
27.502336,5.763177845316196,0.1120917230623902
27.50694,5.805430785092167,0.1112698352040226
27.51152,5.844208171791692,0.1104973376950355
27.51612,5.878610570967126,0.1097868034610357
27.520703999999995,5.9063503748665855,0.1091746933622106
27.525304,5.926772518470718,0.1086562311149281
27.529888,5.952180573169671,0.1080715154715257
27.534476,5.97296927091624,0.1075421255502627
27.539064,5.996167761128832,0.10695406862967
27.543656,6.014991263817331,0.1064085470377446
27.548248,6.031238647877033,0.1058836664810005
27.552844,6.049773639688612,0.1053178011752097
27.557432,6.068186446786047,0.1047640327781347
27.562016,6.084922569702332,0.1042229134235104
27.566596,6.103457561513912,0.1036721483498408
27.571192,6.120560238572631,0.1031155316001593
27.575784,6.137907285059645,0.1025499575855974
27.580372,6.156642504850888,0.1019482852929574
27.584964,6.176399343803923,0.1013346982522236
27.589548,6.19754435606119,0.1006920615027409
27.59414,6.22391964884157,0.0999707689589087
27.598724,6.251316560783744,0.0992427660982224
27.603316,6.2771589732589135,0.0985175716637711
27.607924,6.293884856543459,0.097865825968265
27.612504,6.313020532294027,0.0971585469981152
27.617107999999995,6.331623327739385,0.0964317137520757
27.621704,6.334979879023359,0.0958722648963486
27.626292,6.343444526116299,0.0952397690727106
27.630888,6.352275727351676,0.0945888675419119
27.63548,6.360696232995989,0.0939134039972821
27.640072,6.370749281372823,0.093186755796682
27.644656,6.374384103901978,0.09251740305968
27.649256,6.375931546658916,0.0918300295857168
27.653844,6.377967728272437,0.0911140306727945
27.658448,6.374729487914218,0.0904290546484852
27.663039999999995,6.372879420860228,0.0897082720406906
27.66764,6.366532181568,0.0890173475709902
27.672232,6.358630442808767,0.088323838393422
27.67682,6.349296389296674,0.0876198876968781
27.681411999999995,6.335342978832196,0.0869519617769802
27.686008,6.316770211415336,0.0863182795831462
27.690596,6.293822456474381,0.0857015053018173
27.695187999999995,6.271774135981072,0.0850775180833701
27.69978,6.259453268249118,0.0843533911892656
27.704364,6.248398389107248,0.083601508600625
27.708952,6.241063432470114,0.0828211573251127
27.713552,6.242800863574977,0.0819283128756519
27.71814,6.237631329975577,0.0811043192636482
27.722732,6.226332081405415,0.0803497809114307
27.727328,6.217364582035759,0.0796024140781106
27.731916,6.208030528523668,0.0788775810800053
27.736508,6.1994737247450775,0.0781509724339319
27.741096,6.192471420433492,0.0774287747344777
27.745692,6.184325312245969,0.0767252368944053
27.750284,6.177855888239595,0.0760171012441912
27.754876,6.173718213433727,0.0753224175327476
27.759476,6.172156657256656,0.0746209023984253
27.764064,6.171127981384797,0.0739376246700457
27.768656,6.171531620265797,0.0732698825931181
27.773247999999995,6.171446520290214,0.072628389610441
27.777836,6.172793735067488,0.0720006608104929
27.782428,6.179293187102359,0.0713675699444233
27.787023999999995,6.18746932331838,0.0707385066181169
27.791619999999995,6.195034535963672,0.0701511491689866
27.7962,6.202888259485886,0.0695990683093648
27.800799999999995,6.211274863313309,0.0690692181683364
27.80538,6.220316532160088,0.0685535408593011
27.80998,6.238963469054076,0.067976832653673
27.814575999999995,6.265416805099973,0.0673434995297156
27.819168,6.292647390879373,0.0667202521598307
27.823752,6.320410856963984,0.0661189231493787
27.828344,6.35447036418213,0.0655060290939526
27.832944,6.390206555581425,0.0649012992755672
27.83754,6.429418300057168,0.0643002813570225
27.842127999999995,6.472472151751791,0.0636839346159299
27.846723999999995,6.510540092351595,0.0631095896473852
27.851316,6.550529086560838,0.062530693176442
