Time,Force,Position
32.776599999999995,4.066812608786474,0.1734950112455421
32.781192,4.338107358462348,0.1702391566598696
32.785779999999995,4.599121295808178,0.1674074216612518
32.790372,4.844379770872564,0.1652236484124495
32.79496,5.070407230579059,0.1636279009109804
32.79954399999999,5.281412336288981,0.1621993331067389
32.804128,5.472653546335802,0.1611345625479237
32.80872,5.651404379566221,0.1600510626918947
32.813308,5.816476890655671,0.1589432697144218
32.817896,5.9659941674433385,0.1579207523884415
32.822495999999994,6.099056775481576,0.1569445947344182
32.827076,6.209412815085477,0.1562087492550418
32.831668,6.307278477872975,0.1554220797239899
32.83626399999999,6.3887675151765615,0.154608025989665
32.840848,6.451592319244355,0.1538462389465656
32.84545599999999,6.494609086200418,0.1531620689911829
32.85004399999999,6.512142938113684,0.1527792487734965
32.85463199999999,6.518917478472063,0.1524947967988671
32.859227999999995,6.521028520429428,0.1522531340642728
32.86382,6.521951617062226,0.1519985237993141
32.86841599999999,6.51849972617093,0.1518078453092511
32.873016,6.515780943564509,0.1515662373374374
32.87761199999999,6.506477608947635,0.1513964951036135
32.882192,6.494676198967478,0.1512079211210233
32.886784,6.484873885862282,0.1509288151657538
32.891376,6.475926865756105,0.1505904262831719
32.89596799999999,6.47000056168668,0.1501395364787422
32.90055999999999,6.458799835645514,0.1497637360975752
32.90514799999999,6.442979752651962,0.1494652695466879
32.909727999999994,6.423928486010257,0.1491962755530889
32.91431599999999,6.407942076853932,0.1488593860021539
32.91891599999999,6.4019274898872505,0.1483162768392673
32.923511999999995,6.392070795701686,0.1478451460078995
32.92809999999999,6.3800486784783885,0.1474241293281178
32.93268799999999,6.373956048246188,0.146931639794607
32.93727599999999,6.374037274433378,0.1463508061373188
32.941876,6.376328065106929,0.145757828869535
32.946464,6.376331248028601,0.1452299496112274
32.95105999999999,6.374701888217751,0.1447683321411209
32.95565199999999,6.378224765664497,0.1442464794204221
32.960236,6.382158338702308,0.1437425531111743
32.964831999999994,6.392920833178866,0.1431649843268437
32.96941599999999,6.410390064380023,0.1425178752785252
32.97402399999999,6.431623359534544,0.1418550636206254
32.97861199999999,6.452656426709403,0.141255073602467
32.98320399999999,6.4746330697805385,0.1406905619375923
32.9878,6.497064549891366,0.1401965755225161
32.99237999999999,6.524159528403208,0.1396740434923963
32.99698,6.556040190030208,0.1391177678213453
33.001568,6.591562730896428,0.1385552031197235
33.006156,6.629172651534864,0.138004187678207
33.01075199999999,6.661307922221896,0.1375862679806345
33.015336,6.697451626290583,0.1371406377579139
33.01993199999999,6.74312255514096,0.1365907488121972
33.024516,6.784707007344164,0.1361257904951523
33.02911199999999,6.826047090119077,0.135685349086376
33.033696,6.870452030379368,0.1351875450618273
33.0383,6.915878589801453,0.1346752864980408
33.042892,6.9601613453476,0.1341901673815192
33.047492,7.0022786778560135,0.1337628103744697
33.05207199999999,7.046972128993225,0.1333099756941954
33.05666,7.083981365692671,0.1329841659430931
33.061248,7.120213352658616,0.1326699586612583
33.06584,7.157711328214645,0.1323282635456613
33.07043199999999,7.198640715398493,0.1319162757330712
33.07502399999999,7.2389150375629825,0.1315035740045164
33.079608,7.27481437220338,0.1311355209207739
33.084208,7.311324630414504,0.1307358227719585
33.08879199999999,7.343704270529827,0.1303674473335453
33.093376,7.374773780606437,0.1299927382595812
33.097976,7.403878095624976,0.1296115700539735
33.102552,7.434614953376037,0.1291795197170671
33.10714799999999,7.464652604659115,0.1287096103384716
33.111736,7.489127323093531,0.1282737988263199
33.116324,7.516622757564699,0.1277533380946148
33.12091999999999,7.538433074473059,0.1272657158063762
33.12550799999999,7.558156011609206,0.1267748039717814
33.130096,7.572848896201904,0.1263193087042837
33.134691999999994,7.588519258507766,0.1258097148863226
33.139284,7.596461264927235,0.1253622309749362
33.143876,7.603581880164573,0.1248806322863556
33.14847199999999,7.609514550077344,0.1243810392858844
33.153068,7.608373929123078,0.1239484987161733
33.157648,7.603879939806513,0.123540481177975
33.162248,7.590269421299322,0.1232306458186266
33.16682799999999,7.5762482072010675,0.1229023196307805
33.17143599999999,7.565003339711272,0.1225000855905565
33.176027999999995,7.553225591916268,0.1220871166981872
33.180624,7.543491082444849,0.1216417089225697
33.185208,7.534900376849369,0.1211741992951002
33.189795999999994,7.52324481376851,0.1207529956688798
33.194388,7.511589250687649,0.1203322369733197
33.19898399999999,7.495480656817178,0.1199923850961783
33.203572,7.480804377699567,0.1196553576847032
33.20816799999999,7.461430698364052,0.1194120732250172
33.212752,7.446065452410195,0.1191520849040632
33.217336,7.432909770942698,0.1188929776021156
33.221923999999994,7.426827380342237,0.1185732207481848
33.22652,7.423076738942284,0.1182496155973179
33.23111599999999,7.425377769247573,0.117879757797962
33.235696,7.429766179325079,0.1175206503437586
33.240295999999994,7.440983510841329,0.1171182257478706
33.244888,7.46005138295812,0.1166565136924111
33.24948399999999,7.481573188989564,0.1161861294689196
33.254072,7.51196715478334,0.1156413356250667
33.25866,7.543671250615828,0.1151109041195684
33.26327199999999,7.577995606525743,0.1146072126579157
33.26785999999999,7.610687419703136,0.1141533768577887
33.272472,7.647509850976331,0.1136867605571845
33.27706,7.683721358678798,0.1132551641124372
33.281652,7.724185669191212,0.1128003411187131
33.286235999999995,7.766082294456486,0.1123554135189778
33.290828,7.812720461388289,0.1118605005434957
33.295432,7.859480813034239,0.111365534340931
33.300024,7.910205456613217,0.1108227003786701
33.30461999999999,7.962851153801635,0.1102648734365848
33.30920799999999,8.013575797380613,0.1097314402563348
33.313808,8.060458333740709,0.1092449375255555
33.318392,8.107218685386657,0.1087725060184935
33.322996,8.15806551367978,0.1082564865671922
33.327588,8.207235657791754,0.1077540759855841
33.332176,8.2490881416084,0.1073133365759049
33.336763999999995,8.290407745119833,0.1068687195151971
33.34135199999999,8.330050664450118,0.1064344613944996
33.34596,8.3655629656846,0.1060182595601503
33.35055599999999,8.400542386613871,0.1055943700477606
33.355152,8.432657178037426,0.1051641738544834
33.35975199999999,8.464116904441623,0.1047283138582477
33.364344,8.489524959140576,0.1043267670104218
33.36892799999999,8.513989437943254,0.1038977922492428
33.37351999999999,8.537265971421364,0.1034555468222126
33.378111999999994,8.55539026764188,0.103038317623103
33.382704,8.573758933290685,0.1026129932309213
33.387296,8.5885298611489,0.1022119999661965
33.39189199999999,8.601746289540108,0.1018130675239665
33.39647999999999,8.609688295959577,0.101443354396328
33.401076,8.617996856521483,0.1010571287692581
33.405656,8.628593024835267,0.1006386605869117
33.41025199999999,8.635958009500897,0.1002273212974334
33.414843999999995,8.639480886947643,0.0998524421452134
33.41943199999999,8.640960526070803,0.0994997544574626
33.42404,8.648569880164724,0.0990820337177444
33.428628,8.653358746201556,0.0986878085543743
33.43322399999999,8.658025427524244,0.0982995382900803
33.437812,8.664368793028078,0.0979070127628122
33.442395999999995,8.668546735494182,0.0975417784325733
33.44699599999999,8.669537635760758,0.0972132815818671
33.451587999999994,8.676413881569806,0.0968343890937631
33.456184,8.684067377112354,0.0964551280420212
33.46077599999999,8.693031002693617,0.0960885952314673
33.46538399999999,8.702649693294235,0.0957301777788748
33.469964,8.718564425028388,0.095338717872351
33.47455999999999,8.732435918438954,0.0949696126000398
33.47914799999999,8.7527256376972,0.0945641776139031
33.483748,8.773670421974803,0.0941663721734009
33.48833199999999,8.802832300995382,0.0937242369275005
33.49291999999999,8.833670864197114,0.0932810864251826
33.49751199999999,8.86426505797055,0.0928528653738366
33.502108,8.897191000944497,0.0924293457582363
33.50671599999999,8.92909532475665,0.092017344249501
33.511312,8.964963940501827,0.0915744563199144
33.515899999999995,8.998789317923421,0.0911556564847741
33.520496,9.032492510630863,0.0907433073596012
33.525084,9.07195886416664,0.0902955763130027
33.529672,9.112202467435912,0.089852119629127
33.53426,9.155510928190564,0.08938306100978
33.53885599999999,9.20572635364948,0.0888628486575458
33.54344799999999,9.249034814404132,0.0884005947406642
33.548032,9.296185382377669,0.0879155178884078
33.55262799999999,9.344357569513,0.0874251100933437
33.557208,9.39085307246718,0.0869409738376301
33.56180399999999,9.43399520705906,0.0864670154576552
33.566388,9.47942494940282,0.0859693392017688
33.570975999999995,9.517537031451251,0.0855092566489746
33.575572,9.556137852356263,0.0850327076860419
33.580155999999995,9.589342066575387,0.0845828472486407
33.58476,9.623812269384604,0.0841197752293425
33.589347999999994,9.656727972726806,0.0836567712875734
33.593928,9.686290307706711,0.0831988394026261
33.598532,9.716341381543202,0.0827233280486847
33.60311599999999,9.742916902303245,0.0822589782182798
33.607712,9.767815738882137,0.0817979581135916
33.61229199999999,9.789483391812876,0.0813345370007602
33.616892,9.80113508110534,0.0809122567077222
33.621475999999994,9.811598825073242,0.0804742409457157
33.626079999999995,9.820752439002426,0.0800254870860032
33.63066799999999,9.823365642369785,0.0796081604273018
33.635259999999995,9.82863300763146,0.0791519131661803
33.63984799999999,9.83181299312092,0.0786831730593725
33.64443599999999,9.831761794962228,0.07821225454846
33.649027999999994,9.827335609279436,0.0777488460105662
33.653624,9.82111055470135,0.0772904280848361
33.658207999999995,9.812065012066176,0.0768453784368316
33.66279599999999,9.808127565239973,0.0763637409842649
33.66738399999999,9.80316849925197,0.0758901895198503
33.671975999999994,9.794856064901673,0.0754161973218631
33.676568,9.780003219989547,0.0749687138911884
33.68116,9.76232988702033,0.0745320010893781
33.685752,9.744656554051115,0.0740936155660815
33.69034399999999,9.724040548310668,0.0736703716351609
33.694944,9.70366891199851,0.0732366268198931
33.69952399999999,9.683419460400495,0.0727970726023294
33.70411599999999,9.667012116021368,0.0723371596068608
33.708712,9.653425259699327,0.0718628345941177
33.71329199999999,9.638816784215496,0.0713948965913058
33.71789999999999,9.621920700979786,0.0709489377082345
33.722484,9.610665593858252,0.0704806984595348
33.727072,9.59969899761364,0.0700339245399193
33.73166799999999,9.586200424188856,0.0696181301683819
33.736252,9.573723469925866,0.0691945146123421
33.74084799999999,9.56664312234876,0.0687576438595716
33.74543599999999,9.561239458952809,0.0683209490278994
33.75003999999999,9.557879033880443,0.0678716738904819
33.75462,9.54941051299911,0.0674544943640494
33.759212,9.53914312322248,0.0670402527006809
33.763804,9.533250720969944,0.0666208289093931
33.76839999999999,9.532999294831583,0.0661814822763419
33.772984,9.529927380636142,0.06574852989125
33.77757999999999,9.531719192821372,0.0652943588203886
33.782183999999994,9.537475296939627,0.0648198150002146
33.78678399999999,9.544663715810746,0.0643568696411763
33.791384,9.55250719970122,0.0639020471442142
33.79597599999999,9.563704051953994,0.0634533647455233
33.800564,9.57849864199736,0.0630001000453302
33.805152,9.59701315454546,0.0625394072324859
33.809744,9.618225970436503,0.0620754216243237
33.814332,9.633675625499228,0.0616340956055942
33.81892,9.649614019418532,0.0611769799083831
33.82351599999999,9.669516705270864,0.0607028150931502
33.82810399999999,9.6909738905902,0.0602370614943685
33.832688,9.713452695071332,0.0597688438955174
33.83728,9.7362980536949,0.0592891248932659
33.841863999999994,9.756200739547232,0.058822744306218
33.84645199999999,9.780067717332592,0.0583396649705454
33.85103999999999,9.807776802336836,0.0578460779411277
33.855624,9.834708637607578,0.0573515070741845
33.860216,9.858942169535377,0.0568620781256325
33.864804,9.895479272853326,0.0563429193780143
33.869396,9.92433216173351,0.0558484521764327
33.873991999999994,9.947177520357076,0.0553798545610679
33.878572,9.96564789145655,0.0549103962912468
33.88316799999999,9.98141995921308,0.0544426723392028
33.887747999999995,9.988852747512489,0.0539897243737874
33.892351999999995,9.990766744411864,0.0535445044407858
33.896932,9.981931669388093,0.0531341222221401
33.90152799999999,9.970520475735524,0.0527206173190363
33.90611599999999,9.960375270673042,0.0522916829833452
33.910712,9.941402047296856,0.0518902800780697
33.915304,9.913722990321109,0.0515124277063509
33.919896,9.883101260574126,0.0511435017331676
33.924484,9.843773697227585,0.0507973534426187
33.92907999999999,9.797172615034343,0.050485869762879
