Time,Force,Position
28.188056,3.223942148781332,0.1579911738703583
28.192636,3.412749904176976,0.1573532411616129
28.197224,3.5882561312058265,0.1568551673825736
28.201816,3.748295406830151,0.15662266328953
28.206396,3.899696652488696,0.1563356430377669
28.210988,4.049410974334351,0.1558086154557585
28.215584,4.189099092909995,0.155431973973568
28.22018,4.322236561292074,0.1550189117680221
28.224776,4.445836565260725,0.1546247359098797
28.229364,4.561087050140515,0.1542719666581211
28.233956,4.664556604303627,0.1541317036574414
28.238544,4.762374942720822,0.1539369611361024
28.243144,4.852376642354367,0.1537727760015118
28.247732,4.933540084042468,0.1536809546859971
28.252332,5.009174494698799,0.1535300765308083
28.256924,5.077603190142208,0.15335754635204
28.261516,5.142834603754353,0.1531182473011547
28.266099999999994,5.20544575728907,0.152883402481801
28.270692,5.264703542461488,0.1527259322121505
28.275292,5.3267479138741045,0.1526492405522017
28.279888,5.398241466802896,0.1524731996705708
28.284476,5.478529136228502,0.1522054741136358
28.289072,5.566178607398064,0.1518583757835541
28.29366,5.66016826114979,0.1514453240409901
28.298248,5.756900359693087,0.1510357301333326
28.302836,5.845948243798619,0.150794180741642
28.307432,5.935529008209364,0.1505678488975231
28.312028,6.026742315352628,0.1502826601366423
28.316616,6.120243230247769,0.1499432291913857
28.321203999999994,6.212556199818348,0.1495928337363853
28.325792,6.30609101653038,0.1491608909672858
28.330383999999995,6.399459507079639,0.1487052420120178
28.334972,6.493028225608562,0.1481931287373225
28.33956,6.58728591097373,0.1475998245815755
28.344164,6.680189324851554,0.1469752483537126
28.348752,6.772393532261398,0.1463222892669795
28.353344,6.859401360965015,0.1457089555928898
28.357935999999995,6.944399853161935,0.1450656599412565
28.362524,7.021137109167249,0.1445101317104264
28.36712,7.089324618104039,0.1440201752644672
28.371711999999995,7.158567648019512,0.1434378793855912
28.376316,7.2222036036376975,0.1428663915442467
28.380896,7.28059903910103,0.1422871205209599
28.385496,7.333876139123656,0.1416826258493551
28.390083999999995,7.384078142029162,0.1410149645241945
28.394676,7.437378904236938,0.1402040926969575
28.399268,7.483640277394566,0.139389312278051
28.403864,7.524705271845972,0.1385985082430232
28.408456,7.555954530638769,0.1378854903714337
28.413052,7.58507226821072,0.1371347093356787
28.41764,7.607194758181153,0.1364217163383043
28.422236,7.623221434997714,0.1357349320941344
28.426824,7.635073352269844,0.1350453570010744
28.431416,7.636620795026782,0.134455516852006
28.435996,7.63428198911621,0.1338861929808759
28.440584,7.625236446481036,0.1333731039299961
28.445172,7.614470078216086,0.1328354804867934
28.449763999999995,7.595975354064741,0.1323690633095354
28.45436,7.577558673178913,0.1318544908581032
28.458952,7.5579540469685185,0.1313230471152528
28.463544,7.530787391034504,0.1308941117338028
28.468136,7.502843485366987,0.1304661047190949
28.472719999999995,7.468114799709352,0.1301342194030436
28.477308,7.435062798232868,0.12978575748329
28.481891999999995,7.4015220578998,0.1294621864784278
28.486487999999994,7.367492578710151,0.1291631468877079
28.491076,7.338248782635661,0.1288384207248096
28.495664,7.30671737880929,0.1285592821413334
28.50026,7.282137081135812,0.1282143612665694
28.504848,7.259399793806258,0.1278877834369591
28.509443999999995,7.236706647925332,0.1275987620715781
28.514032,7.217122500978415,0.1272975352727506
28.518628,7.196316506890041,0.127065502984913
28.523208,7.1838939337074175,0.1267701145503477
28.527808,7.169716633078125,0.1265332346458369
28.5324,7.162368253887579,0.1262389856826014
28.536992,7.156862885040957,0.1259652389679175
28.541576,7.156798264328851,0.1256725732836089
28.546167999999994,7.163196010913054,0.1253469756195352
28.550776,7.173768517041688,0.1250350719294893
28.555372,7.188227271837832,0.1247107779637956
28.55996,7.20620572115905,0.1243979545813418
28.56456,7.229624918614783,0.1240650292057993
28.569151999999995,7.251944453643205,0.1237974460948216
28.573736,7.274552499548546,0.1235568397010078
28.578323999999995,7.296427437169014,0.1233596964073021
28.582912,7.318713070380549,0.1231826122288508
28.5875,7.349870863354415,0.1229239444634369
28.592096,7.380662102185842,0.1226895781794784
28.596688,7.409410102693686,0.122488091174293
28.601271999999994,7.446375197944504,0.1222018115646818
28.605864,7.485794227109974,0.1219073175876864
28.610456,7.530076982656121,0.1215490554211987
28.615047999999994,7.574604107630559,0.1211838883915925
28.619644,7.623750589557381,0.1207692615699496
28.624232,7.669054964265321,0.1204072878584571
28.628828,7.711538850916172,0.1200788516995077
28.633416,7.755410910871254,0.1197207683242077
28.63802,7.796584667483392,0.1193944185609338
28.642608,7.8356710443233135,0.1190622025426284
28.647196,7.874224540858027,0.118721462983632
28.651804,7.910568472906378,0.1183830404756924
28.656396,7.950343816582546,0.1179863417376169
28.660992,7.99277332215303,0.1175332853871967
28.66558,8.035569381865951,0.1170635209330777
28.670179999999995,8.080897418759042,0.1165451163226429
28.67476,8.127202933365298,0.115982481224663
28.67936,8.166435157104516,0.1154814904675213
28.683944,8.204235066090877,0.1149798512656944
28.688548,8.242645898647964,0.1144484918937504
28.69314,8.277947732271045,0.1139313731928251
28.697736,8.310262751674262,0.1134177614542353
28.70232,8.344987563543503,0.1128691297484802
28.706916,8.37815787594574,0.1123278231207625
28.711504,8.409118623861616,0.1117870658103003
28.716096,8.44044592591993,0.1112295093774524
28.720688,8.473039216568328,0.1106475520332968
28.725272,8.504855257483221,0.1100729323624499
28.729852,8.537937286988202,0.1094801195976539
28.734448,8.576005227588006,0.1088389793620405
28.73904,8.614317537616099,0.1081903404439693
28.743632,8.65017591372954,0.1075503452513539
28.748228,8.681659302318888,0.1069408930037163
28.752807999999995,8.709544953117645,0.1063600677615452
28.7574,8.736775538897044,0.1057764007571724
28.761987999999995,8.760408386885853,0.1052203909839296
28.76658,8.783674680732224,0.1046861192779539
28.771184,8.810005832063975,0.1041199042090843
28.775772,8.837358602557522,0.1035448270604154
28.78038,8.86548862278457,0.1029720882261067
28.784972,8.890553785526237,0.1024354491563009
28.789559999999994,8.91627401328726,0.1019067513593724
28.794152,8.936108895505814,0.1014375075145767
28.798744,8.954022724114926,0.1009859054923978
28.803335999999994,8.971936552724037,0.1005356739516833
28.807916,8.98985038133315,0.1000864670408444
28.812515999999995,9.011484132447,0.0996141831992392
28.817091999999995,9.028254157180172,0.0991847073017594
28.821692,9.039505390513316,0.098792943723216
28.826284,9.042950224694543,0.0984707566086502
28.830884,9.045495624428126,0.0981544933886347
28.83548,9.052660381114093,0.0978087264429781
28.840072,9.061501821981208,0.0974589494636622
28.844668,9.070221078134178,0.0971143812138855
28.849264,9.082660256791886,0.0967475420521339
28.853852,9.093955631573657,0.096395555558639
28.858448,9.106394810231365,0.0960312648612212
28.863036,9.1121713936131,0.0957154794391077
28.867632,9.115904738671247,0.0954200302627255
28.872208,9.123724560376576,0.0950879148813998
28.876796,9.134487054853132,0.0947326856795506
28.88138,9.142673430700892,0.0943862016956329
28.88596,9.15314741430053,0.0940108561163954
28.890547999999995,9.164520832347815,0.0936312919125247
28.895136,9.177937488718689,0.0932346832313884
28.899728,9.192375764251356,0.0928299568068589
28.904315999999994,9.20436010586937,0.0924314001739257
28.908904,9.222229793029854,0.0919880194448323
28.913495999999995,9.24291996824743,0.0915265218050256
28.918084,9.26871823927397,0.0910194349503965
28.922688,9.294516510300513,0.0905140079332744
28.92728,9.316472674108166,0.090037818446449
28.931872,9.338673207344115,0.0895541302540446
28.936476,9.363572043923009,0.0890601699238454
28.941075999999995,9.381930469940077,0.088605803838008
28.945668,9.404375372604315,0.0881172438409054
28.950247999999995,9.420279864706732,0.0876664308866059
28.954848,9.44080371376153,0.0871895920090932
28.959436,9.461816301672911,0.0866930465026512
28.964032,9.47514467514653,0.0862493210510922
28.968619999999994,9.486796364438993,0.0858101244540773
28.97322,9.49922530346496,0.0853716450344182
28.977812,9.50936663473905,0.0849611894548824
28.982408,9.519752335441432,0.0845417139674144
28.986996,9.526950993944286,0.0841538372819844
28.991588,9.531329164390051,0.0837816063009782
28.996188,9.530721423740996,0.083445909588689
29.000784,9.526515945301348,0.0831248994688497
29.005376,9.523209901309349,0.0828009731870379
29.009968,9.516961184546114,0.0824972388365407
29.014556,9.513532955839969,0.0821797983914615
29.019144,9.509205292686172,0.0818648632731039
29.023731999999995,9.502956575922935,0.0815613007674018
29.028324,9.491189067759668,0.0812811083690383
29.03292,9.483019297386992,0.0809877071470803
29.037512,9.474605157586025,0.0807048855236849
29.042103999999995,9.468889321128,0.0804115811991603
29.046692,9.467137776603009,0.0800929431670302
29.051283999999995,9.469639034887962,0.079770282330777
29.055876,9.474960781230005,0.0794334790329336
29.060464,9.479138723696106,0.0791093433170824
29.065072,9.49087869588583,0.0787508154793823
29.06966,9.505805710275077,0.0783662325100593
29.074268,9.520610539950182,0.0779874498058561
29.078855999999995,9.53937966155831,0.0775853822819943
29.083459999999995,9.561990890385328,0.0771643768007421
29.088048,9.592286333650105,0.07670480304988
29.092648,9.624136276381892,0.0762509630700687
29.097248,9.65418735021838,0.0758039532020454
29.101836,9.682073001017134,0.075375117671768
29.106432,9.70419549098757,0.0749767685518729
29.111016,9.731181707338678,0.074553889063407
29.115612,9.76303165007046,0.0741083783352548
29.1202,9.802810176668304,0.0736181408826485
29.1248,9.842833072694434,0.0731217879061863
29.129388,9.883999772596509,0.0726192313395758
29.133987999999995,9.928353514698104,0.0720948308964266
29.138572,9.967066280685524,0.0715964372483721
29.143164,10.004102362491796,0.0711031143808808
29.147752,10.040116825136272,0.0706174336835173
29.152348,10.079073960551984,0.0701189200153908
29.156935999999995,10.110469066244072,0.0696548920306803
29.161532,10.139943118326723,0.0692022239994872
29.16612,10.171338224018816,0.0687439438093315
29.170704,10.199135591920315,0.0682958602971805
29.175292,10.225256275640666,0.0678497866545597
29.179891999999995,10.246635417694485,0.0674239995370289
29.18448,10.268258929176596,0.0669915284868654
29.189072,10.293602363163446,0.0665502489346414
29.193664,10.32405389295926,0.0660800012089157
29.198252,10.3594913338499,0.0655855286150601
29.202848,10.39006504835986,0.0651141041460764
29.207436,10.412710179003762,0.0646820368222537
29.212028,10.432290452162286,0.0642709789636774
29.216624,10.452892344482605,0.0638568440446214
29.221204,10.469529944869892,0.0634627470673949
29.225792,10.486700425562397,0.063082859118379
29.230388,10.508612447921424,0.062689719552574
29.234976,10.529747220546952,0.0622962123797112
29.239571999999995,10.558566207610244,0.0618801840715684
29.24416,10.587507379387684,0.0614633433252051
29.248756,10.617714539755209,0.0610342039033185
29.253347999999995,10.649598384303884,0.0606092146610961
29.257943999999995,10.681360044138412,0.0601913251844861
29.262524,10.714920572868238,0.059773079822954
29.267128,10.749136166617417,0.059363997047754
29.271716,10.784373379528391,0.058951148532273
29.276312,10.818833342705863,0.0585375300618068
29.280896,10.85071718725454,0.0581255398875273
29.285488,10.88374483567915,0.0577089307907716
29.290076,10.914973615208469,0.0572965688809659
29.294672,10.95028887138496,0.0568671618506756
29.299264,10.989812788922771,0.0564149405975448
29.303856,11.02663840311764,0.055966311854198
29.308448,11.057945225912473,0.0555267317565618
29.313032,11.090762406725686,0.055068359474166
29.317623999999995,11.120226219176596,0.0546069754492608
29.322216,11.14609229383692,0.0541503865709793
29.3268,11.163619089040116,0.0537048497357675
29.331388,11.164345140614923,0.05328677424333
29.335984,11.156609728018466,0.0528830552255756
29.340568,11.141190100984238,0.0524957965288438
29.34516,11.117553379207038,0.0521142802652073
29.349756,11.0868433665628,0.0517300338226267
29.354344,11.051513996966175,0.0513497897182783
29.358936,11.00874478236008,0.0509775088940383
29.363527999999995,10.959312972478012,0.0506161787529879
29.368123999999995,10.902074763444032,0.0502735304276249
29.372716,10.835353471076989,0.0499450690544111
29.377316,10.755839868463214,0.0496523356804739
