Time,Force,Position
28.774212,4.471067461189481,0.1738920789011129
28.7788,4.756118576271841,0.1707397940055046
28.7834,5.019196231204737,0.1685693822711272
28.787996,5.268517520731147,0.1666859203937502
28.792576,5.502816456260985,0.1651184490255755
28.797176,5.723603395812627,0.1636655849813708
28.801764,5.922783429357244,0.162460750846285
28.806363999999995,6.102644164646714,0.1614475900966675
28.810956,6.266250459166414,0.1605006960700476
28.81556,6.412947247896992,0.1595789497420345
28.820148,6.53823735860021,0.1587259791705667
28.824748,6.645474159638361,0.1578890828077818
28.829328,6.731959347668507,0.1571345807390526
28.833924,6.801535029909529,0.1563619102159846
28.838511999999994,6.852891076322715,0.1555503152396451
28.843108,6.880308467528369,0.1548675005456261
28.8477,6.884730779422762,0.1543283021085101
28.852292,6.869599663265457,0.1539603499027705
28.85688,6.846651908324502,0.1536080937379151
28.861467999999995,6.812211733543787,0.1533779877563081
28.866056,6.777683275865817,0.1530548823446591
28.870648,6.742044916128796,0.1526643355831073
28.875243999999995,6.705418839046871,0.1521970512653981
28.879836,6.663063502953513,0.1517397809588237
28.884432,6.616655592029868,0.1512722573796097
28.889019999999995,6.56313024879056,0.1508619635920225
28.893612,6.511726187140354,0.1503495632134215
28.8982,6.456191507394347,0.1498799228070599
28.902788,6.391129602866651,0.149540689347073
28.907396,6.322592145262509,0.1492414748084127
28.911976,6.254176872372512,0.1489336002703049
28.999232,5.474253608034034,0.1488584107631589
29.00382,5.500568153890701,0.1488210707553611
29.008404,5.533511393206451,0.1487619837117457
29.013003999999995,5.5748821948765785,0.1486504414708328
29.017592,5.624680558901086,0.1484879657703738
29.022192,5.685682831888431,0.1481793102695896
29.026784,5.754579786924944,0.1478123990408176
29.031372,5.831615793438916,0.147360803837512
29.035964,5.917157405572785,0.1468124536123469
29.040552,6.011448992754839,0.1461462902784369
29.045144,6.106561971119025,0.1455503477412377
29.04974,6.205272687273803,0.1448988323168493
29.05432,6.310279444562117,0.1441726594540056
29.058924,6.418761754926876,0.143419103817091
29.063512,6.530064553348724,0.1426292710677234
29.0681,6.644310024541807,0.1417833469750386
29.072692,6.755690866229172,0.1409690725002607
29.077292,6.865517208449534,0.1401754134941783
29.081888,6.972234551735887,0.1394200339697619
29.086479999999995,7.08005155744955,0.1386219339075712
29.091083999999995,7.18459323806643,0.13781662396381
29.095664,7.285981778300674,0.1370109950231654
29.100264,7.381685200972111,0.136259912797019
29.104844,7.470393376042029,0.1355547677508312
29.109448,7.553372292100511,0.1348653999646133
29.11404,7.625147299196155,0.1343035947621575
29.118635999999995,7.694912969785101,0.1337116440740257
29.123228,7.762014238847992,0.1330807711691829
29.127824,7.819666326394712,0.1325073987068224
29.132411999999995,7.868235786567697,0.1319683533875715
29.137004,7.907722619366946,0.1314557230493897
29.141604,7.938781889811817,0.1309695180252027
29.1462,7.957693675397573,0.1305602537828294
29.150776,7.969321702504889,0.1301571879307416
29.155372,7.972766536686118,0.1297670037658699
29.15996,7.972403165465355,0.1293482254969706
29.164559999999994,7.964267296909568,0.1289568626852962
29.169148,7.949747104322991,0.1285557076303949
29.173739999999995,7.927576599115539,0.1281738977937354
29.178335999999994,7.895468173535331,0.1278565283781978
29.182924,7.8620054764677825,0.1274902357708527
29.187515999999995,7.823757096285075,0.1271431940447077
29.192104,7.783255010167378,0.1267568319590024
29.1967,7.742175902295841,0.1263181489663888
29.201296,7.699786664385591,0.1258672612717024
29.205876,7.659396523350301,0.1253431001094082
29.210472,7.606414300047941,0.1249426739083767
29.215056,7.547258220326191,0.1245932900703931
29.219643999999995,7.491044813375676,0.1241975465690563
29.224239999999995,7.436630275320456,0.1237776657153427
29.228832,7.38209355255109,0.1233605561150567
29.233428,7.333197805895905,0.1228705046665314
29.238015999999995,7.289576481212459,0.1223284905144419
29.242616,7.244322613796492,0.1218324189783451
29.247204,7.20205556060039,0.1213302256244388
29.251804,7.160077018281204,0.120849466403189
29.256392,7.122761974363032,0.120352449096673
29.260991999999995,7.092808732188817,0.1198128465735868
29.265588,7.067274618987323,0.1192712696348912
29.270188,7.045915265330262,0.1187428746263377
29.27478,7.024644194570455,0.1182937036495782
29.279376,7.0080366222116615,0.1178321979865355
29.283964,6.997524863006739,0.1173627805295255
29.28856,6.990821309203812,0.1169321204245576
29.293147999999995,6.9828959082594295,0.1165700665634254
29.29774,6.978123647697682,0.1162422320434581
29.302328,6.987908664461074,0.1158088046964525
29.306916,6.999703017731162,0.115428991051305
29.311504,7.010930588879152,0.1151266184296558
29.3161,7.0253113004097765,0.1148610229285869
29.320692,7.048730497865511,0.1145523833712589
29.32528,7.07644663957982,0.1142621113081819
29.329864,7.106005791638053,0.113999041620349
29.334452,7.144314918744474,0.1136709201166832
29.339044,7.187531913680198,0.1133268228573502
29.343636,7.236800580321168,0.1129481276138908
29.348223999999995,7.288156626734351,0.1125830914618234
29.352816,7.339678999310309,0.1122582820428567
29.357403999999995,7.397497413019802,0.1118859085019846
29.362008,7.462100606719412,0.1114431531162475
29.366596,7.531811896227989,0.1109370519872338
29.371184,7.598458328251186,0.1104770208504629
29.37578,7.662284272217295,0.1100516471996129
29.380372,7.728642193363574,0.1095836133692437
29.384968,7.801784894499969,0.1090440678832407
29.389548,7.872473661721712,0.1085167582886927
29.394148,7.939031810847656,0.1080178074636802
29.398728,8.014906717143885,0.1074038931589755
29.403327999999995,8.094457404496223,0.1067270165421281
29.407924,8.171143462342844,0.1060455807060091
29.412524,8.245619955703106,0.1053731044633547
29.417108,8.31686526541521,0.1047193340052473
29.421704,8.388721498698041,0.104045179386653
29.426292,8.455547679437423,0.1034008151283804
29.430884,8.519387045956945,0.1027611700549906
29.435476,8.577052556057076,0.1021653275572923
29.440059999999995,8.636717163032163,0.1015217433701153
29.444652,8.693639325215681,0.1008669095347493
29.449236,8.747696857893484,0.1002126869203509
29.453816,8.79096117719951,0.0996287579323381
29.458416,8.829972693695584,0.0990676527183638
29.463007999999995,8.869839503190683,0.0984694682121833
29.467596,8.91146104013245,0.0978324481965283
29.472188,8.943188798150091,0.0972543284655188
29.476776,8.968987069176631,0.0966997302569391
29.481372,8.999360555706929,0.0960870569666343
29.485964,9.026380673874923,0.0954854868414485
29.490556,9.04285194809944,0.094936910434665
29.49516,9.055070419514006,0.0944048891513385
29.499748,9.06573439146157,0.0938715412052317
29.504355999999994,9.07316717976098,0.0933431115032339
29.508952,9.076713719392878,0.092811474785172
29.513556,9.07792850982427,0.0922801126254004
29.518152,9.080164919417454,0.0917403669406455
29.52274,9.079580840953549,0.0912191249798301
29.527344,9.079118947203789,0.0906920892994555
29.531935999999995,9.07097283901626,0.0902207072844868
29.536528,9.060128427485791,0.0897608746168385
29.541115999999995,9.04724077763174,0.0893205101482577
29.54572,9.040893538339509,0.0888396635518663
29.5503,9.033402495171336,0.0883730603594594
29.5549,9.029631374507906,0.0878873676461669
29.559487999999995,9.022917581073235,0.087424633816817
29.564088,9.024543067095692,0.0869157252328637
29.568676,9.030787910070533,0.0863840033029603
29.573268,9.031680287808111,0.0859092909847744
29.57786,9.031428861669752,0.0854466770979669
29.582456,9.036207488074844,0.0849770527685553
29.587044,9.04164117949929,0.0845143821056582
29.59164,9.051816412590272,0.0840253709300031
29.596228,9.060725657091163,0.0835546289942102
29.600815999999995,9.072866085240213,0.0830853710212794
29.605404,9.083496155370884,0.0826455092707176
29.609984,9.094004040787407,0.0822126817777931
29.61458,9.10631079509923,0.0817731449224012
29.619172,9.118617549411054,0.0813336655150982
29.623764,9.133622607065822,0.0808825747560288
29.628347999999995,9.153124836958826,0.0804160100517855
29.63294,9.171483262975894,0.0799636126301119
29.637528,9.185999581774077,0.0795353764317347
29.64212,9.19973865083876,0.0791048242453822
29.646716,9.20477188630388,0.078728327788685
29.651295999999995,9.209560752340714,0.0783617344182843
29.655888,9.213327999215752,0.0780058431598615
29.66048,9.213375323586051,0.0776681185831395
29.665071999999995,9.214810821260585,0.0773077072706288
29.669667999999994,9.222786729496942,0.0769182450995553
29.67426,9.231906441609238,0.0765191547949418
29.678856,9.239227284826242,0.0761255364293846
29.683443999999994,9.24323890112957,0.075766358670009
29.688036,9.2472505174329,0.0754061495613974
29.69262,9.250607068716874,0.0750398652964955
29.697224,9.258172281362167,0.0746404162479928
29.701816,9.265082428988103,0.0742351378700711
29.706412,9.274035814937626,0.073817045745379
29.710995999999994,9.288097296696115,0.07336575632156
29.715592,9.30828849342537,0.0728755666988354
29.72018,9.32655863654518,0.072397121222182
29.72478,9.343029910769694,0.0719220873436311
29.72938,9.365386530536677,0.0714174643662721
29.733976,9.391585257522546,0.0708965947483707
29.738564,9.42354714533674,0.0703479049206546
29.743151999999995,9.45755227147452,0.0697874200386701
29.74774,9.487715290393414,0.0692465324834771
29.75232,9.517633939884018,0.0687156386556169
29.756916,9.546286600784535,0.068202196170275
29.761508,9.571341523894466,0.0677007081789142
29.766104,9.591654905337863,0.0672202546823566
29.770692,9.612989905943056,0.0667332831344484
29.775292,9.635835264566625,0.0662233608495385
29.779868,9.664565968732662,0.0656872930305965
29.784456,9.692807934042117,0.0651712811668554
29.789064,9.717085607418545,0.0646789003082032
29.793648,9.739975107490736,0.0642073521380058
29.798244,9.7606991845252,0.0637550704760293
29.802831999999995,9.77594861160826,0.0633494705474809
29.80742,9.782003466235176,0.0629991395282952
29.812016,9.789079940023884,0.0626438751305597
29.816616,9.802941193802711,0.0622621622116876
29.821208,9.811039286753216,0.0619037381523236
29.825792,9.81799357582778,0.0615572846941418
29.830392,9.823926245740552,0.0612174772020267
29.834979999999995,9.829858915653324,0.0608789888480954
29.83958,9.836813204727887,0.0605344631214715
29.844159999999995,9.843889678516598,0.0601854024061784
29.84876,9.85006671785766,0.0598369291957853
29.853352,9.853423269141633,0.0594957920465905
29.857948,9.858456504606757,0.0591567184126825
29.86254,9.868109097024266,0.0588098525136728
29.867135999999995,9.875596266404042,0.058479004029944
29.871724,9.88128456688852,0.0581528234318804
29.876324,9.890159909572526,0.0578081979553143
29.880916,9.897891448380593,0.057472592629719
29.885507999999994,9.907910594940535,0.0571186969113953
29.890088,9.917274676481124,0.0567573256050778
