Time,Force,Position
28.16556,3.9024626213422287,0.1639824667863419
28.170156,4.198761786836055,0.1613802638085176
28.174744,4.477750990581432,0.1594915765802325
28.17934,4.743272339797241,0.1579612145603818
28.183936,4.992016607569813,0.1567323997317907
28.188531999999995,5.223617239756707,0.1558144782211915
28.19312,5.4440817666145405,0.1548641372764488
28.197712,5.649279570047511,0.1540912641521322
28.202312,5.836512346712675,0.1534475221030495
28.206908,6.003203977981235,0.1529562898702648
28.2115,6.156427754720228,0.1524869525862871
28.289564,6.672119320618131,0.1520112297201944
28.294152,6.653821641524776,0.1519838678514309
28.298752,6.638911232610612,0.1518215288399651
28.303356,6.620603313885519,0.1516535214077189
28.307936,6.599797319797146,0.1514649943404541
28.312532,6.579191553688435,0.1512162924605873
28.31712,6.559563265292891,0.1509005273560266
28.32172,6.539113585715215,0.1505447195443304
28.3263,6.514899842184176,0.1502073776731451
28.3309,6.488354349452629,0.1498860000036318
28.335484,6.458822042501218,0.1495765253175822
28.340072,6.423115879130419,0.1493556861191381
28.344668,6.395582669053969,0.14895056135126
28.349252,6.370581436157688,0.1484632934079219
28.35384,6.344925138242051,0.1479703274605658
28.358436,6.317347786716971,0.1475114830197144
28.363024,6.290792054353686,0.1470267215849338
28.367608,6.258717530590367,0.1466343105980558
28.3722,6.231917428798789,0.146161187255332
28.376796,6.2079819565129295,0.1456798799860134
28.381392,6.184457179818135,0.1452166135635041
28.385991999999995,6.16122091400026,0.1447800482624128
28.390576,6.137540050774429,0.1444222912784677
28.395164,6.114025513711373,0.1441004575494619
28.399764,6.091332367830446,0.1438177908595552
28.404343999999995,6.074079970084034,0.1434969475446886
28.408936,6.060225082148551,0.1431840294494493
28.413532,6.049889888738142,0.1428708028027826
28.418119999999995,6.048715365966986,0.1424594753277983
28.422728,6.054902644939785,0.1419775508692673
28.427316,6.066164117904664,0.1414869840736376
28.431904,6.084665207899355,0.1409347013515934
28.436499999999995,6.0990017779813535,0.1405315914157952
28.441092,6.119189791788932,0.140119661619897
28.445688,6.145473618750382,0.1396793238224298
28.450268,6.179241432169933,0.1391730811181689
28.454864,6.221270481781089,0.138597402873037
28.459444,6.269395344546119,0.137993861043387
28.464044,6.313600056826747,0.1375161916172793
28.468627999999995,6.359525594737155,0.1370729769062636
28.473232,6.414078922981604,0.136535849262612
28.477816,6.470719630998269,0.1360121238051795
28.482408,6.531080261519669,0.1354381272221967
28.486996,6.595449325422727,0.1348398362892256
28.491592,6.663416127116377,0.134205698995632
28.496188,6.731138559381734,0.1335977943501936
28.500784,6.800126980237177,0.1329678154458607
28.505364,6.868871031664328,0.1323634497796517
28.509952,6.935694029482039,0.1318034368220139
28.514528,7.00276139672804,0.1312425722012319
28.519124,7.069051514240539,0.1306913583727706
28.52372,7.134930936161973,0.1301330417459529
28.528308,7.200277477778196,0.1295624710889619
28.5329,7.26419170464156,0.1290019216448097
28.537488,7.328061790056298,0.1284114955416005
28.542084,7.385635834337498,0.1279028219202188
28.546664,7.436136587751664,0.1274738832255261
28.551252,7.488103557735578,0.1269716208493626
28.555848,7.543990678203891,0.1263746876984926
28.560432,7.592760366356537,0.1258060758401995
28.56502,7.636866556108172,0.1252641787250932
28.569616,7.678885366087591,0.124722439854447
28.574212,7.718572426866504,0.1241949537655601
28.578807999999995,7.755517042853844,0.1236613151795325
28.583403999999994,7.787309421583589,0.1231728867034129
28.588,7.818036039702913,0.1226666842390022
28.592588,7.846308723907583,0.1221793507987108
28.597179999999994,7.871716778606537,0.121689451933758
28.601768,7.894382388513919,0.1211910297053345
28.606368,7.912917380325499,0.120718931015711
28.610964,7.928465557917216,0.1202485735759215
28.615556,7.940660367146632,0.1198010142256533
28.620152,7.953588284660921,0.1193158346768587
28.624744,7.962385584079409,0.1188534703695205
28.62934,7.964764657650216,0.1184545916426875
28.633931999999994,7.965711416468164,0.1180519897595742
28.638524,7.969190152466281,0.1175951076119821
28.643116,7.966661358207785,0.1172200111317169
28.647707999999994,7.963110944787494,0.1168613788692726
28.652296,7.966100941929031,0.116434599901538
28.656884,7.968191504622919,0.1160167632382982
28.661463999999995,7.967461579259717,0.1156282149506422
28.666059999999995,7.962234481658277,0.1152771307354696
28.670652,7.957007384056837,0.1149261462002796
28.675248,7.951125221436039,0.1145691749961184
28.679828,7.944221439653448,0.1142264513575572
28.684424,7.933719920080266,0.1139131810038797
28.689012,7.926816138297676,0.1135704308927647
28.6936,7.919301432944357,0.1132583866711946
28.698204,7.913341227058042,0.1129440853840604
28.702796,7.91097875896232,0.1126006253197507
28.707404,7.912091843943043,0.1122355272598251
28.711991999999995,7.915536678124272,0.1118695265146381
28.7166,7.920902565914943,0.1114829076507712
28.721191999999995,7.9357515370386755,0.1110036431090624
28.72578,7.952399377057702,0.1105102192657576
28.730384,7.968558478220148,0.1100443028108515
28.734972,7.987660252153827,0.1095460877228749
28.739564,8.00381935331627,0.109082484558661
28.744148,8.016913596993335,0.1086592587724822
28.748748,8.029885655956255,0.1082432361623694
28.753336,8.044778768528616,0.1078075056853343
28.757936,8.067888975843951,0.1073082660298518
28.762519999999995,8.091776432892791,0.1068110061302105
28.76712,8.119139443018074,0.106295617233353
28.771716,8.14650245314336,0.1057819067734892
28.776312,8.176685951325734,0.1052424758523256
28.780904,8.203027342289225,0.1047439639307701
28.785492,8.23537626350933,0.1041829985291679
28.79008,8.267847369443583,0.1036193975008957
28.794675999999995,8.298397421768394,0.1030778694945717
28.799264,8.32432811714082,0.1025748170896339
28.803847999999995,8.345639455560859,0.1021096408862728
28.808428,8.370548531771492,0.1016252942501717
28.813028,8.385974524649063,0.1012254588386746
28.817612,8.40344375585022,0.1008050516729679
28.822196,8.422956225374966,0.1003652796883416
28.826788,8.443123759919068,0.0999343383123877
28.831368,8.463413479177314,0.0994974958721723
28.835964,8.487545305654445,0.0990297670550295
28.840551999999995,8.51179931684572,0.0985579636939042
28.84514,8.537197131912936,0.0980719657850327
28.849748,8.559119393903705,0.0976074453780156
28.85434,8.579120602285032,0.0971599645485248
28.858923999999995,8.601287233704094,0.0966909515273803
28.863516,8.624597668999094,0.096208156634108
28.868103999999995,8.650728592351182,0.0957089164645437
28.872696,8.679924373188651,0.0951809065857581
28.877275999999995,8.703234808483652,0.0947082442940787
28.881872,8.723846940435706,0.0942504943498435
28.88646,8.747401745158998,0.0937711788078586
28.891056,8.77479865710117,0.0932637645337004
28.895644,8.805915491548083,0.0927336693812157
28.900244,8.832412969042608,0.0922356196776105
28.904836,8.865328672384813,0.091701010539668
28.909431999999995,8.897877821584583,0.091187115184737
28.914024,8.929527536336705,0.0906830797501884
28.91862,8.963464858840705,0.0901555263718063
28.923207999999995,9.001122103849443,0.0896091516013267
28.927803999999995,9.038002099124675,0.0890678941696161
28.932396,9.080400885799945,0.0885040399698451
28.936988,9.124354171942215,0.0879479083379501
28.941576,9.168962523103849,0.0874027522438941
28.946168,9.219456219807943,0.0868198437492003
28.950759999999995,9.262920767093632,0.0862964842497781
28.955355999999995,9.308961433008118,0.0857731375864329
28.959948,9.351815056723078,0.0852844949616049
28.964535999999995,9.395568114885688,0.0847983271595339
28.969128,9.442263845819529,0.0842941554896539
28.973716,9.494722737581698,0.0837585728727227
28.978311999999995,9.547958879077372,0.0832323348283769
28.982896,9.601317205287186,0.0827070039993278
28.987483999999995,9.655286455067731,0.0821640622230968
28.992092,9.710277324010068,0.0816147978152617
28.99668,9.7637136934854,0.0810677815472795
29.001276,9.817760986531464,0.0805027904368931
29.00586,9.868210541786931,0.0799526072534184
29.010452,9.910198632871133,0.0794455981229366
29.015048,9.951653843650124,0.0789333430608218
29.019639999999995,9.990288566372024,0.0784372323519284
29.024235999999995,10.019806759903302,0.077977007500251
29.028824,10.046993204234072,0.0775144206914633
29.03342,10.07172571465019,0.0770526796234731
29.038011999999995,10.089795629790338,0.0766260054021553
29.042608,10.11321801016774,0.0761549246764364
29.0472,10.127646046068673,0.0757099322069153
29.051787999999995,10.141008321359177,0.0752427722545629
29.056384,10.14603131719256,0.0748069655109464
29.06098,10.146024260482497,0.0743723499731642
29.065556,10.140498412372391,0.073958100588022
29.070152,10.1272442083759,0.073551448183863
29.07474,10.111536070464751,0.073142896901306
29.079336,10.089820402296992,0.0727695331727846
29.083924,10.067449669109871,0.072388580627523
29.088511999999994,10.040703948398658,0.072012555677145
29.0931,10.009094501306771,0.0716595880517571
29.097691999999995,9.976829989195528,0.0712974665831229
29.102284,9.946730900122017,0.0709145429155641
29.10688,9.908947596610744,0.070564285086354
29.111472,9.870509228080111,0.0702049559383036
29.116052,9.831948674835331,0.0698472495423743
29.120639999999995,9.789423829657526,0.0695090870567757
29.125224,9.747021169193864,0.0691641731502043
29.129812,9.705107247586785,0.0687984500471512
29.134404,9.65473186180844,0.0684606760372959
29.138991999999995,9.609875267430125,0.0681039164368367
29.143595999999995,9.56759479168061,0.0677438227448841
29.148188,9.532876345654714,0.0673530609108194
29.15278,9.504087386619918,0.0669621635342956
29.157371999999995,9.477219481194563,0.0665616505941889
29.161967999999995,9.45333838998907,0.0661746758922284
29.16656,9.4271696910317,0.0658075279335657
29.17114,9.407541402636154,0.0654187808017131
29.175732,9.391510852031203,0.0650238444718893
29.180312,9.380510353969704,0.0646324260916548
29.184908,9.371186540089347,0.0642411121550604
29.189499999999995,9.367914397914236,0.0638489452145219
29.194092,9.370693927444371,0.0634564935757372
29.198671999999995,9.381934921145774,0.0630370635785583
29.203268,9.400249205714212,0.062614047543711
29.207856,9.42726932388221,0.0621585096491245
29.212452,9.458009364554943,0.0616926570262087
29.21704,9.489404470247036,0.0612361388408528
29.221636,9.524030759587284,0.0607905183068133
29.226223999999995,9.572515119784685,0.0603165527186022
29.230812,9.62357559861088,0.0598476810039693
29.235404,9.674269523294642,0.0593958146120081
29.239992,9.726517947445409,0.0589563847930655
29.244584,9.775945883539084,0.0585277802643364
29.249171999999994,9.827827753547414,0.0581090952310635
29.253768,9.883673915488773,0.0576764054383012
29.258356,9.94516105354431,0.0572319514492695
29.262952,10.000885030771522,0.0568080917626785
29.267536,10.054565769675149,0.0563991917901277
29.272116,10.108613062721208,0.0559815686539618
29.276703999999995,10.163804159643208,0.0555564499475572
29.281288,10.21359864987932,0.055138779173562
29.28588,10.258773783163049,0.0547318237696869
29.290472,10.303704547018484,0.0543380222914276
29.29506,10.3395187816833,0.0539572007811152
29.29966,10.366382813320264,0.0536127117438951
29.304248,10.39426846411902,0.0532652168784653
29.308848,10.421132495755982,0.0529231432812006
29.31344,10.445176039335855,0.0525879647104751
29.318031999999995,10.455650022935494,0.0522933491694558
29.322616,10.463547887906335,0.0519972612180454
29.327208,10.468747449534233,0.0517024134254748
29.3318,10.4658521011333,0.0514107758975119
29.336383999999995,10.459359014941771,0.0511195126581536
29.340976,10.446325518188422,0.050838310522912
29.345572,10.427773230035038,0.0505625745117482
29.350164,10.402436161891536,0.0503043952874568
29.354748,10.38118557039521,0.0500279761310067
29.359328,10.35135133001347,0.04976788072142
29.36392,10.313588505765672,0.04953250160765
