Time,Force,Position
30.466676000000007,3.711280375221982,0.1521908381646974
30.471304000000003,3.884278287255813,0.1518746672474193
30.47594000000001,4.04540698567571,0.1515592890500932
30.480580000000003,4.195321535501028,0.1512690452360561
30.48521600000001,4.335043555893562,0.1509601826062306
30.489852000000013,4.4646952315674575,0.150560610002722
30.494496,4.5870970505798025,0.1500643971401932
30.499128000000013,4.699717035750428,0.1496084684550175
30.50375600000001,4.800756318184038,0.1492533294442669
30.508388,4.891647212633491,0.1489537395270419
30.51302000000001,4.9755767612983135,0.1485926862188424
30.517660000000006,5.048869183122399,0.1483290518372753
30.522288000000003,5.110092163352885,0.1481724299982548
30.526936000000006,5.166397036122329,0.1479040764193257
30.53157999999999,5.211287532317532,0.1477344553868597
30.53622000000001,5.250570954215444,0.1475851546140771
30.540864,5.286501007751057,0.1474929708071741
30.545512,5.326483636116953,0.1474185418023643
30.55014,5.373261284104709,0.1473622274824997
30.56404000000001,5.551255346865108,0.1473109154273809
30.56868399999999,5.619728183757146,0.1473057639653157
30.573312000000016,5.6968288109832255,0.1471870531335868
30.577944,5.776794067715021,0.1470657075067995
30.58258800000001,5.865509299495005,0.1468218142113868
30.587223999999992,5.956678465189642,0.1465739288259538
30.591856000000007,6.047070381150777,0.1463313346046839
30.596499999999992,6.138361731559558,0.1460803467726615
30.60112799999999,6.234516808349018,0.1457417539379704
30.605772,6.329894635404975,0.1454140615272396
30.61041600000001,6.428948243517041,0.1449798957355947
30.61505199999999,6.528857144628127,0.1444897605109566
30.619696000000005,6.62937696930994,0.1439866727452914
30.624324,6.735082933066238,0.1433441659025608
30.62894800000001,6.832649845345078,0.1427801658962385
30.633588000000003,6.925386933060132,0.1422201184068994
30.638216,7.013827076516609,0.1416779159762912
30.642852000000005,7.098214645142799,0.1411322503940525
30.64748399999999,7.179160562509434,0.140551438230613
30.65212400000001,7.256542643902367,0.1399295541223393
30.656756,7.333958627112189,0.1392235054506028
30.661387999999988,7.406011905453012,0.1385089462747534
30.666024,7.463752275896989,0.137938903737761
30.670663999999988,7.515108322310173,0.1373707218471758
30.6753,7.554561253292532,0.1368848598026313
30.679932000000008,7.583787753025219,0.1364611089513221
30.68458000000001,7.610349851231851,0.1359858784016511
30.68920399999999,7.628850941226542,0.1355233986726432
30.693852,7.641212076618733,0.1350507897805005
30.69849600000001,7.647066703265987,0.1345815105384484
30.70313200000001,7.646414821168304,0.1341182172504446
30.707784000000004,7.640400234201623,0.1336332855525547
30.71242000000001,7.62403703127112,0.1332064564858702
30.717048000000005,7.592217116567833,0.1329218726095039
30.721679999999992,7.561330538129082,0.1325393897188358
30.72630799999999,7.525780461289318,0.1321742854526375
30.730940000000004,7.4860556249051236,0.1317971091773741
30.73557600000001,7.4428110939958545,0.131411339231188
30.740216000000004,7.391838207200191,0.1310924052498666
30.744856,7.342253493708759,0.1307297951100229
30.749496,7.284940424330932,0.1304337600817408
30.75413599999999,7.228771158829045,0.1301066453176397
30.758768000000003,7.17705492411677,0.1296861816979438
30.763416000000007,7.126482493280434,0.1292368393067035
30.768044000000003,7.075421323587515,0.1288138609209991
30.772687999999988,7.024893034199807,0.1283994549537067
30.777332,6.974653255689018,0.1280062955536907
30.781972,6.929976410026889,0.1275810115923376
30.78662,6.885099336385099,0.1272068186136265
30.79126,6.8471733688962,0.1267620074382805
30.79588799999999,6.808924988713489,0.1263775644956814
30.800524,6.774484813932775,0.1260251127510072
30.805152,6.743852844554052,0.1257064988920303
30.809784000000008,6.726634348624532,0.1252830671404124
30.814424,6.712080254221064,0.1249199050340392
30.819060000000007,6.70554302658091,0.1245157371655503
30.82369600000001,6.703713438790397,0.1241377220157231
30.82833199999999,6.709534163620761,0.1237438224201188
30.832968,6.7273801885960935,0.1232928586224733
30.837604,6.744537246735182,0.1229288240257355
30.842244,6.7738417897333845,0.1225017966765383
30.84687600000001,6.804134050076492,0.1221513326989819
30.85152,6.83774577696501,0.1218689992395189
30.85615200000001,6.876187328417315,0.1216104525518173
30.860796,6.929430526623051,0.1212297614992889
30.86543599999999,6.9944105140968365,0.1207779625525601
30.870068000000003,7.06254364195326,0.1203603404363867
30.87469999999999,7.136117517944198,0.1199404112611677
30.879332000000005,7.214354892336149,0.1195158203643642
30.88396,7.2943130923578785,0.1191346751140016
30.8886,7.381999648266001,0.1187009654516805
30.893236,7.473161757250571,0.1182494877016379
30.897864,7.570742092082821,0.1177385404735821
30.902504,7.669099676648572,0.117246518993016
30.90713600000001,7.768601065090264,0.1167407921819456
30.911772000000013,7.866303584636659,0.1162620485717733
30.916416,7.965927157792495,0.1157689102405432
30.921048000000013,8.063996231481328,0.1152920190999768
30.925688000000008,8.157279622055002,0.1148411633976587
30.930328000000003,8.253094989808845,0.1143400879451377
30.934956,8.341304186390442,0.1138878937789407
30.939604000000003,8.432289729580496,0.1133793434228105
30.944248000000016,8.524863674054446,0.1128002981842333
30.948880000000003,8.61763784650806,0.112186197653069
30.953524000000016,8.699208109998832,0.1116554335973576
30.958152000000013,8.773416571745653,0.1111634234152645
30.962784,8.844594077823977,0.1106373502602951
30.967424,8.90775471713899,0.1101376343599225
30.97205600000001,8.964697358585985,0.1096482355574657
30.976688,9.014400383003167,0.1091802642553494
30.98133200000001,9.060828082323573,0.108696661710349
30.985964,9.098994545452369,0.10824426578814
30.9906,9.128366892084353,0.1078132076329594
30.99523600000001,9.14857856807708,0.1074186860737722
30.99987200000001,9.167435972582467,0.1069859931634954
31.004504,9.18289586727693,0.106535375406981
31.009143999999992,9.189439460760427,0.1061057342798993
31.013776000000007,9.19054230610941,0.1056798154509233
31.01842400000001,9.185837849181445,0.1052717827215736
31.02306000000001,9.180434185785488,0.1048282283125875
31.02770000000001,9.177029619264497,0.1043302462136926
31.032340000000005,9.165119447123605,0.1038669496147408
31.03698,9.14613598411568,0.1034423026507147
31.04161200000001,9.12110084940251,0.1030447781216708
31.04624000000001,9.096554453545922,0.1026244045167202
31.05086800000001,9.067755254879383,0.1022186943244426
31.055504000000013,9.04112147925058,0.1017848523581296
31.06013999999999,9.01383263860242,0.1013432188171278
31.06476800000001,8.98486711377311,0.1009041943033909
31.069412,8.956801023391451,0.1004576008280299
31.07404400000001,8.92399339134326,0.1000464191707365
31.078676,8.89220737845686,0.0996217198478097
31.08332000000001,8.860832061161528,0.0992104813042371
31.08796000000001,8.830111808885547,0.0988021808636972
31.092592,8.793794721944021,0.0984673768393611
31.09723199999999,8.755722907555825,0.0981741098786783
31.101856,8.726645437644109,0.0978262161793171
31.106504,8.69875591305696,0.0974935146768855
31.11114800000001,8.6770402448892,0.097128426369619
31.11578,8.652670414827124,0.0968108383736328
31.12043600000001,8.628344726213678,0.0965255126463167
31.12506400000001,8.608027470981888,0.0962353946937809
31.12969200000001,8.594539137188844,0.0959212492873761
31.134323999999992,8.585181421491601,0.095598317631923
31.138948,8.578033270280718,0.0952827771217572
31.14359200000001,8.576037356327433,0.0949486621499324
31.148236,8.573186149375127,0.0946534382349374
31.152864,8.570501268585595,0.0943847966551705
31.15749600000001,8.57182482117772,0.0941135654784952
31.162136000000004,8.57662392684629,0.0938292842174516
31.16677200000001,8.585675835324805,0.0935327803051862
31.171408000000014,8.602822653832154,0.0931970790430378
31.17604800000001,8.628186567082476,0.0928176849542474
31.180679999999995,8.660090890894628,0.0923984350077774
31.18531999999999,8.69943505971625,0.0919337886845449
31.18994800000001,8.748384496585082,0.0914032632592764
31.19460000000001,8.794146891254387,0.0909136387311156
31.199228000000005,8.841952524247281,0.0904069220333902
31.20385999999999,8.88873653807838,0.089914328454913
31.208504000000005,8.940794973881221,0.0894065822176662
31.213132,8.996040451883589,0.0888724974206335
31.21776399999999,9.054350787371336,0.0883158838087559
31.2224,9.111883873125583,0.0877664818446121
31.227024,9.169539143593974,0.0872178528228444
31.231668000000013,9.22425174129113,0.0866931796935597
31.236312,9.279330893130725,0.0861596252061321
31.240948000000003,9.335798218274547,0.0856067283273731
31.245584000000008,9.399172508122632,0.0850074013459108
31.250224000000003,9.461236667932006,0.084397871086719
31.25485599999999,9.52558843549326,0.0837704488184112
31.259488000000005,9.589940203054512,0.0831488720038005
31.26412400000001,9.64865099450159,0.0825656410146779
31.268752000000006,9.702986798424572,0.0820026673092244
31.273392,9.752458875966878,0.08147479331923
31.27802,9.795512727661505,0.0809762753361105
31.282668,9.829982930470717,0.0805299568313993
31.287299999999988,9.865841306584151,0.0800650597101504
31.291936,9.905541789916477,0.0795844186435047
31.296584,9.945486642677093,0.0790975564676464
31.30121600000001,9.979502008446609,0.0786203523596972
31.305844000000008,10.006732594226005,0.0781837245839079
31.310480000000013,10.031264876662458,0.0777586037700108
31.31510800000001,10.050278367698882,0.0773555892142925
31.31973600000001,10.066471370678215,0.0769665815600804
31.32437999999999,10.084951981409429,0.07655472095169
31.329008000000016,10.102943853284057,0.0761637731341872
31.333640000000003,10.116971433225658,0.0757976153879891
31.33828800000001,10.127401275376668,0.0754446960734048
31.34292400000001,10.143227724213563,0.0750793882872831
31.347556,10.15574494613679,0.0747462149196513
31.352195999999992,10.166707668593013,0.0744102752006798
31.356828000000007,10.176770956601583,0.0740768545853645
31.36147600000001,10.184791006286572,0.0737574742906443
31.366119999999995,10.194976479009288,0.0734209021237656
31.370756,10.209004058950889,0.0730664483266596
31.375395999999995,10.224053258054283,0.0727048407182836
31.38002800000001,10.237181403548238,0.0723538625009026
31.38466,10.239682661833193,0.0720531084679686
31.38929999999999,10.239363432061054,0.0717632235850478
31.393932000000007,10.23867764814648,0.0714857206024878
31.398564,10.240812352288996,0.0711969738824284
31.403203999999988,10.24564535977446,0.0709033242780571
31.407832000000013,10.256119343374095,0.0705893394138192
31.412476,10.269535999744967,0.0702616733575331
31.417103999999995,10.282830471401695,0.0699398308724607
31.42173600000001,10.294692628305569,0.069610086778325
31.426364000000007,10.311662881018403,0.0692506049495827
31.43100000000001,10.330432002626535,0.0688899974306719
31.435632,10.343437963406345,0.0685549945949793
31.44027600000001,10.354767240005003,0.0682196920908593
31.444904000000008,10.363931093565927,0.0679005872655037
31.44955200000001,10.376037619898089,0.0675688112932859
31.45419200000001,10.392763503182634,0.0672260498446916
31.458824,10.409367201753032,0.0668891025102515
31.46346800000001,10.426215269751724,0.0665454503238636
31.468096000000003,10.446905444969298,0.0661887636214184
31.472736,10.467229066044435,0.0658454527545366
31.477368000000013,10.49458183653798,0.0654655713435372
31.48199600000001,10.525776714250409,0.0650729534895059
31.486628,10.5631013069336,0.064649166588221
31.491264,10.60349075710217,0.0642117202373186
31.495892,10.639260850318353,0.0637875373179175
31.500524000000013,10.669512152134503,0.0633771465351674
31.50515200000001,10.697065150607717,0.0629726436131512
31.509784,10.722042030452124,0.0625688066070963
31.51442399999999,10.743298987791798,0.0621737969246545
31.51906400000001,10.76071383791259,0.0617939160163806
31.523708,10.773753700509284,0.0614171885192964
31.528344000000004,10.788181736410213,0.0610234930797027
31.532972,10.800278023110636,0.0606199894412282
31.537620000000004,10.81568353672473,0.0601934364527095
31.54225600000001,10.829290181443527,0.0597707404004992
31.54689200000001,10.836845154457082,0.059348170158098
31.551544000000007,10.84092457439419,0.0589253124536835
31.556172000000004,10.843082940721857,0.0585089968757527
31.5608,10.842787373134874,0.0580889544975525
31.565439999999995,10.841059490795027,0.0576581816307573
31.570067999999992,10.841252662064624,0.0572238333817933
31.574700000000007,10.841568018048369,0.0567876127368245
31.579343999999992,10.834199159594345,0.0563733457845804
31.58398,10.820534260006788,0.0559635424485531
31.588616,10.805847741257436,0.055556635585958
31.593264000000005,10.792960091403383,0.0551471276267615
31.59789599999999,10.777374138206383,0.0547376772970094
31.602528000000007,10.763709238618826,0.054322388823033
31.60718,10.75172102321242,0.0539079492171627
31.61181200000001,10.73781175419657,0.0534971452214114
31.61645999999999,10.719693823819403,0.0531055123971882
31.621100000000013,10.69977702454694,0.0527138349788757
31.625732,10.682314159189128,0.0523270182126696
31.63037600000001,10.658965948288843,0.0519570005742056
31.63500400000001,10.632797249331476,0.0515906979952334
31.639636,10.605118192355729,0.0512423347305908
31.64426800000001,10.578094200399336,0.0508997708343216
31.648896000000008,10.549026970119357,0.0505641819124847
31.653532000000013,10.514851644030411,0.0502480148206141
