Time,Force,Position
31.333396,1.1825289067440925,0.1067416601199034
31.337979999999995,1.162676728183734,0.1058464505104389
31.342576,1.1458894071087562,0.1046822378347588
31.347172,1.1319225740908674,0.1033337143774585
31.351768,1.1188551755206264,0.1019172665742709
31.356356,1.0993695511027053,0.1008259883100499
31.360952,1.080661176418286,0.0997086520832238
31.36554,1.0559452714772513,0.0941616226817647
31.370124,1.0330282354315123,0.0885623249730059
31.374704,1.0050031035768057,0.083124773325387
31.5033,1.01372485178473,0.0819308026143796
31.507888,1.0270941837853018,0.0815091631655903
31.512484,1.0452050574524046,0.0808636527348586
31.517072,1.0671580383383898,0.0799721991999715
31.52166,1.0882115847767275,0.0791568709465256
31.526247999999995,1.105178654567891,0.0786471100096946
31.530843999999995,1.130485003816177,0.0777966239060124
31.53544,1.1566907875121102,0.076980827379879
31.54002,1.1773777798080107,0.0764461433371826
31.544612,1.1999858257133529,0.0758985986243097
31.549192,1.21376585330499,0.07576216641476
31.553796,1.2321652378490122,0.0754837405551254
31.558384,1.2459452654406495,0.0753598873175332
31.562968,1.259603108318141,0.0752625725155557
31.567564,1.2735053206239235,0.0751066108920243
31.572143999999994,1.2895729559674394,0.0748076235529723
31.576736,1.3057627760251007,0.0744775981906452
31.581332,1.3147571205015791,0.0742962925428265
31.585919999999994,1.3254281491592077,0.0741105750398377
31.590516,1.3373651664069213,0.0737916938033633
31.595108,1.3505681722447194,0.0733544850554578
31.599708,1.364914981958457,0.072841202156769
31.604299999999995,1.3727213811103682,0.0725287894618655
31.6089,1.3799948999570684,0.0721473609041128
31.61348,1.3845701154608252,0.0718114280788788
31.61808,1.3913107540023146,0.071330336749622
31.622676,1.3933098508772737,0.0710169780686907
31.627268,1.3915890252474952,0.0707973624304594
31.631851999999995,1.3890909498842148,0.070557891318113
31.636447999999994,1.380951898406756,0.0704698395194373
31.641044,1.3789425619000586,0.0700974248204751
31.645644,1.3728026072975583,0.0696977973482619
31.650236,1.3658854029615566,0.0692714464632218
31.654827999999995,1.361133621663287,0.0687157010045858
31.65942,1.3522953637178436,0.0683460848479704
31.664004,1.34178042159125,0.0679668621309525
31.668592,1.330243860302863,0.0676304254793403
31.673179999999995,1.3205061679097718,0.0672587199634941
31.677772,1.3092139760496762,0.0668451892424432
31.682364,1.2990655880655195,0.0663407596486706
31.68696,1.2878955809195698,0.0658782290113627
31.691548,1.273782901002385,0.0655118400084799
31.696144,1.2587707866375522,0.0651575534050779
31.700728,1.2424926836826344,0.0649127598072463
31.705316,1.228257819051304,0.0645610121964243
31.709912,1.2169656271912082,0.0640960049039254
31.714504,1.205917804759404,0.0635557883891613
31.719103999999994,1.198467720118191,0.0629754482121872
31.723704,1.1916727004963346,0.0624513161708488
31.728292,1.1856549306079809,0.0619436402845908
31.732888,1.1766944879483912,0.0615389180230287
31.737488,1.1728862825463977,0.0611446552454836
31.742079999999994,1.1753741182779391,0.0606970562994448
31.746668,1.1767181501335415,0.060329703187352
31.751272,1.1802276050268763,0.0598297938748005
31.75586,1.1863131785490095,0.0593553509430285
31.760459999999995,1.1961186745758796,0.0588267221637597
31.76504,1.2097662778216325,0.0582079397563064
31.769639999999995,1.227378173000414,0.057494600309053
31.774224,1.2454007637702604,0.0569296785257632
31.778816,1.265222223435402,0.0563722415764704
31.783396,1.2906846592147228,0.0557403929811326
31.787992,1.3247307438794569,0.0549507488433727
31.792592,1.3578773940965427,0.0541606563801593
31.797183999999994,1.3896358710093983,0.0534996092423217
31.801772,1.4182073057227276,0.053008676498025
31.80636,1.44641218629362,0.0526174586432558
31.810948,1.4748614362928034,0.0521907303664558
31.815544,1.5072749782250154,0.0516816878560779
31.820132,1.5407101393190208,0.0511283274416917
31.824728,1.5761885387366132,0.0505222068113937
31.829324,1.6041049084305865,0.0500257228656751
31.833904,1.627401921172174,0.0495932396654529
31.8385,1.6515983683614095,0.0491611868874999
31.843087999999995,1.6766942499982935,0.0487335585900549
31.847672,1.6942281019115573,0.048397640251506
31.85226,1.7072647815865818,0.048078641177709
31.888991999999995,1.692463134833151,0.0479487187764466
31.893592,1.6837131597849635,0.0478975845952055
31.925752,1.5323638031518334,0.0478903275490497
31.934948,1.4719795104452815,0.0478705749468807
31.939544,1.4460180961776397,0.0478262749240569
31.944132,1.419934497195852,0.0478054684471245
31.948728,1.3922963987470596,0.0477199175434722
31.953316,1.365679919460061,0.0476073630690132
31.957904,1.3394299943154997,0.0473898900854324
31.962492,1.3133022538850838,0.047142451754168
31.967092,1.2869301440263767,0.046968024894374
31.971675999999995,1.2624790877771106,0.0467550020178518
