Time,Force,Position
33.652180000000016,3.705788157516845,0.1345422726183537
33.65682000000001,3.8155435131817534,0.1345373778063938
33.661456000000015,3.923001021463044,0.1343712409998981
33.6661,4.022764075674831,0.1341988064616169
33.670728,4.111401264189295,0.13416624882532
33.675355999999994,4.191033868595543,0.1341173942173275
33.67998800000001,4.266036876417667,0.1339512672866219
33.684624000000014,4.329791833828324,0.1339215570126538
33.68925999999999,4.388184086369982,0.1338344862517101
33.693904,4.442523764081357,0.1337334541396415
33.698532,4.490767628638858,0.1336730516590549
33.703164000000015,4.532915680042488,0.1336453161027809
33.70779999999999,4.57501958999749,0.1335523747842512
33.71243200000001,4.615402674322715,0.1334124861432654
33.71706399999999,4.652266064122865,0.1332658960772998
33.7217,4.685243205255505,0.1331497445190613
33.72633200000001,4.711880163805981,0.1330837789832295
33.73097200000001,4.741293468964918,0.1328887363149626
33.735600000000005,4.766043275722842,0.1327301014425006
33.74024,4.789316626279279,0.1325100544955327
33.74488400000001,4.812423650672943,0.1322412643626684
33.74953199999999,4.829434861912735,0.1320034815680375
33.75418400000001,4.837529771941565,0.1318578623179725
33.758816,4.842104987445322,0.131705317398173
33.79123999999999,4.7253441445471545,0.1315012128650619
33.795884,4.695143350022976,0.1314884887961463
33.80051599999999,4.66375461017423,0.1314465913271136
33.80515199999999,4.6350200322198,0.1312871762778835
33.809788,4.602932085903071,0.1311700543314443
33.814415999999994,4.566469152062247,0.1311268177019691
33.819068000000016,4.533315445135096,0.1309750731772939
33.8237,4.497829989007437,0.1308333377321524
33.828344000000016,4.459768414250981,0.1307309296674008
33.83298400000001,4.42182902420867,0.1306080905057457
33.837627999999995,4.380414081089914,0.1305371793717991
33.84226000000001,4.342719060475895,0.1303839367632628
33.856168,4.222693132112684,0.1302618904296123
33.86081200000001,4.189705751348305,0.1301534399098891
33.865448000000015,4.161093358108022,0.1299683717067747
33.87008399999999,4.137266647982894,0.1297375906662398
33.874728000000005,4.1203910440106615,0.1293886665396905
33.87935999999999,4.105725004524788,0.1290361388498983
33.883992000000006,4.098010071191807,0.1285674659111466
33.88862399999999,4.088051671555575,0.1282513766663535
33.89326399999999,4.075971990330237,0.1280751607815134
33.89789999999999,4.064347146144594,0.127997372539629
33.90252799999999,4.062005157312349,0.127794383134996
33.907172,4.069723273567004,0.127462621116204
33.91180800000001,4.081616149366089,0.1271567647341439
33.91644400000001,4.101648076642633,0.1267811613197027
33.921088,4.130718489844283,0.1263165953595675
33.925715999999994,4.158322686476185,0.1259919905678858
33.93034399999999,4.190468196794956,0.1256530399816412
33.934984000000014,4.223190728867565,0.125405259161052
33.939616,4.266462104883658,0.1250042753026485
33.94424799999999,4.318239086519646,0.124501501956236
33.94888800000001,4.383018846013768,0.1238206715095408
33.95352,4.452706473337195,0.1231331092516305
33.958168,4.5225604268233965,0.1225050168231546
33.962807999999995,4.593602325634166,0.1219144165113267
33.967444,4.661623508408182,0.1214802908483024
33.972076000000015,4.734674743725648,0.121003132487311
33.97671600000001,4.809036109081827,0.1205520033464579
33.981348,4.888549711695602,0.1200433127870271
33.985996,4.974481540157058,0.119423420096533
33.99064000000001,5.061190618352016,0.1188110141783125
33.99527599999999,5.145489904080949,0.1182975809465064
33.99992800000001,5.229011940076381,0.1178114254689829
34.00455600000001,5.310857291890662,0.1173516397627531
34.009184000000005,5.389104905914353,0.1169661780865656
34.01383200000001,5.462200282680446,0.1166429753110715
34.01847599999999,5.544490231902682,0.1161425598479033
34.023112,5.632787711381535,0.1155534019102658
34.027748,5.7229621030212,0.1148924010640103
34.03237200000001,5.806718268813183,0.1143424741002994
34.037008000000014,5.888264870118806,0.1138123073828439
34.041652,5.962449669680472,0.11334335013657
34.046284000000014,6.026207810012802,0.1129756140588804
34.05091999999999,6.096095665315891,0.1125142946898305
34.055564000000004,6.1641405102750575,0.1120294946686538
34.06019599999999,6.234306636823329,0.1114618425024986
34.064843999999994,6.299564895542296,0.1109246604591664
34.06948399999999,6.365800631974428,0.1103374095520708
34.074116000000004,6.4264734355579,0.1097705767447619
34.07875999999999,6.485958293816803,0.1091944952796478
34.083388000000014,6.542456337855844,0.1086183493369618
34.08802,6.5993989793028405,0.1079763841814985
34.09266400000001,6.653354806529972,0.1073404988104721
34.09728799999999,6.709065361203771,0.1066553915341309
34.101928000000015,6.761666916943563,0.1059794160855133
34.106572,6.815901015415876,0.1052569616871457
34.1112,6.8583202813546205,0.1046543625662234
34.11583200000001,6.891090137797531,0.1041323347148661
34.12047200000001,6.918585572268699,0.1036523788409785
34.12510800000001,6.944360181110091,0.1031398210699106
34.12973600000001,6.966126356569824,0.1026402695228024
34.13437200000001,6.988259086171995,0.1021234654784194
34.13900799999999,7.016277161316635,0.1015368329792887
34.14365599999999,7.032724773356,0.101039612494381
34.14828399999999,7.049661124251947,0.1005181501142454
34.15293199999999,7.060423618728505,0.1000399689021141
34.157568,7.070120352594642,0.0995333342959634
34.162204,7.076463718098477,0.0990440998034113
34.166848000000016,7.083418007173041,0.0985201099115691
34.17148399999999,7.087385482027742,0.0979905091732769
34.17611600000001,7.091064446005525,0.0974333091502859
34.180747999999994,7.090368422459214,0.096902697858967
34.18537599999999,7.086196845836458,0.0963893108497777
34.190008000000006,7.077894651117897,0.0958882460385877
34.19464400000001,7.067382891912976,0.0953765103582429
34.19927200000001,7.054417198793403,0.0948694228999877
34.20390800000001,7.045782351749296,0.0942959922348333
34.20854800000001,7.0355930052381845,0.0937169084818379
34.213179999999994,7.029612320088393,0.093080993727436
34.21781200000001,7.025308319119752,0.0924410455724715
34.222448000000014,7.019205449255814,0.0918099210908659
34.22708,7.009627026315432,0.0911933105510073
34.23172,6.995018550831598,0.0905893735478928
34.236356,6.985518171156732,0.0899210616235402
34.241004000000004,6.97421892258657,0.0892636339256324
34.245644,6.963286228158847,0.0885814843297615
34.250276000000014,6.955174021788212,0.0878765406983313
34.25491199999999,6.942320273751046,0.0872068707465849
34.25955999999999,6.9295887104280265,0.0865288348296676
34.26418799999999,6.91673496239086,0.0858558842955174
34.268832,6.903103964620192,0.0851786226036078
34.273472,6.885753044344787,0.0845209293085024
34.27811199999999,6.872610785430701,0.083808406179393
34.28274400000001,6.857425288193029,0.083115295421782
34.287384,6.844038659850652,0.0824094432351785
34.29201599999999,6.828730977898834,0.0817159756801875
34.296648000000005,6.8134232959470165,0.0810221201451582
34.30129600000001,6.800936102052286,0.0803040487596875
34.305924000000005,6.782563562615088,0.0796368050163767
34.310564,6.759693850939651,0.0789874622481
34.315200000000004,6.737479204283569,0.0783430312469635
34.31984800000001,6.717840676256286,0.0776898114518492
34.324488,6.697835594086565,0.0770516254666032
34.32912400000001,6.676442338612614,0.0764428209266492
34.33376799999999,6.653005844815077,0.0758515336703614
34.33840000000001,6.634721588275135,0.0752497696336204
34.343028000000004,6.612473039802164,0.0746807700528118
34.34765999999999,6.595743282729226,0.0740795628020714
34.352288000000016,6.582366894018588,0.0734786447157729
34.35692800000001,6.567602332003719,0.0729057948528141
34.361571999999995,6.553248465579917,0.0723541029224085
34.36619999999999,6.547888943632591,0.0717676107900645
34.37083200000001,6.539997444505097,0.0712285508027018
34.37548000000001,6.532638825682815,0.070703280314093
34.380116000000015,6.526712521613388,0.0701922826305264
34.384748,6.52426177062041,0.0696749471807748
34.389388,6.520178476894908,0.0692008180413382
34.39401599999999,6.521369605141148,0.0687194802596453
34.398664,6.529756208968571,0.0682169565731131
34.40330399999999,6.54329505005359,0.0677115137551807
34.40793600000001,6.5615754328051406,0.0671822211014387
34.412576,6.582431934185487,0.0666567259705553
34.41720799999999,6.6095844766993705,0.0661171489988543
34.42184399999999,6.639068768413759,0.0655925431786341
34.42647600000001,6.675626350995186,0.0650598427759087
34.431104000000005,6.708219641643582,0.0645604725696615
34.435744,6.744166300654281,0.0640659737010766
34.440392,6.778846971074894,0.0635967894601476
34.44502,6.809563349562478,0.0631595278409553
34.449656000000004,6.845021269716593,0.0627021849004061
34.454296,6.8830553084995065,0.0622480134495704
34.458928000000014,6.918923924244687,0.0618237417292371
34.46356,6.9556919744375145,0.0613993834609604
34.468196000000006,6.996302131849224,0.0609576799810314
34.472836,7.037933908422729,0.0605131022661445
34.477476,7.080465119443881,0.060072463758342
34.48210399999999,7.126061187950413,0.0596112999769883
34.486752,7.163850857305034,0.0591972551370127
34.491388,7.195877365831333,0.0588138006108334
34.496027999999995,7.22700443990998,0.0584354749453335
34.50067200000001,7.257109894826837,0.0580701480740662
34.50532000000001,7.2832510578106655,0.0577305828606957
34.50994800000001,7.306571732737404,0.0574048474712649
34.514579999999995,7.326783408730133,0.0570614910129487
34.51921999999999,7.340699043589328,0.056728555119816
34.523848000000015,7.3556362976103165,0.0563890689142717
34.52848,7.373516224402539,0.0560380980079237
34.533108,7.392539955070702,0.0556761548234014
34.537744,7.412707489614804,0.0553024286517541
34.54238000000001,7.432097774425403,0.0549281508009948
34.54701600000001,7.450955178930791,0.0545403575387276
34.551648,7.464538161464439,0.0541514658062306
34.556287999999995,7.476977340122147,0.0537749758334699
34.56091599999999,7.485452226846826,0.0534192315913351
34.565563999999995,7.490207191066768,0.0530726195853517
34.570212,7.492019482515476,0.0527401517193996
34.57485600000001,7.488190797850005,0.0524219649071893
34.5795,7.486527536222268,0.0520840964510321
34.58412799999999,7.483309775127525,0.0517334399634076
34.58875599999999,7.475594841794543,0.0513840304325569
34.593388000000004,7.459296259576148,0.0510595759598333
34.598016,7.443486416214336,0.0507107053536099
34.602652000000006,7.423179400614282,0.0503618919867322
34.60729599999999,7.400462592548207,0.050039834754407
34.61192399999999,7.374803111710896,0.0497271213049571
34.616568,7.347100392549998,0.0494253098038362
34.621196,7.30991459005604,0.0491478989081665
34.625832,7.2696639300767005,0.0488871161434755
34.63046,7.222384120678952,0.0486604525782992
34.635096000000004,7.163455804910409,0.0484744395141117
34.63972799999999,7.095821655542308,0.0483158682475431
