Time,Force,Position
34.076443999999995,4.040304352042873,0.1420859455793779
34.081036,4.135125636608465,0.1420566959801323
34.085624,4.221631303902089,0.1418560780624709
34.09022,4.297900300314298,0.141548676904537
34.094815999999994,4.367574505084313,0.1411107209931799
34.099419999999995,4.428732864602694,0.140608457175355
34.10400800000001,4.486571757575665,0.1400197489739796
34.1086,4.542523498756084,0.1393336838142382
34.113192,4.597776033468517,0.1386030089753807
34.117788000000004,4.643379158685116,0.1380746045694781
34.122367999999994,4.684973850520057,0.1375914848452059
34.126971999999995,4.728567639229958,0.1369979546864647
34.131556,4.774204666263446,0.1363542939370607
34.136160000000004,4.825893365002177,0.1356242194128304
34.140744,4.876438259864969,0.1349528597731177
34.145336,4.932746315556086,0.1341683470519131
34.14993200000001,4.983413395133024,0.1334960233067067
34.154528,5.029050422166511,0.1329088390540728
34.159124000000006,5.072644210876412,0.1323843831513133
34.163724,5.118281237909899,0.131823324461643
34.168316000000004,5.165184253533472,0.131216678090591
34.17290800000001,5.208489531366453,0.1306800539119176
34.177496000000005,5.252249646239127,0.1302373915117974
34.182084,5.296342413437349,0.1298904198453038
34.186672,5.345465233179022,0.1295038677441294
34.191264000000004,5.396963943569828,0.1291627364909623
34.19586,5.450139338141786,0.128815928713008
34.200452,5.506912470504333,0.1284267941105744
34.205044,5.563685602866881,0.1280550705323529
34.209624000000005,5.626510406934674,0.127619670557825
34.21421600000001,5.695098371830791,0.1270925017882311
34.218808,5.759599860079733,0.1266585695686486
34.223395999999994,5.823446283309319,0.1262289289262524
34.227999999999994,5.88544969619498,0.1257918758465566
34.23258800000001,5.944344110146633,0.1253706632682105
34.237176000000005,5.996942482964752,0.1250407411984729
34.24176800000001,6.056037124896069,0.1245649543791497
34.246368000000004,6.114598886522174,0.124081385899638
34.250960000000006,6.169763138337352,0.1235789582016964
34.255551999999994,6.217443403694428,0.123140173910607
34.260148,6.265446081745313,0.1226376617570272
34.264736,6.314548422223508,0.1220673180160941
34.269336,6.362296491214363,0.121447735522346
34.27392400000001,6.408568104003733,0.120779766452185
34.278524000000004,6.443757992544407,0.120213174537418
34.283112,6.474895306254796,0.1196206968611386
34.2877,6.496216884306577,0.1190888177195681
34.292283999999995,6.5125864530804245,0.1185482651675807
34.29688,6.519140286195664,0.1180656890125082
34.30147600000001,6.515756198938148,0.1176491921381699
34.306064000000006,6.50603192909847,0.1172586408948844
34.310652000000005,6.495975006933244,0.1167908480199371
34.31524,6.4808438907759385,0.1163110540271819
34.319828,6.455408300103442,0.1159142333099497
34.324411999999995,6.423632526848782,0.1155370117231682
34.32900000000001,6.38858142849734,0.1151251280106256
34.333592,6.347967397297237,0.1147284856262977
34.338176000000004,6.300524444658387,0.1143833427256006
34.342764,6.251526992552534,0.1140373827774962
34.347364,6.203140464017407,0.1136462857954367
34.351952,6.147680644615245,0.113319138562769
34.356539999999995,6.088090207117278,0.113007150490016
34.361124000000004,6.022980978219279,0.1127554432237299
34.36570400000001,5.957461053730214,0.1124700707437292
34.370292000000006,5.8928405636887975,0.1121749632881912
34.374888,5.830141127256822,0.1118431261496421
34.379476,5.772593928082443,0.1114654598456082
34.384072,5.710593698118453,0.1111812284741596
34.388664000000006,5.656321824040856,0.1108282147205473
34.39326,5.607446556649147,0.1104111596492731
34.397848,5.555794942648976,0.1100796921942452
34.40244800000001,5.503165850935643,0.1098127279427505
34.407036000000005,5.456221876785114,0.1095123889811774
34.411640000000006,5.419704561863924,0.109118010631024
34.416228000000004,5.394268971191426,0.1086386552636328
34.420828,5.375828628120448,0.1081497495488356
34.42542,5.359764175698605,0.1077080770511942
34.430008,5.3520831441825125,0.1072132182970689
34.434596,5.3499650455150825,0.1067043889217007
34.439192000000006,5.354187129429813,0.1061846342048056
34.443792,5.369124383450802,0.1056172955150481
34.448387999999994,5.3890136467497225,0.1050844357886871
34.45297600000001,5.41602034236431,0.1045387124336338
34.457572,5.447734677828537,0.1040487097828525
34.46216,5.492573975865045,0.1034618165191987
34.466747999999995,5.543386902341278,0.1029031535089351
34.47133600000001,5.600662196113822,0.1023383724958427
34.475928,5.66926358356335,0.1016950846634975
34.480524,5.735988058852065,0.1011326435914301
34.48510400000001,5.806110043951708,0.100613273046164
34.489688,5.8867808729948345,0.1000168086310641
34.494268000000005,5.973259004314913,0.0993992078096565
34.49886000000001,6.057738038760032,0.0988723037785945
34.503452,6.139440726596691,0.0984346833601603
34.508039999999994,6.221431925310268,0.0980460940100066
34.512648,6.30215713543376,0.0976960561214732
34.51724,6.385580648900196,0.0973288440506409
34.52183600000001,6.468881977652488,0.0969771856283676
34.526424000000006,6.554881609747721,0.0966169284517946
34.531015999999994,6.639859622681161,0.0962829538983525
34.535612,6.718175040338629,0.0960236459101869
34.5402,6.793914339367301,0.0957786093532231
34.544799999999995,6.868221323643113,0.0955291427387148
34.54938800000001,6.939419308984919,0.0952804516730756
34.55398,7.001500765136097,0.0951140588204924
34.558567999999994,7.057652734296178,0.0949743815240253
34.563168000000005,7.107097966731659,0.0948606640165141
34.567764,7.150491527461896,0.0947807276585243
34.572351999999995,7.195762000352947,0.0946418472052129
34.576932,7.238290028452425,0.0944823045648561
34.581524,7.2725568203603,0.0943448184939989
34.586116000000004,7.30612440580019,0.0941639009438733
34.59070800000001,7.338215535038593,0.0939346019546285
34.595299999999995,7.369851827237304,0.093645779834638
34.599884,7.394370687120348,0.0933571122999271
34.604472,7.417290906087761,0.0930288982814165
34.609072,7.436447061101807,0.0926916871143451
34.61366,7.45376020577193,0.0923282845734613
34.618252,7.4653882328792465,0.091973313591608
34.622848000000005,7.469654458242607,0.0916267985031364
34.627436,7.4747318351563585,0.0911966534048576
34.632036,7.478454940582768,0.0907122144982824
34.636624,7.477758917036456,0.0902068574222951
34.641216,7.4732988295367795,0.0896870250844996
34.64581200000001,7.466218481959676,0.089134098312636
34.650400000000005,7.45447463598156,0.0885690524429226
34.654996,7.438600171907642,0.0880052794528481
34.659576,7.417040590270917,0.087440790391892
34.664164,7.391228205824244,0.086886400144526
34.668760000000006,7.359608519100618,0.0863362095090575
34.673351999999994,7.328233201805284,0.0857691514865933
34.677944,7.287863540033473,0.0852455277470837
34.682524,7.244795574918717,0.0847313397692829
34.687124,7.199928740908666,0.0842220173369804
34.691704,7.156083526060408,0.0836961395181145
34.696312000000006,7.109417823155061,0.0831858143340216
34.700900000000004,7.062996489678005,0.0826575026242205
34.705484,7.015431352325011,0.0821428842380753
34.710064,6.963246858019633,0.0816509531720508
34.714648,6.915681720666638,0.0811247535655624
34.71924800000001,6.868405094190561,0.0806215599538027
34.72384,6.826280704972081,0.0801023076979961
34.728432,6.788164749135259,0.0795844785174625
34.733024,6.752624911927233,0.0790562659616522
34.737616,6.721870757834366,0.0785340999614571
34.7422,6.698312079322681,0.0779773377412545
34.746787999999995,6.683747745287476,0.0773810120872492
34.751384,6.674457833224012,0.0767646018569854
34.755976000000004,6.668399104808702,0.0761520406191216
34.760555999999994,6.672644850908585,0.07552352352674
34.765156000000005,6.678322911761327,0.074907301219673
34.769744,6.692506578233964,0.0742805151098425
34.774339999999995,6.713763535573637,0.073635164073912
34.778932,6.740294914885052,0.072981768713862
34.783524,6.773000150615856,0.072319261786887
34.788116,6.8099581891566086,0.0716562168981738
34.79269600000001,6.847082553860135,0.0710314223458056
34.797284000000005,6.886005787458957,0.0704041852282802
34.80188,6.934944984696051,0.0697409850924854
34.80648000000001,6.986338115847797,0.0690906996432355
34.811076,7.037364692857106,0.0684636092591209
34.815664,7.08123993573386,0.0679051290782278
34.820260000000005,7.130756154724794,0.0673303507163042
34.824848,7.187590034011056,0.0667406464990069
34.829448,7.243646663563815,0.0661540860659943
34.834024,7.296638435631194,0.0655989838044524
34.838624,7.346931904355629,0.0650601175637181
34.84322,7.401600360604157,0.0645252088401086
34.847812000000005,7.457412620728626,0.0639829742917506
34.852396,7.506395959414349,0.0634466638807573
34.856984,7.558444155585451,0.0628936844895127
34.861571999999995,7.609426591146133,0.0623174004242245
34.866168,7.656034039182719,0.061750617082182
34.870756,7.694180023048038,0.061218285253714
34.87535200000001,7.728073204103411,0.0606901590284501
34.879940000000005,7.762577308729511,0.0601401611247499
34.884524,7.795893468031044,0.0595656290781763
34.889116,7.825734074256132,0.0589923488020478
34.893708000000004,7.847601955166533,0.0584287795488693
34.898304,7.864195414105192,0.0578688761010652
34.902896,7.879356558290994,0.0572945223869653
34.907492000000005,7.895372995475817,0.0566779870831974
34.912071999999995,7.897653546517629,0.0560893375404733
34.916664,7.887752710883439,0.0555367980769582
34.921260000000004,7.873599072439299,0.0549756212652229
34.925852000000006,7.861610857032891,0.0543959930616977
34.930448,7.841283362169361,0.0538296793965802
34.935028,7.812083707543499,0.0532640137958806
34.939620000000005,7.774666958174661,0.0527050970074475
34.944216,7.731364863263352,0.0521642867437052
34.948808,7.678701869733128,0.0516408115633073
34.953404000000006,7.617088673175054,0.0511542010618047
34.957984,7.550611750236304,0.0506800788381287
34.96258400000001,7.486300250335287,0.0501802803591085
34.967168,7.410995309082831,0.0497281242654716
34.971772,7.323020242297789,0.0493175839575062
34.97636,7.231980318027366,0.0489160864595852
34.98096,7.138652786005065,0.0485309179278261
34.985544000000004,7.0447143304120345,0.0481672899770704
34.99013600000001,6.947711017333624,0.0478126983110858
34.994724000000005,6.84662122760804,0.0474743979491178
34.99932,6.741977841540492,0.0471699185434084
35.003908,6.639666204673451,0.046874803328831
35.0085,6.535555698911113,0.0465695280924747
35.013088,6.429690465702109,0.0463014116880782
35.017675999999994,6.31217672612231,0.0460681519066326
35.02226400000001,6.197894170190666,0.0458483376835444
35.02686,6.078136964307618,0.045675313237772
