Time,Force,Position
31.292455999999994,2.6597442235659274,0.1623192727324149
31.297048,2.8122585542051945,0.1599629929659018
31.301644,2.9598989188320464,0.1576977003991702
31.306231999999994,3.098168145208244,0.155794002496653
31.310835999999995,3.223224126114905,0.1543978332292581
31.31542,3.3408300223803518,0.1530309822678266
31.320015999999995,3.4494754759862105,0.1519557744758912
31.324604,3.548749791341414,0.1511279708140309
31.329204,3.635465926246438,0.1505413530360406
31.333791999999995,3.711378608147948,0.1500641092723778
31.338387999999995,3.783316758484691,0.1494604196788383
31.34298,3.8396318708858734,0.1492686077577615
31.347576,3.883422704653765,0.1491278435081089
31.352156,3.919352758189378,0.1489601592766249
31.356748,3.946522597045065,0.1487764918742973
31.37054,3.9807318249509,0.1485957445200492
31.375136,3.987194192247208,0.1484963704220693
31.37972,3.988993061142504,0.1484508940276607
31.384308,3.9872722355127257,0.148408795744549
31.388895999999995,3.98268678037723,0.1483743013702885
31.393488,3.976913379917167,0.1483157525099992
31.398084,3.975104271390133,0.1481303330150752
31.402676,3.980202127567362,0.1477297446766753
31.407264,3.9881204718016794,0.1472547922883361
31.411852,3.99538375101664,0.1467767993475156
31.416447999999995,3.999582172746222,0.1464035976316968
31.421032,4.013385862523009,0.1457592676560606
31.425619999999995,4.033119039290895,0.1450172609940053
31.430228,4.055794888830016,0.144203645366147
31.434816,4.082723541179084,0.1433084272799076
31.439404,4.110273356730621,0.1425635998818128
31.443996,4.1373785748742025,0.1419471270699891
31.448595999999995,4.163794826181538,0.1414713006342393
31.453191999999994,4.193119848443219,0.141065990319971
31.457792,4.230051041877147,0.1405308037736541
31.462384,4.268336506798417,0.1400831554767606
31.466975999999995,4.306954624045234,0.1397450444467802
31.471571999999995,4.35203510858836,0.1393289675198302
31.47616,4.402067602409421,0.1389216459689308
31.48076,4.458195909384352,0.1384806362893093
31.48534,4.51465686868483,0.1381461170273917
31.48994,4.571817034453293,0.1378996200850317
31.494524,4.628899156956238,0.1377481856694988
31.49912,4.687946474517252,0.1376228590674082
31.526644,5.045536423875343,0.1375381259951505
31.531232,5.1094135660001445,0.1374634243492621
31.535824,5.172391273677299,0.1373975813263619
31.54042,5.24137651161107,0.1371873148256216
31.545012,5.310728303687276,0.1369531128603031
31.549608,5.375827292953535,0.1367804866231225
31.554196,5.439860521609373,0.1365807962565391
31.558788,5.505770662426026,0.1362876894589254
31.563376,5.568938358451106,0.1359991673113691
31.567964,5.625643687179877,0.1357679374644654
31.57256,5.677152637202424,0.1355581836366097
31.577148,5.734214280441893,0.1351551825188215
31.58176,5.785424479955783,0.1347630778873289
31.586336,5.829883801296443,0.1343950774072729
31.590928,5.868491678911524,0.1340383801469175
31.595524,5.909831761686437,0.1335397161591331
31.600103999999995,5.941233924088596,0.1331364503269946
31.6047,5.968172816069405,0.1326942876971475
31.60928,5.992202937095868,0.1321995967872805
31.613879999999995,6.012547037434484,0.1316581552429158
31.61846,6.026262444314018,0.1311287316186314
31.623059999999995,6.026808747172641,0.1307159251186599
31.627655999999995,6.024690648505211,0.130231095844683
31.632244,6.015166606645197,0.12975897157712
31.636828,6.001301479077977,0.1292319774967287
31.641424,5.9838725155370565,0.1286429535951703
31.646024,5.957649435499319,0.128106796905666
31.65062,5.92251005425062,0.1276338137397358
31.655204,5.880908305705612,0.1272031018893721
31.659792,5.839995523996848,0.126660653306243
31.66438,5.792742559705921,0.1261501965432081
31.668968,5.729666329499772,0.1258325280281083
31.673548,5.662703850626111,0.1255300949543675
31.678135999999995,5.596596664751468,0.125151041337706
31.68272,5.529668087694695,0.1247096846097899
31.687304,5.454644600609092,0.1243685399868808
31.6919,5.385217948189039,0.1238660981077126
31.696487999999995,5.314891861321338,0.1233621252135582
31.701076,5.241623101682404,0.1229096282114516
31.70568,5.170031026224618,0.1224266514315805
31.710268,5.10101506939563,0.1219017463473347
31.714856,5.041648522062478,0.121246908917822
31.719452,4.985268788949188,0.1205782616862348
31.724039999999995,4.928688827856235,0.1199759459077236
31.728635999999995,4.870764834907679,0.1194711845845802
31.733228,4.817915035951202,0.1189674375854912
31.737824,4.776146961243419,0.1183458412836151
31.742411999999995,4.743539557174889,0.1176422389493578
31.747012,4.71535128207908,0.1169386623333742
31.7516,4.687251289880529,0.1163461405431881
31.756204,4.670643717521737,0.1156685576884915
31.760791999999995,4.667327433898,0.1148784459257517
31.765392,4.674726320380519,0.1140096494411412
31.769976,4.684789608389092,0.1132333793186119
31.774572,4.700870666286019,0.1125254160047889
31.779152,4.72550147125147,0.1117974318281478
31.783748,4.75435117720998,0.1111721369399075
31.788336,4.788030707732277,0.1105902415785079
31.792932,4.834224277256126,0.1099222164461042
31.79752,4.882549368000818,0.1093342235139588
31.802108,4.933905414414003,0.1088167779032122
31.806695999999995,4.987637351476322,0.1083710044885697
31.811288,5.044522428921278,0.1079856680399449
31.815884,5.112489230614926,0.1075220552052809
31.820476,5.192681560433209,0.1069594318527213
31.825064,5.275860704471353,0.1064208719752458
31.829652,5.361904478015215,0.1059265434378063
31.834244,5.45207886965488,0.1054382269816922
31.838832,5.551125421056878,0.1048872380856678
31.843419999999995,5.65646801359241,0.104277131490144
31.848032,5.757846314194914,0.1037452261727239
31.852619999999995,5.857958626207333,0.103264163505003
31.857216,5.956027699896166,0.1028356975242647
31.861808,6.056384381336876,0.1023634976254452
31.866408,6.157718540490753,0.1018436790876644
31.870999999999995,6.260685242377151,0.1012905892339678
31.875592,6.36360780281492,0.1007087340034578
31.880188,6.4663640370899165,0.100099489636493
31.884768,6.563801707944543,0.0995061117725567
31.889364,6.66426009483592,0.0988380355255039
31.893952,6.763119840811666,0.0981328675581993
31.898544,6.858826446404776,0.0973991791941759
31.903127999999995,6.955710757690714,0.0965721017984082
31.90772,7.041102649136892,0.0957891554398777
31.912316,7.113491762724935,0.0950889594999357
31.916912,7.176964575102018,0.094405251754393
31.921492,7.227923348477549,0.0937619027792295
31.926088,7.269188570908616,0.093138319537685
31.930688,7.298061939052277,0.0925503948737802
31.93528,7.320306613736855,0.0919386387050206
31.93986,7.344628428561909,0.0912204740677837
31.944448,7.364364788251467,0.0904510474442837
31.94904,7.379515692805531,0.0896304012284533
31.953636,7.388692968919868,0.0887882858445961
31.958224,7.386788520785511,0.0879789278730452
31.96282,7.370981860345373,0.0872210680587405
31.967408,7.34433784508483,0.0864786076813928
31.971996,7.309432593632684,0.085741034572269
31.976596,7.267698420741793,0.0850165549355731
31.981176,7.215659773335711,0.0843167384091028
31.985752,7.159857061976261,0.0835931509504797
31.990348,7.095060006140334,0.0829046386150715
31.994936,7.01669339032417,0.0823226945150716
31.999544,6.936527905612712,0.0817391269811458
32.004132,6.854152856414892,0.0811317050086952
32.008724,6.774842664702454,0.0804786014735857
32.01332,6.699374580208898,0.0797815880025665
32.017911999999995,6.62174107267761,0.0791013537272483
32.022507999999995,6.544640445451532,0.078425015746752
32.027096,6.46680670994058,0.0777790040282987
32.031696,6.381210716726345,0.0772355356629805
32.036283999999995,6.294637245798945,0.0767365775962763
32.040884,6.207863546891881,0.0762846815394207
32.045472,6.123832292776389,0.0758554826294347
32.050072,6.045363971509558,0.0754326272886947
32.054655999999994,5.977200124757919,0.0749823339270091
32.059248,5.916275895036091,0.0745389141733473
32.063835999999995,5.8616918478964255,0.0741088234717158
32.068428,5.814469602500716,0.0736821501752537
32.07302,5.773220985544734,0.0732934782362878
32.077611999999995,5.734103889809596,0.0729745073854262
32.0822,5.708644636951949,0.0726370082987432
32.086788,5.696554716094874,0.0722481898905765
32.091372,5.692848216143547,0.0718585047955978
32.095972,5.698302386831474,0.0714724393680788
32.100556,5.7090751209397705,0.0711242599335903
32.105148,5.726432407058522,0.0707888210205986
32.109744,5.754749232711822,0.0704556730276719
32.114332,5.791693848699162,0.0701159205629818
32.118932,5.836489005287043,0.0697671047673055
32.123512,5.889012517761316,0.0694111413459524
32.128104,5.94848713638848,0.0690487649244439
32.1327,6.014013426720889,0.068684692768444
32.137288,6.083914704577391,0.068321102462616
32.141896,6.16395413078631,0.0679239773349182
32.146484,6.245548056462235,0.0675447325552438
32.151072,6.330984089357042,0.0671516246206478
32.155656,6.420384414184877,0.0667374277319789
32.160256,6.510029108441005,0.066321181357368
32.164852,6.604904083220244,0.0658620636557119
32.169428,6.708074196007979,0.065335873931433
32.174028,6.805070452376323,0.0648304942371855
32.178616,6.898713340382368,0.0643331789715459
32.183215999999994,6.9920677175114925,0.0638190753524714
32.1878,7.085133583763699,0.0632883283841823
32.192384,7.175212635796041,0.0627442283995491
32.19698,7.263981557789671,0.0621935051969418
32.201572,7.349108600544079,0.0616212177921681
32.20616,7.427162352431453,0.0610643665492055
32.210756,7.496343944556494,0.0605234454335467
32.215348,7.562128026870606,0.0599434661061512
32.21994,7.621083187745972,0.059362620110393
32.224532,7.673331611896738,0.0587747802213676
32.229116,7.717729495446965,0.0581915575889074
32.233704,7.747858612548973,0.0576302146881769
32.238304,7.771280992926379,0.057057320644021
32.242892,7.784931779093805,0.0564929327695305
32.247476,7.789832590213044,0.0559294824627209
32.252067999999994,7.78639412187516,0.0553853049384328
32.256648,7.770119201841916,0.0548648686411638
32.261244,7.737165722894427,0.0543809905770465
32.265832,7.6972611377940465,0.0538862507036749
32.270419999999994,7.650038892398338,0.0533982345655093
32.275016,7.59243412922192,0.052936084227024
32.279604,7.524324663550646,0.0525051090021995
32.284192,7.446976483974604,0.0520839730627596
32.288788,7.356303113846619,0.0516992602984902
32.293375999999995,7.25369272647092,0.0513215790765653
32.297971999999994,7.142620874923952,0.0509584736252817
32.30256,7.030649588929337,0.0505862806538704
32.307164,6.909605915192726,0.0502558399293015
32.311744,6.784842318951378,0.0499213061191179
32.316344,6.655992246062855,0.0496030211810298
32.320924,6.525098934850745,0.0492869684981055
32.325523999999994,6.387831539239584,0.0490173953419697
