Time,Force,Position
32.426312,2.778171534834432,0.1623398851263142
32.430899999999994,2.8874144894576066,0.1620071393774457
32.435492,2.992194173659431,0.1615966077882233
32.440072,3.086869611325728,0.1614926551134852
32.444664,3.1787584627518246,0.1613159252530399
32.449259999999995,3.2715365089938304,0.1607911780568555
32.453848,3.362016707852219,0.160140186926716
32.458451999999994,3.4536746124034368,0.159252691645754
32.463044,3.5456888314653523,0.1580693691709178
32.46764,3.629065020561488,0.1569253522142846
32.472232,3.706379298320641,0.1557269255776076
32.47682,3.769991591753674,0.1548243932697309
32.481416,3.825831387851685,0.1540526776325882
32.485996,3.881260488358631,0.1532600053963879
32.490592,3.940898250226897,0.1523004674476395
32.495172,3.99669390487628,0.1515244905685182
32.499768,4.0550656781544605,0.15072137815948
32.50436,4.1162579394897305,0.1498656961856685
32.508959999999995,4.177328016110856,0.1490450991347677
32.513555999999994,4.244083210294787,0.1481598574824325
32.518148,4.312925784250933,0.1473112509169592
32.522732,4.386676226036383,0.1464301666852717
32.527328,4.466189828650158,0.1454312206895363
32.531915999999995,4.548401734606877,0.1443811681611456
32.536511999999995,4.629714206115947,0.1433831987220812
32.5411,4.707717450711346,0.1425376171675192
32.545688,4.780734784211924,0.1418388820704284
32.550272,4.851175999083703,0.1412179293560136
32.554872,4.922394463688985,0.1406389622322461
32.559459999999994,4.997376992247631,0.1400612729666244
32.564052,5.073547466130845,0.1395190818586713
32.568636,5.157812850042889,0.1388293931658576
32.573224,5.2459203411738144,0.1380570946111877
32.577808,5.332473332837739,0.1373016549040736
32.582404,5.416572390587011,0.1365938842952014
32.586988,5.499116948869279,0.1359086872136699
32.591584,5.578430323503391,0.1352744412309736
32.596168,5.653613080041703,0.1347034321052372
32.600767999999995,5.727607891255447,0.1341236558233209
32.605363999999994,5.795629074029465,0.1335804444048141
32.609952,5.857676628363757,0.1330660472497265
32.614543999999995,5.913750554258322,0.1325890999588805
32.619136,5.960541624799489,0.1322260107947625
32.62374,6.005201174119813,0.1318167958410491
32.628319999999995,6.045930333323999,0.1313840690688783
32.632915999999994,6.082729102412045,0.1309231249469567
32.637496,6.11956177331698,0.1303540184578352
32.642095999999995,6.153119119125134,0.1297694381183935
32.646688,6.177760163722326,0.1292606951010786
32.65128,6.19757138375573,0.12874108864339
32.655868,6.21333002895885,0.1282023114457527
32.66046,6.222459980702888,0.1276721338826644
32.665048,6.226515738454848,0.1271406671221171
32.669644,6.225863856357163,0.1265783264070589
32.674232,6.2193605305339,0.1260138821469646
32.678828,6.208027380146848,0.1254261349491628
32.683415999999994,6.191864405196009,0.1248141195319501
32.688004,6.169605617091299,0.1242123850000397
32.69258,6.144193688603953,0.1235709540780448
32.697168,6.113873892287301,0.1229582093810773
32.70176,6.082610520074372,0.1223024409414011
32.706343999999994,6.042474988099111,0.1217463194698924
32.710936,6.000252076351635,0.121176109897391
32.715523999999995,5.953776361794211,0.1206381375245984
32.720104,5.905746147769782,0.12009731231927
32.7247,5.860125726211377,0.1194812010467106
32.729288,5.814505304652973,0.1188570896504482
32.733875999999995,5.764387710856328,0.1182807353301446
32.738471999999994,5.7131263131837455,0.117727155790768
32.74306,5.658677873311636,0.1172349574991776
32.747656,5.605006683173028,0.1167317869388797
32.752247999999994,5.551746188625486,0.1162443512908928
32.756851999999995,5.4997958241166565,0.1157631826942507
32.76144,5.450587904399399,0.1152950182948764
32.76604,5.405266233349654,0.1148111103370859
32.770627999999995,5.36604037545378,0.1143157400035046
32.775228,5.330989277102335,0.1138401578498759
32.779816,5.302033991904764,0.1133556987327062
32.784416,5.274188608766242,0.1129536589722172
32.789004,5.2546044618193255,0.1124965718194236
32.793595999999994,5.238950704988547,0.1120835677638897
32.798188,5.234378672406463,0.1115754845937081
32.802784,5.235003018530604,0.1110733337811272
32.807379999999995,5.242622612256263,0.1105604427799158
32.81198,5.25147429275512,0.1101239191254661
32.816571999999994,5.259637006417729,0.1097982714720259
32.821164,5.271197229891266,0.1095061641044224
32.825756,5.292695373737558,0.1091587911575951
32.83034,5.325519611260835,0.1087165983881888
32.83492,5.363662412204482,0.1082750353364988
32.839507999999995,5.406346526834995,0.1078461255827497
32.844103999999994,5.456148073781174,0.107409836494533
32.848692,5.5125341727378085,0.1069535439075528
32.853283999999995,5.576770812294981,0.1064447116154041
32.857872,5.647958558005048,0.1058994512004462
32.862464,5.718002499839174,0.1053896102475708
32.867059999999995,5.790378190873805,0.1048866478839295
32.871648,5.8673732388608215,0.1043462443989428
32.876244,5.947310959619074,0.1037669661590729
32.880832,6.02802593011083,0.1032064284208786
32.885431999999994,6.108985270030876,0.1026388755258164
32.890024,6.1890451755032725,0.1020925974047071
32.89462,6.272414307889342,0.1014970104363311
32.899216,6.35332950636076,0.1009222092157038
32.903803999999994,6.440374419802938,0.1002636687155292
32.9084,6.528929691263492,0.0995636628646049
32.912992,6.614375963790036,0.0988713735862662
32.917587999999995,6.690172826820747,0.0982516353565208
32.92218,6.7533776075843885,0.0977422108058148
32.926779999999994,6.817926420203632,0.0971620635139624
32.931368,6.8775673649935705,0.0966018406324067
32.935967999999995,6.930868127201347,0.0960542138517989
32.940563999999995,6.973742230179785,0.095568797358622
32.945159999999994,7.008110727538328,0.0951287543809601
32.949752,7.030009327343947,0.0947747520273072
32.954348,7.0481438631962,0.0944106653146722
32.95894,7.060715466199793,0.0940497105651293
32.963536,7.066580332478785,0.0937138357288228
32.968124,7.067903885070909,0.0933666090424079
32.972724,7.059045147861988,0.0930568703446722
32.977312,7.042702424194965,0.0927655602855165
32.9819,7.0238616251646615,0.0924347763621624
32.986492,6.995371416638523,0.0921533167351347
32.991088,6.960052286673638,0.0918962175858619
32.995676,6.916471920517149,0.0916518110558852
33.000271999999995,6.870681989874299,0.0913934054866084
33.004864,6.823826298621028,0.0911004764763938
33.009452,6.777581530938485,0.0907695699433184
33.014052,6.734645990169613,0.0903831614239227
33.01864,6.685947288572419,0.0900467956795391
33.023236,6.634916837774716,0.0897014924443358
33.027832,6.578489780291126,0.0893852707321335
33.032419999999995,6.524594699987707,0.0890096092866373
33.037036,6.468245685769634,0.0886304444513133
33.041624,6.419947440131766,0.0881504318978522
33.046223999999995,6.376390736160428,0.0876236224081045
33.050816,6.334877270512677,0.0870664170740104
33.05542,6.290543316807837,0.0865260402295757
33.060012,6.247641677855856,0.0859910667314273
33.0646,6.209892276161469,0.0854328357328638
33.069208,6.1793383500482655,0.0848276386051504
33.0738,6.148950750097836,0.084257912994583
33.078396,6.127557494623884,0.0836344273730051
33.082975999999995,6.111683030549965,0.082967981360063
33.087576,6.097895946248261,0.0823188164408443
33.092156,6.080921819747032,0.0817097601857792
33.096751999999995,6.066812322751519,0.0811249796403288
33.101344,6.0605533663565465,0.0805127207074993
33.10594,6.059446647219171,0.0798896875537936
33.110532,6.060793861996446,0.0792655907413074
33.115128,6.064106271831792,0.0786682619343868
33.119716,6.078989144772415,0.0780196748425319
33.124312,6.104054307514081,0.0773646732291178
33.128912,6.134804587818556,0.0767153431829616
33.133508,6.164455205695717,0.0761399877417804
33.138096,6.193494900002151,0.075608497558302
33.142692,6.227931200994474,0.0750625840184527
33.147279999999995,6.270218042587334,0.0744982220589935
33.151864,6.314836633380701,0.073947632976531
33.156456,6.366895069183544,0.073364569566907
33.161047999999994,6.418709135558094,0.0728051076204324
33.165631999999995,6.474243124437381,0.0722336848735522
33.170212,6.527611690278935,0.0717004673676511
33.174803999999995,6.585233058930438,0.0711747534070622
33.179396,6.646452165372532,0.070642502380078
33.183983999999995,6.717931604881189,0.0700643224556177
33.188579999999995,6.789533229103991,0.0694878846051347
33.193168,6.856271126946118,0.0689550991142642
33.197776,6.919166917569362,0.0684548621375327
33.202368,6.9851275656779865,0.067934496894683
33.206972,7.056318494309725,0.0673691479768301
33.211568,7.123500989559806,0.0668054225105179
33.216156,7.179890271438113,0.0662806581633991
33.220752,7.237912096048942,0.0657251827017127
33.225344,7.294745975335203,0.0651480420879057
33.229944,7.349125920706811,0.0645696237184498
33.234524,7.39762052053595,0.0640363198416347
33.239127999999994,7.443783371164583,0.0634983572385181
33.243708,7.4878588420210015,0.0629402227444506
33.248312,7.524738837296236,0.062406087055713
33.252903999999994,7.560186517818612,0.0618626475734423
33.257504,7.585618234702717,0.0613442227430396
33.2621,7.605897714329226,0.0608242176837532
33.266696,7.61538398058396,0.0603235063680817
33.271276,7.619718009581099,0.0598214135108071
33.275872,7.612115021330524,0.0593514096255177
33.28046,7.600381414984148,0.0588702778422514
33.285056,7.587582048027349,0.0583553868986332
33.289644,7.571551497422396,0.0578254032461963
33.294228,7.54832547123626,0.0573033104788794
33.29882,7.518559034488298,0.0568002653811674
33.303408,7.484051056073805,0.056310445436832
33.308,7.447866393478161,0.0558108640614826
33.3126,7.404774766178254,0.0553446442996131
33.317192,7.356941597211817,0.0548897312342679
33.321772,7.304489071292994,0.0544390326541806
33.326372,7.246639938688285,0.0539875633986013
33.33096,7.184171449131192,0.0535404940422149
33.335556,7.118638102088716,0.0531069109218243
33.340143999999995,7.047341594217918,0.0526879038254581
33.344728,6.970037556090504,0.0522962685614794
33.349324,6.895065267163597,0.0519148512370008
33.353919999999995,6.819071359074894,0.0515318874756296
33.358515999999995,6.747696807938578,0.0511316114889996
33.363104,6.674034649050386,0.050750237847518
33.367692,6.603970227952784,0.0503596419744672
33.372288,6.531496014389156,0.0499939809272519
33.376876,6.454935324178355,0.0496452050372629
33.381471999999995,6.375187591768028,0.049314280926316
33.38606,6.294951120501117,0.0490012137121363
