Time,Force,Position
34.253864,2.5980095569813533,0.1705891512052558
34.25846,2.7373516006780383,0.1703151565203648
34.26306,2.8703873636094497,0.170061153472722
34.26764,3.0008367682803243,0.1694520480126451
34.272236,3.1282110758340798,0.1686948359000667
34.276824,3.2515667103744392,0.1677208962472214
34.28142,3.375645213567934,0.1663256272407437
34.286007999999995,3.4963601087673903,0.1648114134564616
34.290603999999995,3.6021850743161594,0.1637736662586518
34.295192,3.708121984947336,0.162468979615288
34.299775999999994,3.8084076798325937,0.1612372162713366
34.304364,3.903897451970955,0.159925108838658
34.308955999999995,3.985108218029358,0.1589025329890553
34.313551999999994,4.059968561873859,0.1578278191354608
34.318132,4.129177689972442,0.1567647634566218
34.322731999999995,4.195966785973263,0.1556395097123319
34.327324,4.256249373229147,0.1545899294058513
34.331916,4.313623189530685,0.153496607670813
34.336499999999994,4.362779911089247,0.1526205976290626
34.341088,4.416389663437419,0.1515830753571362
34.345684,4.47175414323226,0.1504410981095807
34.350272,4.525275612683176,0.1492791017658445
34.354876,4.57298977985714,0.1482203851618652
34.359468,4.6187387519730345,0.1471729684213762
34.364068,4.661334583706292,0.1461169209902891
34.368672,4.699389101752683,0.1451105066775192
34.373256,4.728815829465032,0.1442851881521344
34.37786,4.755377927671663,0.1434852445614098
34.382439999999995,4.779441950515014,0.1426391645593623
34.38704,4.796510725756846,0.141875479454803
34.391628,4.807850241987243,0.1411330836212996
34.396224,4.8113392176171015,0.1405367951425342
34.400808,4.8101646948459456,0.1399779328881413
34.405392,4.802938500369546,0.139527768479837
34.409976,4.79002718833034,0.1391464980980706
34.414568,4.772085823747684,0.1388361728049555
34.419155999999994,4.749769471640935,0.1386026819528681
34.423748,4.727575304248332,0.1383543812113221
34.428335999999994,4.709834167645339,0.1379537344402901
34.43292,4.685796989908811,0.1376739284546059
34.437507999999994,4.656118836058106,0.1375215576993778
34.442091999999995,4.622720759702663,0.1374544691039074
34.446684,4.591488106384952,0.1373164213735258
34.451268,4.558700953600237,0.1371847076771619
34.455859999999994,4.523626193063643,0.1371311144091779
34.460448,4.489983747279909,0.137073331020133
34.46964,4.4205334326747066,0.1370293975911196
34.474216,4.3926982891679245,0.1368872469866921
34.478828,4.3643744068045605,0.136790167396151
34.483416,4.336094665889823,0.1367546452732916
34.488015999999995,4.313455901089265,0.1365865269000363
34.492591999999995,4.294947754384509,0.1363647270126422
34.497187999999994,4.274929249661377,0.136221860628302
34.501783999999994,4.259329873910966,0.1360649648715731
34.506384,4.244796258770977,0.1359435360039678
34.510988,4.236436500050377,0.1357067723497778
34.515564,4.2295090560826365,0.1354699113953082
34.520168,4.220582515239936,0.135358423506001
34.524747999999995,4.216563842226542,0.1351881695842745
34.529343999999995,4.223094013156628,0.1348316488058903
34.533932,4.241194647191993,0.1342659188483207
34.538532,4.263181529894867,0.1336810607492204
34.543124,4.2888102918369615,0.133102005974149
34.54772,4.3193469216083615,0.1324733176552188
34.552312,4.350949311990182,0.1318836930733946
34.556904,4.386071396897076,0.1313037404709058
34.561496,4.426223534347421,0.1306569445040418
34.566092,4.465764748227038,0.1300950413449327
34.570684,4.511890514117108,0.1294708006478894
34.575284,4.558959855903454,0.1288871050580925
34.579871999999995,4.607872208033724,0.1283546240202779
34.584464,4.66054862411736,0.127819018553633
34.589051999999995,4.720298331068032,0.1271717641956755
34.593652,4.77992585330456,0.1265466023419885
34.598236,4.842007309455738,0.1259005334227692
34.602827999999995,4.905276710931486,0.1252985212342254
34.607423999999995,4.970633492179448,0.1247219545606634
34.612012,5.042530683989236,0.124031444984711
34.616603999999995,5.115327310246672,0.1233463342915484
34.62119199999999,5.183260210123432,0.1227847277229423
34.625784,5.246329383619515,0.1223473444895126
34.630368,5.307477503506155,0.1219555743167137
34.634955999999995,5.365027885602206,0.1216186196612442
34.639543999999994,5.419224899335958,0.1213182766120161
34.644132,5.473255586906935,0.1209761821206883
34.64872,5.527242133029283,0.1205859123042579
34.653324,5.578652560522833,0.1202255685272693
34.657916,5.623111881863493,0.1199455134870187
34.662507999999995,5.658821228155965,0.119767527592619
34.667095999999994,5.695752421589894,0.1194972171882774
34.671696,5.72802011662281,0.1192478149601894
34.676283999999995,5.757134671273089,0.1189622386411789
34.680879999999995,5.786327269188885,0.1186277106275721
34.685468,5.811755803151317,0.1182967669581118
34.690068,5.836362945931618,0.117921967668984
34.69466,5.854874275558047,0.1175579433550521
34.699251999999994,5.868189226478253,0.1171938415675135
34.703835999999995,5.875041810102149,0.1168668260165653
34.708428,5.874288222553797,0.1166000677335546
34.71302,5.868993321318579,0.1163353056717307
34.717611999999995,5.857113868072905,0.1161115673544628
34.722199999999994,5.842614154749806,0.1158598616450522
34.726792,5.830235723015811,0.1155098464726051
34.731379999999994,5.8157699115096,0.1151461528906726
34.735964,5.798195101069382,0.1147875050207244
34.740556,5.776611857247506,0.114443876359329
34.745135999999995,5.754862287262857,0.1140570569222055
34.749731999999995,5.735644694458378,0.1135946590462095
34.754316,5.72202393631945,0.1129992022402895
34.758903999999994,5.7081146673036,0.1123699003977454
34.7635,5.694571952430189,0.1117122782459888
34.768088,5.679108183947336,0.1110807627215276
34.772696,5.652362463236125,0.1105987908559412
34.777283999999995,5.62520604693385,0.1100869074761828
34.781887999999995,5.59367464310748,0.1096105971026542
34.78648,5.563042673728759,0.1091195083652408
34.791076,5.52959021629295,0.1086616252902358
34.795672,5.497037193304787,0.1081891181706419
34.800272,5.46742684308786,0.1076642224827416
34.804876,5.439737546480373,0.1071050902754807
34.809452,5.416911976253565,0.1064639014561631
34.814048,5.393597667170172,0.1058547973860662
34.818636,5.365952512011313,0.1053359975736804
34.823235999999994,5.33961748689117,0.1048307816905723
34.827824,5.318190329600329,0.1043014738952543
34.832424,5.299994355957643,0.1037580638909971
34.837019999999995,5.282697816762605,0.103202738376617
34.84162,5.2659341578727785,0.1026632894236415
34.8462,5.247660140964574,0.1021770609820181
34.850795999999995,5.228941526648416,0.1017801147350723
34.855396,5.209367619333237,0.1014445208689152
34.859987999999994,5.192536156809632,0.1011356740204838
34.86458,5.186375722943654,0.1007266417730764
34.869172,5.185656037212192,0.1003194100369982
34.873752,5.1902549149011,0.0999223346342891
34.878344,5.200661094866961,0.0995038299158245
34.882935999999994,5.22059449961451,0.0990202360360904
34.887532,5.242370914705981,0.0985758821256429
34.892123999999995,5.270609697093764,0.0981239124361447
34.896711999999994,5.3044114123302055,0.0976728156386888
34.901304,5.341732822091722,0.0972597270195313
34.905891999999994,5.388703641349075,0.0967871394661456
34.910484,5.444180066226322,0.0962763076779686
34.915063999999994,5.503009859465869,0.0957545224538081
34.919652,5.561350913848833,0.0952762501137546
34.924248,5.623578216899309,0.0948138759724087
34.928836,5.689447399189004,0.0943832949581149
34.933423999999995,5.757037407108477,0.0939992368895017
34.938019999999995,5.829290913428963,0.093629748193348
34.942608,5.904364907806539,0.0932347593706177
34.947199999999995,5.984835508870002,0.0928010483812985
34.951788,6.067471532971196,0.092337633133162
34.956384,6.15268367570119,0.0918806497287568
34.960964,6.237651449002893,0.0914495881118607
34.965564,6.323640841466388,0.0910114711047097
34.970147999999995,6.408608614768091,0.0906018826730329
34.974748,6.491533149746203,0.0902335098019101
34.979332,6.577400357495554,0.0898391975400548
34.983928,6.661590881063754,0.0894615865165524
34.988524,6.742183666841362,0.0891127681704028
34.99312,6.8187680192373135,0.0887697838324124
34.997716,6.889300699928022,0.0884649864000445
35.002316,6.95594713195122,0.0881618037458895
35.006892,7.023981737278648,0.0878338848719073
35.011475999999995,7.088907343672068,0.0875014521831129
35.016056,7.150723951131478,0.087169725698103
35.020647999999994,7.2085321252092305,0.0868407407948324
35.025228,7.264741658371353,0.0864689479795554
35.029819999999994,7.312323401199432,0.0861269845262026
35.034403999999995,7.357817764255296,0.0857721729407517
35.038979999999995,7.39942587864365,0.0854139396998107
35.043568,7.436903374936202,0.0850641056045208
35.048171999999994,7.463954211999416,0.0847529695990154
35.05276,7.483643247318674,0.0844447652343338
35.057351999999995,7.502388706741656,0.0841052432044947
35.06194,7.514183060011746,0.083789146416174
35.06652,7.525156022099706,0.0834352055073535
35.071116,7.528400628301272,0.0831021162201483
35.075692,7.525060682492384,0.082772191205704
35.080288,7.518733922463633,0.0824272571366772
35.084868,7.512651531863173,0.0820698617112127
35.089468,7.500395284843324,0.0817342416710693
35.094055999999995,7.480943562242292,0.081430215707608
35.098656,7.455440167936015,0.081141555713454
35.103247999999994,7.429281708610382,0.0808427543744383
35.10784,7.398337566169592,0.0805345757288341
35.11242,7.368781597033031,0.0801960151808477
35.117011999999995,7.338326193448823,0.0798594965102768
35.121616,7.31334543981602,0.0794515574571245
35.126208,7.282723710069036,0.0790766099130723
35.130796,7.245561569760229,0.0787376743504304
35.135388,7.207255625575481,0.0784129069067791
35.139979999999994,7.170626365571884,0.0780838066124628
35.144575999999994,7.1392715275400285,0.0777354698467711
35.149164,7.101131909518055,0.0774365755449447
35.153755999999994,7.06887763703855,0.0770870149248496
35.158348,7.02869478069299,0.0768025767472095
35.162935999999995,6.993497835442251,0.0764706224182813
35.167536,6.9636974968774,0.0761142144481667
35.172112,6.941337003322022,0.0757159499806287
35.176703999999994,6.916033836995409,0.075338766550287
35.1813,6.893306789297594,0.0749543443145241
35.185888,6.876875782733315,0.074543065058759
35.190484,6.865474828712484,0.0741303010332202
35.195072,6.857671612482246,0.0737040007691016
35.199676,6.855431329100669,0.0732929651324532
35.204272,6.850903437967213,0.0729143835348813
35.208859999999994,6.848052231014908,0.0725361071657563
35.213463999999995,6.845245165511232,0.0722010345381511
35.218064,6.851676813912324,0.0718236131674365
35.222668,6.870700544580486,0.0714051160171958
35.227259999999994,6.898185739419916,0.0709464537132069
35.231856,6.932988594554675,0.0704616702016936
35.236439999999995,6.9695903185847285,0.0699766016173808
35.24104,7.015186387091261,0.0694654586206605
35.245619999999995,7.0610709664747136,0.0689898603852159
35.250224,7.116971509496437,0.0684792699252444
35.254811999999994,7.174837247576232,0.0680063169989405
35.259408,7.232991496532945,0.0675679633179201
35.264,7.28885813773778,0.0671685652437408
35.268595999999995,7.352042439237943,0.0667482680481016
35.273184,7.425609258518815,0.0662886777575241
35.27778,7.501874381142631,0.0658301415600508
35.282368,7.579283307642386,0.065367060172531
35.286964,7.659268352770939,0.0649134010867938
35.291548,7.738598332880135,0.0644566396181209
35.296144,7.821648235494068,0.0639910120586891
35.300732,7.908418060612738,0.063521252416789
35.305328,7.999396547092729,0.0630268852651469
35.309912,8.088698349391569,0.0625429237065766
35.314499999999995,8.174891152756402,0.0620564433900437
35.319095999999995,8.253766295825907,0.0615978830817381
35.323684,8.330964754714259,0.0611461819738873
35.328275999999995,8.411228071087994,0.0606850930469374
35.332863999999994,8.488382388527718,0.0602168273233931
35.337452,8.564348760642876,0.0597315644257805
35.34206,8.635285080214583,0.0592445400546191
35.346647999999995,8.70041409750934,0.0587490216951596
35.351248,8.763577919746027,0.0582310597743606
35.35583999999999,8.82567598137229,0.0576919707860903
35.360428,8.880045687112162,0.0571516841891489
35.365019999999994,8.920679506709021,0.056641422302827
35.36962,8.956283273762432,0.0561255204813672
35.374212,8.984813749948806,0.0556138234016059
35.378808,9.004594251086994,0.0551019708534275
35.383404,9.02024413412938,0.0545801452973358
35.38798,9.028820726304726,0.0540589468674649
35.392584,9.027625724270091,0.0535403597538484
35.39716,9.01155103221651,0.0530490754160672
35.401764,8.987137060705805,0.052570710875497
35.406347999999994,8.95528324418563,0.0521042681622013
35.41094399999999,8.918932255427213,0.0516357596774201
35.415532,8.872809672458816,0.0511628321643011
35.420123999999994,8.812706833919117,0.0507116444040146
35.424712,8.74594140010345,0.0502724754618289
35.429303999999995,8.66572859102169,0.0498650635818833
35.433892,8.577831567502164,0.0494730391803155
35.43848,8.485070817601962,0.0490894877734832
35.443056,8.385647472425788,0.0487148070263392
