Time,Force,Position
33.184148,3.136063665213856,0.1764247505835434
33.188748,3.347676511572834,0.1744186661414802
33.193344,3.545044253668744,0.1729140376711318
33.197936,3.727101130891161,0.1716636249127274
33.202516,3.899654445517039,0.1702178025596286
33.207111999999995,4.059228644469933,0.1688109348720115
33.211712,4.206845346911635,0.1674012502772995
33.216304,4.340705683946852,0.1661416397507261
33.220896,4.458477906375075,0.1649864985636217
33.225488,4.560039829482158,0.163931540177425
33.230076,4.645147083839812,0.1629256489812292
33.234663999999995,4.713799669448036,0.1619936903075219
33.239252,4.768573704935627,0.1610982115380929
33.243828,4.804439137759137,0.1603268081473892
33.24842,4.822295402366211,0.1596411600500182
33.253008,4.8193661521483895,0.1591710761812212
33.289744,4.407680203640491,0.1591057986557682
33.29434,4.341939571908286,0.1590930600338942
33.298919999999995,4.27848654792796,0.1589633032722631
33.303512,4.215155708661779,0.1588046187311823
33.3081,4.147982762176715,0.1587581866843716
33.3127,4.084163184053952,0.1586261377812247
33.317288,4.02255317041755,0.1584662235625986
33.321887999999994,3.966872643772245,0.1581830330437375
33.32648,3.916877234689746,0.1577969756606641
33.331076,3.864105478998787,0.1575639329693209
33.335668,3.817796090604136,0.1572106276655713
33.34026,3.77386259285862,0.1568966535912279
33.344868,3.738068146590563,0.1564407486652062
33.349464,3.708369513476377,0.1559126544311482
33.354052,3.684111628496708,0.155306459571403
33.358652,3.665338633100181,0.1546961282541442
33.363243999999995,3.6543381350386777,0.1539722282424323
33.367844,3.650499210741468,0.1532150154961678
33.372432,3.6563538373887208,0.1522864001226228
33.377024,3.6667939191714702,0.1513840884940648
33.381612,3.677977348870832,0.1506369588525025
33.386212,3.6926024298297504,0.1499736178977057
33.3908,3.707848673991136,0.1494842212706548
33.395396,3.7266587541262233,0.1490673515344423
33.399992,3.754918015777483,0.1485228192339158
33.40458,3.7831433756118527,0.1481464559618345
33.409172,3.818241798333596,0.1477176447067841
33.413764,3.8593138494950656,0.1472654803591242
33.418356,3.902761791305671,0.146872495770279
33.422948,3.955370403755527,0.1463203210168639
33.427536,4.00639061492149,0.1459478741173734
33.432148,4.062973758936114,0.1455098273912237
33.436736,4.127940323856488,0.1449670948695673
33.441323999999994,4.195649333568435,0.144442027957412
33.445916,4.263813180320073,0.1440135476644649
33.450503999999995,4.339827567672252,0.1434573359086498
33.455099999999995,4.420994192282026,0.1428393320516021
33.45968,4.498973774692274,0.1423457148293027
33.464276,4.575320814370002,0.1419614977588601
33.468852,4.651667854047727,0.1415796315795001
33.473448,4.733900239267923,0.1410565076235218
33.47804,4.821240720297086,0.1404178640241686
33.48264,4.910624439649837,0.1397210718366096
33.487232,4.998042963944518,0.139014672070802
33.491824,5.0783881973721625,0.1384428870106963
33.496404,5.164085896037065,0.1377269642034292
33.501,5.242954673263223,0.1371309110918656
33.505588,5.314339464031279,0.1366407430326228
33.51018,5.3838812444554085,0.1361362043855114
33.514772,5.447737907316733,0.1357027430044687
33.519355999999995,5.512816417319515,0.135167557985604
33.523936,5.573475798349577,0.134654899897021
33.528527999999994,5.621376770949794,0.1343208694280707
33.533124,5.669966710386257,0.133891050007138
33.537716,5.719612170801403,0.1333280264182649
33.542308,5.75866464582444,0.1328747627888512
33.546888,5.788800819636513,0.1325047727128905
33.551483999999995,5.815006603332448,0.1321033006454162
33.556068,5.839203050521685,0.1316398400460024
33.560648,5.862167410937727,0.1311108256478657
33.565244,5.878014339038102,0.1306346326674484
33.569824,5.887643269270461,0.1301980822772473
33.574411999999995,5.895507232424412,0.1296829403869612
33.579007999999995,5.9025498043962354,0.1291230868567461
33.5836,5.909259724042509,0.1284783779794097
33.588196,5.90717552719197,0.1278919991896637
33.592783999999995,5.904514308587589,0.1272405885535374
33.597376,5.901031698801076,0.126539418548911
33.601955999999994,5.896849882546581,0.1257858991103873
33.606559999999995,5.892868294271747,0.1249651797102755
33.611152,5.886266445919486,0.1241220977654595
33.615748,5.878965391099241,0.1232222919138432
33.620328,5.870354206240282,0.1222985472634557
33.624924,5.854669730514287,0.1214580431475531
33.62952,5.833588648102404,0.1206823811740279
33.634116,5.812996304547105,0.1198647828131973
33.638704,5.792648330420096,0.1190227210932816
33.6433,5.772666910435524,0.1181465333793728
33.647887999999995,5.748965567946216,0.1173190142077516
33.65248,5.720278314362086,0.1165776610741731
33.657067999999995,5.692246125797314,0.1158382731381917
33.66166,5.657062603099985,0.1152357451024013
33.666252,5.619102733794197,0.1147226994010737
33.670828,5.5816757447936185,0.1142201297040457
33.675424,5.544292897241667,0.1137654715244722
33.680012,5.508097995014284,0.1133287612039362
33.684604,5.472968853397323,0.1129199511959928
33.689187999999994,5.439927091552578,0.1125196613699111
33.693768,5.403087363937578,0.1122311239910066
33.69838,5.365147973895269,0.1120211023516421
33.702968,5.327785605606797,0.1118776771605527
33.707572,5.29141095466323,0.1118265964600561
33.712156,5.263419724625413,0.1117113078502908
33.716756,5.238048754665021,0.1116257375473031
33.721352,5.21938452142923,0.1114888476886102
33.725944,5.203096178842573,0.1114003836260735
33.73054,5.192248584390432,0.1113015772999742
33.735128,5.1825108919973415,0.1112906759399365
33.739715999999994,5.178213947738766,0.1112706137259002
33.744308,5.182422609100085,0.1111828218052462
33.748908,5.188596465519474,0.1111193991663826
33.753496,5.205563535310637,0.1109300636303063
33.758095999999995,5.227560657645251,0.1107075719848156
33.762688,5.250256986447849,0.1105480149430327
33.767284,5.280926040565132,0.1103098562420256
33.771868,5.314337539473987,0.1100939444226387
33.77646,5.347915364545616,0.1099221153378525
33.78106,5.384724373265398,0.1097412838872013
33.785652,5.429628292014013,0.1094733794131586
33.79024,5.478785013572575,0.1091756842832358
33.794832,5.529618419312286,0.1088671343560385
33.799423999999995,5.582495063375586,0.1085230091790948
33.804008,5.633084099687006,0.1082406814201795
33.808595999999994,5.687270873789019,0.1079232159167308
33.813171999999994,5.740069474586801,0.107659603839087
33.817764,5.792745890670435,0.1074029377640915
33.822351999999995,5.8437456225729205,0.1071630071603998
33.826947999999994,5.901119438874458,0.1068057552220764
33.831536,5.957060940423137,0.1064463557835152
33.836124,6.010426323343018,0.1061142958206758
33.840736,6.063014456529397,0.1057843021034061
33.845324,6.110983232763393,0.1055117050464632
33.849931999999995,6.155598640635088,0.1052616562496201
33.85452,6.201191526219946,0.1049497275810869
33.859108,6.240610555385417,0.1046964144245667
33.863699999999994,6.2819064967117,0.1043761702973265
33.868292,6.323158296589357,0.1040093205354602
33.872888,6.362977781714154,0.1036421312876333
33.87748,6.395601791257767,0.1033426564983974
33.882076,6.427937289924462,0.1030189154964351
33.886664,6.460106462428382,0.1026606248249531
33.891251999999994,6.490066070445942,0.1022983859772007
33.895832,6.518060483405433,0.101914385720165
33.900436,6.54000322465968,0.1015689050905434
33.905027999999994,6.559858586141711,0.1012108253966992
33.909624,6.580569240622762,0.1008022284900715
33.91422,6.598948145903306,0.1003950583997391
33.918812,6.613851498107406,0.10001696656415
33.92342,6.627200350844501,0.0996392635997951
33.928011999999995,6.636296400771648,0.0992818499832636
33.932604,6.643305070926578,0.0989087663582125
33.937196,6.651046849366384,0.0984923965873179
33.941784,6.658133562786833,0.0980683426056542
33.946368,6.662521972864338,0.0976664338520325
33.950956,6.66535588347484,0.0972629124668173
33.955552,6.663570437132955,0.0969016568096919
33.96014,6.663706044400512,0.0965212145443972
33.964735999999995,6.662531521629356,0.0961266482254829
33.969328,6.661845737714783,0.0957013694179357
33.973907999999994,6.654986097380823,0.0953140235760001
33.978496,6.648248641761006,0.0949204087614914
33.98308,6.64175555556948,0.0945125162007622
33.987656,6.636284088539749,0.0940908619932253
33.992248,6.636820151766632,0.0935971336283838
33.996835999999995,6.637356214993516,0.0931039822430349
34.00142,6.638791712668048,0.0926076775717029
34.006015999999995,6.639982840914287,0.0921245493609137
34.010608,6.636310242779851,0.091691747453476
34.0152,6.633292709664772,0.091266829095322
34.019776,6.635138902930369,0.090791642440952
34.024372,6.641482268434205,0.0902895027222179
34.028952,6.6492579486909005,0.0897996613579245
34.033552,6.658832497842892,0.0892997643214926
34.038144,6.672126969499619,0.0887739772693969
34.042736,6.687098125337497,0.0882438191594242
34.047315999999995,6.704523215090026,0.0877114984978111
34.051908,6.719005632071321,0.0872114858281163
34.056496,6.733776559929535,0.0867431018274102
34.061091999999995,6.752023040864195,0.0862625377847722
34.06568,6.771579651837569,0.0857956285769967
34.070263999999995,6.788726470344917,0.0853750208420249
34.074852,6.805262365281539,0.0849901452323969
34.079443999999995,6.824374378846958,0.0846006757870765
34.084028,6.840954415232206,0.0842659059768853
34.088615999999995,6.856512832455662,0.0839433350638698
34.093216,6.8720712496791165,0.0836245666826528
34.0978,6.8915939588356006,0.0832691885651297
34.102384,6.917657078553912,0.0828697758677346
34.10698,6.947806674919396,0.0824303949697241
34.111563999999994,6.97963295546603,0.0819965945334652
34.11616,7.011337051298519,0.0815763347583468
34.120743999999995,7.041242278235711,0.0811673303987201
34.125332,7.0747452429634965,0.0807481815357598
34.129932,7.104283915758252,0.0803674482905111
34.134519999999995,7.136643076610096,0.0799721147068396
34.139115999999994,7.1712898452138205,0.07954864744988
34.143696,7.211577589931722,0.0790950630628054
34.148295999999995,7.251088084916122,0.078641004470949
34.152884,7.291742383776461,0.0781779628236137
34.157484,7.340325266502856,0.0776550556267408
34.162071999999995,7.392994625876426,0.0770971620342883
34.166672,7.44807377771602,0.0765061981806089
34.171256,7.505073983165055,0.0759138467088431
34.175847999999995,7.563584546632467,0.0752937560076081
34.180436,7.624915598156967,0.074661605006448
34.185024,7.681382923300791,0.074065593313648
34.189612,7.737072998711113,0.0734762826028969
34.194204,7.787488652149694,0.0729049308529426
34.198792,7.836882686426481,0.0723525755653056
34.203376,7.883700602074471,0.0718111193324112
34.20796,7.927042964646016,0.071279550681067
34.212556,7.970874066074143,0.0707282971859642
34.217147999999995,8.008653495797025,0.0701896091783095
34.221736,8.050641586881227,0.0696163370277813
34.226332,8.091197363212572,0.069037791434425
34.230923999999995,8.127911032325033,0.0684846101922814
34.235504,8.159350279465752,0.0679457910088779
34.2401,8.192177699910703,0.0673857157007913
34.244688,8.224105685908006,0.0668344406501032
34.24928,8.252558118828862,0.0662952944509906
34.253871999999994,8.279578236996858,0.0657495688510682
34.25846,8.307497789612507,0.0652077703141092
34.263056,8.326667367179965,0.0646761034533527
34.267652,8.344160260566273,0.0641460609245293
34.272256,8.360220839199723,0.0636065642751873
34.276848,8.383432751965728,0.0630214821354112
34.281451999999994,8.40304692694114,0.0624449450336069
34.286027999999995,8.423682721078348,0.0618615757672216
34.290624,8.439166277957959,0.0612787196956767
34.295204,8.449131043437538,0.0607085390886246
34.299808,8.461261231954847,0.0601217400321831
34.3044,8.474168670205659,0.0595412126764818
34.308996,8.48797554290412,0.0589591642598455
34.313579999999995,8.495242005040755,0.0583966801197735
34.318172,8.504551705500976,0.0578260176512348
34.322759999999995,8.514105775389488,0.0572450288071613
34.327355999999995,8.521860976382706,0.0566649276417059
34.331948,8.527817308480627,0.056088251692843
34.336548,8.527233230016723,0.0555270268428523
34.341128,8.518842752400907,0.0549962355646469
34.345716,8.505344178976125,0.0544933890104417
34.350292,8.48542737970366,0.0540000775970627
34.354887999999995,8.468863948793496,0.0535107140957264
34.35948,8.44731460678851,0.0530422141890972
34.364068,8.424988015050022,0.0525678338490506
34.368668,8.394855024159623,0.0521221614884266
34.373256,8.360757741336194,0.051689137819386
34.377848,8.326416089084475,0.0512642949640487
34.382439999999995,8.287865775471435,0.0508613104908426
34.387016,8.24894890771596,0.0504687914883085
34.391624,8.200959652218488,0.0501172484180072
34.396212,8.142465694226162,0.049790865437765
34.400811999999995,8.078086390691366,0.0494826547454507
34.405404,8.012685467994775,0.0491743012678122
34.409991999999995,7.9361689192326015,0.0489183547871605
