Time,Force,Position
33.234635999999995,2.7681486287883645,0.1521227966029217
33.239236,2.9455554301631786,0.150986066802921
33.24382,3.117643668117623,0.1501546436761342
33.24842,3.285146450936572,0.1492829974631462
33.253012,3.446142725010584,0.1485636850351039
33.257608,3.5979341869967154,0.148118397829704
33.262192,3.74575111741808,0.1475929540542789
33.266788,3.888205342970447,0.1470413198649315
33.271384,4.02235419088258,0.146631217336442
33.275983999999994,4.1506074536205055,0.1461891859677816
33.28058,4.270022458412988,0.1458089768281494
33.285176,4.377245836897726,0.1455712729033073
33.289764,4.476896946027106,0.1453164966281062
33.294348,4.56807635135348,0.1450875003454509
33.326491999999995,5.032153387989761,0.1449695367311677
33.331076,5.088302174228169,0.1449221203313155
33.335663999999994,5.141297820083942,0.1448433810464513
33.34026,5.191917575290579,0.144728960165042
33.344852,5.240283624562227,0.1445698972900925
33.34946,5.290770955422981,0.1443015713835373
33.354052,5.3322198003586285,0.1441414766693994
33.358639999999994,5.368716636016343,0.1439813959974162
33.363228,5.404470123757446,0.1437146276072265
33.367819999999995,5.436293221382408,0.1434269655926688
33.372423999999995,5.464674667747815,0.1430727268971078
33.377012,5.493334385358402,0.1425841788741836
33.381604,5.521006385624084,0.1420086862357513
33.386184,5.542416246573121,0.1414234218842775
33.390784,5.558585587367307,0.1408078541196021
33.395371999999995,5.573889395530733,0.1400946711305827
33.399972,5.5802769024832,0.1394699097294458
33.404564,5.585676692090761,0.1387506047394539
33.40916,5.58444778823924,0.1380494581034021
33.413743999999994,5.57904412484329,0.1373393071018864
33.418336,5.567544648293464,0.1366573661725381
33.422923999999995,5.548028304980328,0.1360444140241076
33.427519999999994,5.52319339824682,0.1354524954737271
33.4321,5.494960981702383,0.1348411357950678
33.436684,5.463208870632873,0.1342187776212449
33.441275999999995,5.419597785581166,0.1337377077790764
33.445868,5.375942559080831,0.1331980435067675
33.450452,5.333509179721952,0.1325482582668074
33.45504,5.284124694210183,0.1319876099619132
33.459636,5.231631209764405,0.1314362866130822
33.464223999999994,5.180037159766274,0.1308600213071228
33.468816,5.121658329778026,0.1304203174825462
33.4734,5.061847185036918,0.1299622596637379
33.477988,5.004612158924609,0.1294601436777882
33.482588,4.9452117097745685,0.1290093057593202
33.487176,4.881602599263205,0.1286592254537837
33.491764,4.822368476275937,0.1282398022562056
33.49636,4.762523429717941,0.1278649374172085
33.500955999999995,4.7030890787510105,0.1275141449124198
33.505551999999994,4.643821053946852,0.1272076419011263
33.510132,4.590115961991356,0.1268514277040111
33.514723999999994,4.538009510951494,0.1265441730228849
33.519304,4.489667123864997,0.126222949380148
33.523903999999995,4.446765484913015,0.1258600719460933
33.528488,4.407261355771962,0.1255141054151819
33.533088,4.377695147003662,0.1250599762152792
33.537672,4.35434693610338,0.1245702449873922
33.542268,4.330964823386211,0.1242152412154982
33.546876,4.311513100785177,0.123903834483351
33.551472,4.299345136662584,0.1235980115099849
33.556059999999995,4.292906431551426,0.1233082252047808
33.560655999999994,4.295384027651229,0.1229420290757343
33.565248,4.297583352505851,0.1227375676047455
33.56984,4.305389751657763,0.1225625074776399
33.574428,4.322645332325845,0.1223352304120612
33.579016,4.3475512256148034,0.1220828734847553
33.583603999999994,4.3756102592864,0.1218831530996847
33.5882,4.411563975007163,0.1216424890475384
33.592796,4.456311807224743,0.1213463055398025
33.597372,4.509076506205634,0.121000145400172
33.601972,4.5660159647309575,0.1206908731807711
33.606556,4.628029617248358,0.1203869809446947
33.61114,4.697160702081424,0.120054466785383
33.615736,4.766624439240037,0.1198329366249539
33.620324,4.837564632600137,0.1196753281126655
33.624931999999994,4.908304597980575,0.1196027664650919
33.62952,4.979743769828997,0.1195990915562882
33.634116,5.0590334822779575,0.1195046344230666
33.638712,5.142698182251012,0.1193520984988782
33.643308,5.228406120547653,0.1191690475356758
33.647904,5.314358428272587,0.1189812837278694
33.6525,5.400965801016875,0.1188082395663093
33.657104,5.49525738819893,0.1185033192500431
33.661696,5.588238845342273,0.11819629428813
33.666292,5.679543618304465,0.1179175279678227
33.67088,5.770437695675592,0.117621971861348
33.67548,5.862964315779241,0.1172728692153973
33.68006,5.951238133072942,0.1169691443157545
33.684648,6.039223439489724,0.1166526324544598
33.689235999999994,6.1240997469724965,0.116355247337973
33.693828,6.203779675749044,0.1160600460182048
33.698408,6.281205898590605,0.1157162039062061
33.703,6.35319137329765,0.1153938212212593
33.707587999999994,6.422145892336204,0.1150248284929808
33.712184,6.487947270992119,0.1146137914191136
33.716772,6.550839878693689,0.1141488249170576
33.721368,6.612089704031002,0.1136027809270312
33.725956,6.663768163137994,0.1131003751343506
33.730556,6.712171297148205,0.1125733775343853
33.735144,6.752679749109249,0.1120749211340025
33.739736,6.78541570373527,0.1115935952848026
33.744319999999995,6.812300214635712,0.1111016279227921
33.748912,6.832311662648778,0.1106204244662712
33.753504,6.844839124203743,0.1101780726354081
33.758084,6.849594088423686,0.1097463059158309
33.762671999999995,6.848008870061465,0.1093302316673001
33.767267999999994,6.834198123574611,0.1090086659658403
33.771856,6.817234236705121,0.1086458885263454
33.776444,6.789188625586937,0.1083540852441786
33.781036,6.755580081620091,0.1080747831467958
33.785628,6.721560842062181,0.1077710808189379
33.79022,6.686353657179703,0.1074433182343604
33.794799999999995,6.64738240834386,0.1071086406182142
33.799395999999994,6.606201595021657,0.1067644870206373
33.803976,6.565753889984329,0.1063711644688945
33.808575999999995,6.526205619394647,0.105965925606086
33.813164,6.480772003262494,0.1056342860898291
33.817764,6.43431676796855,0.1053146956774779
33.822348,6.3850410446175125,0.1050225674452206
33.82694,6.332456094352803,0.1047913227005782
33.831528,6.277461351622073,0.1046136494673573
33.836124,6.223121673910697,0.1044392632145705
33.840712,6.166494388447447,0.1043080942244076
33.845308,6.11473082936487,0.104108814126985
33.849884,6.067220073092241,0.1038803530819219
33.854471999999994,6.0248615540772095,0.1036152906378281
33.85906,5.993174063719805,0.1032589909351864
33.863643999999994,5.963451768420472,0.1029225626562023
33.868236,5.9385151562362966,0.1025747742291467
33.872816,5.919508031043218,0.1021921619659427
33.877416,5.901566666460563,0.1018405465477414
33.882003999999995,5.882647824164742,0.1015516405755875
33.886596,5.868148110841642,0.1012775604915438
33.891192,5.859089145653057,0.1010035768725646
33.895779999999995,5.852528255827753,0.1007703175396626
33.900375999999994,5.8471553113270165,0.1005616669928459
33.904964,5.850410157160321,0.1003005953778631
33.909564,5.861026804737584,0.1000193461035139
33.914156,5.8765513201441495,0.0997252192558555
33.918747999999994,5.900825810598903,0.0993697736671068
33.92334,5.935404775568848,0.0989545572979168
33.927935999999995,5.975546673387454,0.0985379489468304
33.93254,6.022273123216514,0.0981033083636429
33.937116,6.073663071446587,0.0976825660503151
33.941716,6.126118780287082,0.0972977202033901
33.946292,6.180661868899792,0.0969386692208571
33.950892,6.2377810761413,0.0965785895904176
33.955476,6.298664347336173,0.096233483162042
33.960068,6.36559929023629,0.0958598792063778
33.964648,6.430246625384528,0.0955342698675193
33.969244,6.497470079161565,0.0952008897651188
33.973836,6.571111758786281,0.0948190104228287
33.978424,6.648473360915735,0.094413033208581
33.983,6.723913909435748,0.0940338196344608
33.987587999999995,6.799354457955761,0.0936601407482699
33.992163999999995,6.87659387537107,0.0932811881054764
33.996759999999995,6.953056043052875,0.0929127737897548
34.001344,7.029107515143616,0.0925329049235765
34.005924,7.10618060639615,0.0921490703499121
34.010504,7.187340174295859,0.091730821720619
34.015088,7.268333416032794,0.0912926280806451
34.019676,7.345196039673926,0.0908666054895589
34.02428,7.417928045219257,0.0904522954455162
34.028856,7.482442956021611,0.0900940448647452
34.033444,7.546424986518754,0.0897238019616397
34.038039999999995,7.608564006671973,0.0893324359906865
34.042615999999995,7.667471843177038,0.0889520217343496
34.047211999999995,7.725025408194762,0.0885253698481108
34.051796,7.779181463401557,0.0880758099400816
34.056396,7.832149573283785,0.0876055475690025
34.060972,7.880209815336709,0.0871416085679415
34.065572,7.926427047045708,0.0866596029933444
34.070164,7.966181911458399,0.0861829450710724
34.074755999999994,8.001806157775288,0.085710013252337
34.079336,8.035587393748253,0.0852124851166276
34.083928,8.065482381053707,0.0847106771649557
34.088516,8.087771197186914,0.0842243219224632
34.093112,8.104130526329023,0.0837517220310756
34.0977,8.114682553194177,0.0832860807911542
34.102292,8.111987432772906,0.0828705485138576
34.106868,8.104140075094042,0.0824690104009634
34.111452,8.096126391252403,0.0820363287300805
34.116043999999995,8.08704694680034,0.0815757946678617
34.120632,8.079722229794946,0.0810685486831387
34.125224,8.073130621074426,0.0805279933158974
34.129811999999994,8.059998601792078,0.0800233204875518
34.134404,8.039548922214404,0.0795515545170291
34.139,8.0143577009702,0.0791078752713909
34.143587999999994,7.983281134183523,0.0787058482094666
34.148196,7.952571121539284,0.078284330893261
34.152784,7.922349847751628,0.0778366345128877
34.157371999999995,7.882523305916765,0.0774492001468854
34.16196,7.843474013815404,0.0770608185957712
34.166548,7.808755567789509,0.0766215274284217
34.171139999999994,7.771094448992379,0.0762006260981297
34.17572,7.734332764642898,0.0757740707011904
34.180319999999995,7.704644371160453,0.0753256941593936
34.184908,7.675733227411511,0.0748766651048447
34.189504,7.648254398415427,0.0744363073210224
34.194087999999994,7.629769913895823,0.0739624640818169
34.198688,7.609897256071987,0.0735130652448961
34.203272,7.58863642494392,0.0730878926836241
34.207868,7.566886854959272,0.0726835540663276
34.212464,7.551311141394011,0.0722653514241787
34.21706,7.532426200915079,0.0718836012175661
34.221664,7.518038432674388,0.0714856832982177
34.226256,7.513910997500258,0.0710397303219456
34.230847999999995,7.513136930688427,0.0705940658847364
34.23544,7.520702143333721,0.0701131686041723
34.240027999999995,7.529821855446017,0.069640098882827
34.244612,7.541028947330529,0.0691892051717325
34.249199999999995,7.561474753119811,0.0687004608419021
34.253792,7.582453439214305,0.068227687371489
34.258384,7.604742255347511,0.067778525979525
34.262972,7.633327112614253,0.0673158307787682
34.267571999999994,7.662689219614496,0.066859813707773
34.272147999999994,7.688453588824148,0.0664159474206021
34.276736,7.717693511110245,0.0659711324977115
34.281319999999994,7.751142094757662,0.0654936045941847
34.285908,7.781770190347991,0.065032338457573
34.290499999999994,7.815463143423699,0.0645498887258713
34.295095999999994,7.854552703185296,0.0640592664940012
34.299684,7.89813943518513,0.0635621509186912
34.304284,7.938250614108519,0.0630746974637733
34.308884,7.983225519412586,0.0625652984119022
34.313488,8.032164716649678,0.0620390555289774
34.318064,8.076240187506096,0.0615440171526913
34.32266,8.120682212504951,0.0610373992614071
34.32724,8.161282130284922,0.0605527292035704
34.331836,8.203680916960192,0.0600704145664993
34.336423999999994,8.24938893054913,0.0595639011290164
34.341024,8.293542444671065,0.0590555261129918
34.34562,8.339861381830733,0.05853282511652
34.350212,8.380783712304513,0.0580199354196468
34.354792,8.414388382482965,0.0575233030248433
34.359384,8.446438553194414,0.0570212214615729
34.363975999999994,8.477467104744068,0.056525465303511
34.368568,8.50784059127437,0.0560241938586733
34.373155999999994,8.534249785871637,0.0555457191516406
34.377748,8.562580034078348,0.0550636589747454
34.38234,8.584247687009087,0.0546013638394834
34.386928,8.600763102682231,0.0541359119306566
34.391524,8.612004096383632,0.0536706763523632
34.396116,8.61801480956192,0.0532383739040089
34.400707999999995,8.617485112178382,0.0528207110792769
34.405283999999995,8.612336057842459,0.0524126858453771
34.409876,8.604610884877738,0.0520000082898977
34.414468,8.592799235265844,0.0516084750197004
34.419052,8.577512032577502,0.0512117863902626
34.423648,8.554784984879687,0.0508271267200764
34.428236,8.525028787763466,0.0504746581523829
34.432835999999995,8.491186114000069,0.0501416689674338
34.437431999999994,8.450680844960699,0.0498233374008734
34.44202,8.407887968169451,0.0495222891770215
34.446624,8.36791557943529,0.0492124839393961
34.451212,8.319403683264348,0.0489572865419995
34.455804,8.269992352645756,0.0486992635065984
34.460384,8.212774622875253,0.0484651725665633
34.464983999999994,8.14852774368634,0.0482604649583829
34.469564,8.076596650059662,0.0480742550337065
34.474163999999995,8.007363859775928,0.0478842192994936
34.478748,7.934821842578523,0.0477174089325063
34.48334,7.859214967895735,0.0475627518326415
34.487931999999994,7.783075212907737,0.0473884664800255
34.492524,7.70669108849145,0.0472214770550294
34.497128,7.621234576333165,0.0470954106882625
34.501724,7.530669968365913,0.0469937305323735
