Time,Force,Position
35.492940000000004,2.8436002592866654,0.1612029230851189
35.497568,3.0447320653359373,0.1607474456575774
35.502196,3.242255893962879,0.160014532088707
35.50684000000001,3.4351501260056967,0.1590231657993115
35.511472,3.6204720886931554,0.1581748187332514
35.516108,3.800265020348844,0.1572961903105602
35.520748,3.963369153458548,0.1569997246326209
35.52538799999999,4.11987849492606,0.1566572128749022
35.530024,4.26836072999852,0.1561890321177806
35.53466399999999,4.414456834790107,0.1554394463698965
35.53929600000001,4.5443087384436645,0.1548375280656139
35.54393200000001,4.668298958739905,0.1540808234776167
35.54856799999999,4.779598574240081,0.1533328585053464
35.55320800000001,4.877430335210689,0.1526199135371003
35.557852,4.961261361346519,0.1518884512587381
35.56249199999999,5.035100086029227,0.1510926549039916
35.567132000000015,5.097969031545649,0.1503347853020393
35.57178400000001,5.147824959572198,0.1496340322781513
35.576415999999995,5.180703578175843,0.1491060694683311
35.58105599999999,5.212017457680745,0.1484344697305169
35.585688000000005,5.234981818096787,0.1477626293083519
35.59032400000001,5.24869722497632,0.1471055343548962
35.59494799999999,5.252019874443406,0.1465016839918421
35.59958,5.249569123450429,0.1458512256484296
35.60421600000001,5.241467156711534,0.1451422594267325
35.608856,5.227058909207365,0.1443696935277088
35.61348799999999,5.209042684280864,0.1434751272322285
35.61812800000001,5.17744665974239,0.1427176930815401
35.62275600000001,5.137667442277829,0.1419912858153281
35.627408,5.089582847173035,0.1413007070702743
35.63203999999999,5.043208838066281,0.1404471832394014
35.63668799999999,4.987263462729207,0.1396780486559134
35.641328000000016,4.9263660781142,0.1388915984976526
35.645972,4.856718718451006,0.1382491030802578
35.650632,4.785883413463245,0.1375662027627658
35.655276000000015,4.710673120951392,0.1369396216186816
35.659908,4.627612287838997,0.1364377285241004
35.664536,4.548515746659632,0.1358112870870461
35.66917599999999,4.472239693537356,0.1351096593128654
35.67380399999999,4.3859918182254365,0.1346558134882611
35.678448,4.299010834628642,0.1342727649577943
35.68307200000001,4.216038284413504,0.1338290780098665
35.687704,4.136585428723441,0.1333852119855362
35.692352,4.057054529767859,0.1330136124886769
35.696984000000015,3.980921140623207,0.1326372026391367
35.70162400000001,3.905531099395167,0.1323964246322099
35.706264000000004,3.831906025245535,0.1322669117207735
35.71090000000001,3.7685073823455766,0.1320419326954089
35.715543999999994,3.7161124204287943,0.1317012117691731
35.72018800000001,3.666137490609776,0.1314831914406501
35.724819999999994,3.619848581478604,0.1313220883153683
35.72946400000001,3.580721246111726,0.1311674346617873
35.734092000000004,3.549166180100207,0.1310504995655516
35.73871600000001,3.530780218109596,0.130757401134014
35.74336,3.5155915379502507,0.1305915055312037
35.74799999999999,3.50948548516464,0.1303828130142444
35.752635999999995,3.516959231991004,0.1300383813435632
35.75727599999999,3.5266086414868387,0.1298568432377252
35.761911999999995,3.5482833511276444,0.1295675364187973
35.76655199999999,3.5817389914851265,0.1291879788587615
35.771196,3.627097747273434,0.1287078144282341
35.77583200000001,3.678596457664241,0.1282867010824522
35.780472,3.737623295961779,0.1278473455161557
35.78511599999999,3.806998750223136,0.1273291030842464
35.78974400000001,3.88120402904828,0.1268613312426066
35.79439199999999,3.964325609084385,0.1263118653274684
35.79902799999999,4.054564621436156,0.1257070726474603
35.80366000000001,4.146524459417705,0.1251634059465327
35.80830800000001,4.237384634971942,0.1247542011770206
35.81294,4.334052112803132,0.1242800302389339
35.81757200000001,4.431418797102307,0.1238792456282216
35.82220799999999,4.534592783678434,0.1234327487561203
35.826832,4.6403428888833576,0.1229688982015629
35.83147199999999,4.7445826360699055,0.12260257238775
35.836112000000014,4.85368610963713,0.1221335286134491
35.840744,4.959969095147265,0.1217386102801985
35.845392000000004,5.064575396476251,0.1213934145577135
35.85004000000001,5.170569871109468,0.1209836943959718
35.85468,5.265648947656764,0.1207662551198475
35.85931199999999,5.355942341088901,0.1205853819528696
35.86394799999999,5.439118302205373,0.120450853862153
35.86857599999999,5.517097884615621,0.1203188849508535
35.87322399999999,5.5943782605578845,0.1201395018933288
35.87786800000001,5.66544063863213,0.119993342561253
35.88249999999999,5.732983322181303,0.1198381497806693
35.887144000000006,5.795573996452542,0.1196757406629804
35.891772,5.853989911179351,0.1194971877215914
35.89640399999999,5.907576001342372,0.1192905913579551
35.90104400000001,5.956576636369899,0.1190385101044134
35.90568400000001,6.000747446833641,0.1187656546089651
35.910324,6.046218147704353,0.1183549287201528
35.914964,6.080562982877745,0.1179945333087621
35.91960399999999,6.1076240595727,0.117625328560457
35.92424,6.132142919455745,0.1171787451318775
35.92887999999999,6.147334782536763,0.1167570590078548
35.93351200000001,6.155242887139341,0.1163180700634295
35.93814800000001,6.153579625511604,0.115916642570284
35.94278800000001,6.146553659014868,0.1154701156372522
35.947419999999994,6.133554064078405,0.1150152179822237
35.952068,6.116624079025804,0.1145181557792581
35.95670000000001,6.097851083629279,0.1139896431287857
35.96134000000001,6.079156131498271,0.1134013326948428
35.96599599999999,6.049135085690279,0.112916634254181
35.970624000000015,6.016249410376568,0.1124177098842571
35.97526400000001,5.975102498871254,0.1119651444888491
35.979904000000005,5.928026100374842,0.1115528779389934
35.98452800000001,5.87424296515383,0.1111834425629711
35.98916800000001,5.819560395485169,0.1108201842112232
35.99381199999999,5.763978391368863,0.1104615141708903
35.998448,5.705698083909612,0.1101268243969374
36.00308000000001,5.640510811746096,0.1098983484923988
36.007724,5.57982071182082,0.1096135776215189
36.01235600000001,5.519174753344172,0.109376407538518
36.01699199999999,5.45497519852556,0.1092241859857023
36.02162799999999,5.396460761269756,0.1090387365540179
36.02625599999999,5.341588203253172,0.1088635059965319
36.03089600000001,5.292400762799394,0.1086607672985839
36.03552400000001,5.249309135499487,0.1084519548423302
36.04017200000001,5.222162958828951,0.1080813328512834
36.044804,5.198292107255197,0.1077489200273393
36.04944,5.176919331044724,0.1074569852681611
36.054092,5.154202522978648,0.1072623500937587
36.05872,5.1417901894277644,0.1069867646211939
36.063356,5.13355261542131,0.1067431618277901
36.067988000000014,5.137051830682906,0.1064275148941914
36.07262399999999,5.144725805488933,0.1061425120226631
36.077252000000016,5.16466944986822,0.1058043971265573
36.08188799999999,5.192874330439112,0.1054294874325077
36.086528000000015,5.226031220287938,0.1050874952921635
36.09117599999999,5.265283923290634,0.1047534329040521
36.09581600000001,5.311531873894851,0.1044136426625637
36.10045199999999,5.362976203205291,0.1040988680874148
36.105084000000005,5.42088289981204,0.1037647979544245
36.109724,5.4860292134486,0.1034105020855754
36.11434800000001,5.553551417734294,0.1031158380928712
36.11899199999999,5.629334858211593,0.1027910214141568
36.123636000000005,5.706961309032815,0.1025020887195138
36.12827200000001,5.787452389359756,0.1022437331463349
36.132916,5.863490438897085,0.1020966011821382
36.13754399999999,5.94275967208257,0.101943404609884
36.142176000000006,6.023461220020912,0.1017957439113115
36.14680799999999,6.11520035075932,0.1015436325050968
36.151444,6.20939341541238,0.1012982084951853
36.15608399999999,6.306406968122528,0.101029186612445
36.16072,6.400600032775587,0.1008008931153897
36.165356,6.498757389361677,0.1005221459403139
36.16998799999999,6.592906312566108,0.1002617380458728
36.174632,6.684479117141742,0.1000272253733809
36.17926800000001,6.776129964982894,0.0997458601067743
36.1839,6.863528010014098,0.0994854053555383
36.188548,6.949205229415523,0.0991927791973864
36.193172,7.029075146539996,0.0989242858184463
36.19782000000001,7.103504315529953,0.0986565281972704
36.202452,7.17351435554719,0.0983773678226154
36.2071,7.2386945710006385,0.0980644115140313
36.21173999999999,7.294181235509626,0.0977724018395321
36.21637200000001,7.347414194083623,0.0974337448522974
36.22100399999999,7.392097405589095,0.0970948920892602
36.22563600000001,7.430684803940696,0.0967473744547638
36.230272000000014,7.463176389138426,0.0963908714889116
36.23490799999999,7.495335322010607,0.0959702086159542
36.239552,7.511793173681712,0.0956350037478008
36.24418399999999,7.519456908855999,0.09530812103577
36.24882,7.520247581142914,0.094970134035877
36.25345999999999,7.519561797228341,0.094585982009122
36.258104,7.51265801544575,0.0941962217084207
36.262744,7.497615182185702,0.0938152445941714
36.26738399999999,7.474677666876486,0.0934301197117317
36.27202,7.446954468452112,0.093044143695681
36.276668,7.416733194664455,0.0926196217776933
36.281304000000006,7.380948988028138,0.0921910562080731
36.28594799999999,7.340623467704954,0.0917458728658473
36.290604,7.299354371485494,0.0912613549511093
36.295232,7.25203360356079,0.090796819341348
36.29987199999999,7.202258901721434,0.0903295744767999
36.30451199999999,7.15464962291981,0.0898267631610773
36.309144,7.103686975755887,0.0893260861932618
36.31377599999999,7.0491265908013725,0.0888389618428429
36.31842,6.992645152237417,0.0883633956094134
36.32306,6.938084767282904,0.0878647005871805
36.32769999999999,6.880826078985446,0.087374783747176
36.33233999999999,6.828431117068663,0.0868325448974732
36.336972,6.779389523514181,0.0862773867799651
36.34161599999999,6.729614821674825,0.0857572751536354
36.34626,6.6765308929217975,0.0852809554664818
36.350888,6.622058790864539,0.0848310151935455
36.35553200000001,6.574415610246026,0.0843559659622794
36.360172000000006,6.532579731904465,0.0838682762062243
36.36480800000001,6.497817144429942,0.0833459559748354
36.369452,6.466163555889429,0.08282813261392
36.37407999999999,6.442771203540518,0.0823035059724145
36.37870799999999,6.427107207078001,0.0817556285154986
36.383344,6.414962905140561,0.0812392813918389
36.38797600000001,6.412468012698953,0.0806861015501411
36.392616,6.415536053106007,0.0801435455187713
36.39725999999999,6.421590907732923,0.079620816132302
36.401896,6.43435249908444,0.0790935863661195
36.406532,6.461138487455885,0.0785249964485137
36.411168,6.497696070037311,0.0779222905361728
36.41579999999999,6.540305324323981,0.0773153465146447
36.420432000000005,6.58770026172581,0.0767256175467415
36.42508000000001,6.640125251671089,0.0761405585214638
36.429708000000005,6.692716567779139,0.0755950202813035
36.434348,6.751726109734872,0.075021397302817
36.438976,6.8188305617194365,0.0744226544757794
36.443624,6.894807173466332,0.0738008859603049
36.448252,6.9751587727373225,0.0731823041663551
36.45288400000001,7.059640990104115,0.0725786408536105
36.457536000000005,7.140813980557237,0.0720304842902614
36.462164,7.229304631305684,0.0714650813923112
36.466800000000006,7.314319728977687,0.0709162192844963
36.47144399999999,7.399090457221399,0.0703905708068488
36.476084000000014,7.487048227664637,0.0698435308772865
36.48071200000001,7.573207129212579,0.0693126726690889
36.485344,7.655890477684076,0.0687908118039889
36.489972,7.738040945850361,0.0682634122455772
36.494608,7.819414164283144,0.0677439440610991
36.49925200000001,7.891915222953594,0.0672544188325615
36.503884,7.961062913261745,0.0667737070579457
36.508516000000014,8.023670193008073,0.0663268907059397
36.51315600000001,8.084845158001537,0.065875148467939
36.517784000000006,8.143444004366206,0.065430786725092
36.522424,8.203020328444037,0.0649463176754474
36.527052,8.260142718607218,0.0644639116902152
36.5317,8.311335621779302,0.0639854896461746
36.53634,8.355821788226786,0.0635054243413152
36.54098400000001,8.392213044645437,0.0630446704069164
36.545616,8.420220880158338,0.0625769347146864
36.55024800000001,8.444220282289583,0.0620968432100457
36.554888000000005,8.456771406029697,0.0616298174622083
36.55953199999999,8.466091346121658,0.0611530784938024
36.564168,8.469359614508376,0.0606759705189834
36.56879599999999,8.463633538418614,0.060213262008549
36.57342800000001,8.455697897842493,0.0597342919448819
36.57806,8.449272615284745,0.0592276667388835
36.582696,8.43642910687932,0.058733215469173
36.58733599999999,8.415612873159207,0.0582420415337483
36.59196800000001,8.390299467200858,0.0577522574312886
36.5966,8.360611073718411,0.0572608443645032
36.60123999999999,8.330634169359048,0.0567415784917212
36.605868000000015,8.294239039152002,0.0562313471475639
36.61051599999999,8.252325117544924,0.055728446114178
36.61516,8.20554746955717,0.0552417318587953
36.61979199999999,8.151329976559941,0.0547669404594679
36.624448,8.090205518858449,0.0543177006276324
36.629076,8.028836691728666,0.0538739668273335
36.633704,7.965668995703587,0.0534258336794498
36.63834800000001,7.902911995269575,0.0529926759045425
36.64299600000001,7.838889006245476,0.0525707634155169
36.647632000000016,7.774377278364795,0.0521633925928272
36.65226799999999,7.70745575801809,0.0517785902624124
36.65689599999999,7.642210921852535,0.0513929777176971
36.661528,7.578276215725693,0.0510231339042363
36.666168,7.511809532418683,0.0506830104330834
36.670808,7.4392131341409105,0.0503732563488443
36.67544000000001,7.366127997006553,0.0500810418462686
36.680084,7.297173477968,0.0497987569094364
36.68471199999999,7.233126826758752,0.0495341491356705
36.68935999999999,7.168224882550483,0.0493063026495957
36.69398799999999,7.099647157286107,0.0491214745907574
36.698632,7.031235758184503,0.048969207452736
36.70327599999999,6.968220965768786,0.0488118728767977
36.70790400000001,6.906516303391783,0.0486751169658859
36.71253200000001,6.851762747167671,0.0485463875641313
36.717172000000005,6.804082481810596,0.0484209979119676
36.72180399999999,6.755913477596939,0.0483178480876544
36.72643600000001,6.713018895355022,0.0482178525180966
36.731076,6.671923182008402,0.0481157979840236
36.735704,6.631360348966991,0.0480310465111965
