Time,Force,Position
35.867172,3.535103646631637,0.1543642574073363
35.871768,3.731317345219869,0.1543011596786571
35.876368,3.914429743420968,0.1540163100605254
35.880964000000006,4.081375983749558,0.1538521348502711
35.885552000000004,4.238207737910881,0.1535940835073768
35.89014400000001,4.382715441418575,0.1532035400453635
35.894732000000005,4.518619016777377,0.1526344667248786
35.899328,4.640644042015547,0.152044413688089
35.903915999999995,4.746625094095354,0.1514891063403622
35.908508,4.8416702688257605,0.1507644623548824
35.9131,4.926967511531339,0.1498894678248125
35.917688,4.995565716059196,0.1490430148573934
35.922276,5.050285370466421,0.1481655693025167
35.926860000000005,5.095868016419544,0.1471260457677686
35.931439999999995,5.12234183172892,0.1462127824407779
35.936043999999995,5.133470880347917,0.1453847476766756
35.94063200000001,5.134695910411046,0.1445862908015881
35.945228,5.126671986937666,0.1438053200458291
35.949816,5.1119752285565765,0.1429947810545025
35.954404,5.088362168964524,0.1422844427659905
35.959,5.064049902904488,0.1415061079392762
35.963592000000006,5.03585138817694,0.1407535774231138
35.968188,5.008674492611186,0.1399665708883912
35.972776,4.978144228683131,0.1392171816826767
35.97737600000001,4.942217358069188,0.1385643061379136
35.98196,4.905635422435891,0.1378988842329216
35.98656,4.864311945136063,0.137332254494558
35.991147999999995,4.822499728979652,0.1368008818677653
35.995744,4.783918696471394,0.1362283872735468
36.000328,4.745748359554205,0.1356753573286649
36.00492,4.709376891532307,0.1350824420219802
36.009508,4.67893491050151,0.1344005952799206
36.014104,4.644572778986311,0.1338745864647045
36.018692,4.606168312272566,0.1335165529057773
36.023276,4.573082408979193,0.1331281358937714
36.027863999999994,4.545315069106186,0.1327074884556145
36.03246,4.513505394034637,0.1324598608920295
36.037048,4.485093228774016,0.1322263784496722
36.04164,4.461633072791328,0.1319963113296615
36.046232,4.448888086914895,0.1316392354375546
36.05082,4.435864829793283,0.1314402477797176
36.055408,4.427793581949603,0.1312505401669234
36.059984,4.423242028630997,0.1310695051459853
36.064576,4.427118037666769,0.1308451840218856
36.069172,4.439910347913503,0.1305343721154274
36.07376000000001,4.455611429114581,0.1302886465402368
36.078372,4.4733218468223575,0.1301215548364151
36.082956,4.497128077684005,0.1299321177982897
36.087544,4.523310199194786,0.1297939716290634
36.09214,4.552889830516499,0.1296795887512892
36.101324000000005,4.619954014840826,0.1296069002174293
36.10592,4.664589901975999,0.1294591892096191
36.110524,4.715033091388123,0.1292429992942749
36.115112,4.770261963915406,0.1289999410557492
36.11971200000001,4.8243911740153775,0.1288525629698959
36.124300000000005,4.887270359163537,0.1285724008087747
36.12889200000001,4.952114739369766,0.1283144945638037
36.133480000000006,5.017003261024623,0.1281191824876807
36.13808,5.07653931744222,0.1280784775660157
36.142664,5.138895861916907,0.1279759747207175
36.147256,5.2030512752868905,0.1278501621391939
36.161028,5.381703585988313,0.1277763733438738
36.16562,5.444182315177145,0.1276860592685513
36.1702,5.512912944050885,0.1274520181942444
36.174792,5.574814651485877,0.1272984915686105
36.17938,5.637449467205744,0.1270958089416491
36.183976,5.6977525337251045,0.126904951493203
36.188568,5.758788708529339,0.1266715975024703
36.193156,5.815161384932562,0.1264571218075061
36.197752,5.867647812668274,0.1262696724870319
36.20234000000001,5.919068479793563,0.1260579332227774
36.206932,5.963493899317335,0.1258794035934151
36.21152000000001,6.009141165982561,0.1256141678277838
36.2161,6.050002749532629,0.1253807752404994
36.220708,6.090042941900568,0.12510608776769
36.2253,6.12717436331416,0.1247791913810658
36.229888,6.163195882668704,0.1243764827836087
36.234472,6.197740945821761,0.1239268213666631
36.23906,6.228233434144534,0.1234582653624363
36.243664,6.261213758198849,0.1228786996360981
36.24824,6.295538114108766,0.1222084532923569
36.252844,6.32491046074075,0.1215292003537136
36.257432,6.349985863114157,0.1208546401482526
36.262032000000005,6.36512334511481,0.1202512965071091
36.26662,6.378417816771539,0.1196175134870833
36.271216,6.3862715402937535,0.1190016029808209
36.275808,6.39150500373854,0.1183605828609663
36.280404,6.38937666543937,0.1177638779164071
36.28499600000001,6.390269043176951,0.1170681021815449
36.289592,6.387275172247023,0.1163814423179948
36.294188000000005,6.382316106259024,0.1156777618137008
36.298772,6.377357040271026,0.1149709459838932
36.303372,6.366712856720221,0.1142894025269483
36.307964,6.356024531720788,0.1135606899936036
36.312552,6.338751654710898,0.1128645038417881
36.317148,6.319557724091568,0.1121915719692072
36.321732,6.298320555148649,0.1115497656200243
36.326328,6.277327755634024,0.1108901402137889
36.33090800000001,6.25429171779581,0.1102607781268589
36.3355,6.224348715253334,0.1097328383721597
36.340092,6.194405712710856,0.1092015113044678
36.34468,6.161397852683001,0.1087157974184962
36.349264000000005,6.121238658522588,0.108345652673989
36.353848,6.0844328327244765,0.1079512831520464
36.358436,6.054289602202336,0.1074649896361997
36.363028,6.025456501718911,0.1069893227285696
36.367616,5.997933531274199,0.106525094774625
36.37222,5.972375755887556,0.1060797447949831
36.376816000000005,5.943142199444804,0.1057232454652446
36.3814,5.915218773040766,0.1053790118896576
36.385996000000006,5.88578498861835,0.1050814570062673
36.390592,5.855984650053498,0.1048068910095067
36.395184,5.8327688634991,0.104500994317743
36.399764000000005,5.809352848965039,0.1042587764291742
36.404364,5.794975320356087,0.1039783224926232
36.40894,5.788692701775964,0.1036222430977262
36.41354,5.788339570186937,0.1032330887438544
36.418124000000006,5.789829448941836,0.1028783492946017
36.42272,5.795083391650101,0.1025314580400686
36.427308,5.805489571615961,0.1021516503090232
36.431904,5.817738761925744,0.1018074082375581
36.4365,5.838371373141277,0.1014248132213694
36.441100000000006,5.868775578566791,0.1009622168538171
36.445692,5.9031882173739625,0.1004975600101648
36.450284,5.935235205163737,0.1001434664126609
36.454872,5.968225768849789,0.0998289797880044
36.45946000000001,6.004447516183994,0.0995098936566813
36.46404,6.043123197432851,0.0991846456945969
36.468632,6.087972735101098,0.0988177592809278
36.47321600000001,6.1368307061510015,0.0984478541858049
36.477804000000006,6.191618164192003,0.0980531993267215
36.482404,6.253478913100041,0.0976127939801007
36.48698,6.314728738437352,0.0972181238361719
36.491576,6.380720105441193,0.0967784823571738
36.496172,6.441969930778503,0.0963946453822294
36.50076,6.496068421983259,0.096118869302606
36.505368,6.548001490150282,0.0958840669788497
36.509956,6.596869700831924,0.0956924846199677
36.514548000000005,6.645737911513566,0.0955028002853906
36.51914000000001,6.694361752766917,0.095330734231677
36.523728000000006,6.742452713715057,0.0951476522067483
36.528332000000006,6.787068121586752,0.094986917798776
36.532916,6.8283301610961455,0.0948420637887141
36.537516,6.869059320300329,0.0946876837017357
36.542108,6.907701099732297,0.0945160265856318
36.546704000000005,6.948097606610934,0.0942906730054895
36.551284,6.990004471507945,0.0940306808091419
36.555888,7.032277890547394,0.0937533565988429
36.560472,7.069399072329247,0.0935013276717128
36.56506400000001,7.104555059053031,0.0932299775521065
36.569656,7.135824797109303,0.0929576694228886
36.574248,7.162064482622125,0.0927031847391883
36.578852,7.187604961666963,0.0924032608276577
36.583448,7.209259192044291,0.0921020699561992
36.588036,7.232668149868286,0.0917513418203998
36.592628000000005,7.259752888748391,0.0913340552840298
36.597216,7.284872432570424,0.0908948780344153
36.6018,7.310314389086267,0.0903965456289663
36.606388,7.333668965829895,0.0898830989051887
36.61098,7.353914543639514,0.0893649613861255
36.615572,7.369785133925039,0.0888664233253498
36.620164,7.384589963600142,0.088340670558753
36.624756000000005,7.397840293808241,0.0878133525750523
36.629344,7.405571832616309,0.0873230921809513
36.63394,7.4137921102809585,0.0868067465115425
36.63852800000001,7.418536834869162,0.0863044680561024
36.643112,7.419928191095066,0.0858121338714798
36.647724,7.417966178958669,0.0853262710728792
36.652312,7.411629179298178,0.084853608285264
36.65692,7.401327887704659,0.0844177300716257
36.661508,7.388861173073408,0.0840092480128897
36.666112,7.371652916775627,0.0836345379549437
36.67069600000001,7.349458749383023,0.0833068275112373
36.675284000000005,7.321912116753161,0.0830454910129694
36.679888000000005,7.292322245799712,0.0828045490766739
36.68448000000001,7.257868648465585,0.0826038017156222
36.689072,7.224314485579107,0.0823963666644781
36.693664,7.190027214407754,0.0822253961912709
36.698260000000005,7.158438246579347,0.0820392528359573
36.702848,7.129547582093883,0.0818387367924112
36.707452,7.102988666808924,0.081643771639606
36.712036,7.077739881562676,0.0814644124324714
36.716636,7.050081303850408,0.0813248491473425
36.721232,7.024099410319289,0.0811825358794973
36.725824,6.999427646826882,0.0810564069981881
36.73040400000001,6.979253055572714,0.0809081101732466
36.735,6.957445921586026,0.0808014464835517
36.739596000000006,6.93976940569514,0.0806930293217133
36.744192,6.933663352909528,0.0805387705426111
36.748772,6.932298841790447,0.0803517497181053
36.753364000000005,6.934776437890251,0.0801364085390587
36.757952,6.946370563180676,0.0798759550208148
36.76254,6.966059598499935,0.0795817550951041
36.76714,6.994210097990459,0.0792333348332689
36.771732,7.023915096947989,0.0788911838417416
36.77632800000001,7.059916137039052,0.0785242159637221
36.780916000000005,7.098248926330624,0.0781687846591143
36.785516,7.139280018965139,0.0778035997016236
36.790104,7.179045123009568,0.077464959708964
36.794696,7.221386345682797,0.0771268713636928
36.799288,7.26667024112726,0.0767684699281447
36.803876,7.313630820752873,0.0764131871333406
36.80848400000001,7.367376180368603,0.0760105636266265
36.813072000000005,7.4247192777749245,0.0755966415288213
36.81766,7.485904482400129,0.0751637264623017
36.822256,7.548522001778192,0.0747513998911848
36.826844,7.616003247536932,0.0743088290238356
36.83144,7.68270724356217,0.0738693152723659
36.836032,7.745935686510961,0.0734469233864545
36.840624000000005,7.809041944745608,0.073036009917863
36.845212,7.872925452713755,0.0726341681896719
36.849816,7.934232842053105,0.0722426112989956
36.854396,7.991942493601863,0.0718680832391067
36.858992,8.04887489541712,0.0714972578704341
36.863584,8.108749970003613,0.0711121965046646
36.86818,8.165926741247162,0.0707398319319182
36.872764,8.218484155538324,0.0703868144336745
36.87736,8.27320699286722,0.0700177273940513
36.881948,8.328174199624407,0.0696405492023057
36.88654,8.38068747246694,0.0692650876464721
36.891132,8.431768430556616,0.0688831546065985
36.89572,8.48321594278873,0.0684904548355563
36.900308,8.533108955553839,0.0680979481013778
36.904892,8.585411760784972,0.067681984928712
36.909472,8.63141852488257,0.0672844295223057
36.914068,8.669452563665482,0.0669015128732672
36.91866400000001,8.70286724549601,0.0665365312861871
36.923244,8.73292855896424,0.0661705570043388
36.92784400000001,8.760291569089523,0.0658129858812061
36.932424,8.788143318071391,0.0654385202978277
36.937016,8.813663317852752,0.0650570920585106
36.941612000000006,8.839672056490691,0.0646593830374204
36.946200000000005,8.86641390341351,0.0642346950441321
36.950796,8.892867239459408,0.0637915561565944
36.955384,8.919809314361888,0.0633348468845073
36.95997200000001,8.944541824778007,0.0628641769030923
36.964568,8.973971735412029,0.0623457300756848
36.969168,9.001069896845545,0.0618221902772616
36.97376,9.02955623158329,0.0612819530543393
36.97834,9.0543226438163,0.0607520220697477
36.98294,9.078311806315808,0.0602213031129008
36.987528,9.09906978516716,0.0596841820003224
36.992128,9.116107841513774,0.0591578440535991
36.996708,9.128893095050442,0.0586320866410307
37.001308,9.141023283567757,0.0580963116541204
37.005892,9.157362133446384,0.0575321199441582
37.010484000000005,9.176355145219327,0.0569348692735521
37.015092,9.198413014477657,0.0563222599141999
37.019688,9.219282938411416,0.0556886739650136
37.024276,9.236555124554584,0.0550604180699464
37.028868,9.251129007354807,0.0544341187095769
37.033456,9.260061914040852,0.0538217243897081
37.03804,9.261721301880195,0.0532490919214871
37.04262800000001,9.254430486691692,0.0527123557322896
37.047216000000006,9.235857719274833,0.0521987604977446
37.051804,9.216918397715531,0.0516970525186696
37.05639600000001,9.190705557309537,0.0512341960948646
37.060988,9.15848518664692,0.0507947001148118
37.06557600000001,9.1174367976706,0.0503835826489509
37.070168,9.07663277812257,0.049959220216271
37.074748,9.028022359422634,0.0495563932273129
37.07934,8.972382791304286,0.0491787888202
37.083932,8.912901115967054,0.0488071022427777
