Time,Force,Position
39.49460799999999,3.370221811550304,0.1560980034807416
39.499188,3.581946602991687,0.1554874697980935
39.50378399999999,3.781513669942216,0.1550126732731098
39.50839199999999,3.972320522212818,0.1545828733343351
39.512984,4.1566547675553736,0.154126369458448
39.517588,4.340279566798206,0.1532814197684111
39.52218399999999,4.50933684908416,0.1525214098151698
39.52677599999999,4.664315353269817,0.1518455817326737
39.53136,4.810122947184485,0.1511737984136912
39.535948,4.943406262465862,0.1506136854836712
39.54054,5.068584428086669,0.1501140747786392
39.545128,5.18026083736102,0.1497337810116306
39.54972399999999,5.281866901916732,0.149346825092934
39.554308,5.374668610343889,0.1489092934868985
39.55888799999999,5.453880279527335,0.1484468153977564
39.56347999999999,5.529151318962902,0.1478011712445275
39.56806799999999,5.595007078699187,0.1471515429910826
39.57265999999999,5.648382701250809,0.1465763635557098
39.577256,5.697950118400436,0.1459841215351584
39.581844,5.745596481940623,0.1454443407358931
39.58643999999999,5.7979402456987135,0.1447581547999895
39.591024,5.846808456380357,0.1441346751858657
39.595616,5.894244352309142,0.1435206852536271
39.600216,5.937016749836913,0.1429420293191499
39.604808,5.974348399230171,0.142417955255657
39.6094,6.001742128250672,0.1420116891909079
39.61399199999999,6.037020299688602,0.1413943684627065
39.618588,6.074297568001493,0.1406871496435718
39.62318,6.10793295707516,0.1399937998469501
39.62777599999999,6.13600541330017,0.1393483233883035
39.632356,6.153240514704776,0.1388206739006842
39.63695599999999,6.173207821269214,0.1381521239115265
39.64154,6.185402630498633,0.1375300200034394
39.64613599999999,6.189214018822299,0.1370001108703862
39.650728,6.194780134592633,0.1363960829196083
39.65532,6.189675221705339,0.1359422470506876
39.659912,6.1790854192349,0.1354717121457597
39.664504,6.168940214172417,0.134918373797205
39.669092,6.15862868294716,0.1343275734447564
39.67368,6.14365365332089,0.1337587988920984
39.678268,6.12136096339929,0.133298295450423
39.68286399999999,6.097103078419623,0.1328214178526038
39.687452,6.0694918250776535,0.1323755439759498
39.69204799999999,6.045678537505938,0.131809423000458
39.696644,6.018145327429487,0.1312994132137676
39.70122399999999,5.992288801534183,0.1307688066670785
39.70581599999999,5.958992430629408,0.1303524239388837
39.71040399999999,5.920954518058101,0.1300111347938929
39.71499599999999,5.882383725181583,0.1296513123437391
39.719592,5.8457339859145065,0.1292535095526882
39.72418,5.814969592189899,0.1287421127440868
39.728788,5.777053864332737,0.1283748592934797
39.733376,5.745311992894965,0.1279248147272585
39.73798,5.716268424800137,0.1274333754420746
39.74257599999999,5.686858302562872,0.1269641993139356
39.74716399999999,5.667708513392169,0.126330799939156
39.75176,5.64925793068945,0.1257484426100389
39.756348,5.63007423970186,0.1252173523435639
39.760952,5.606026822333591,0.1247693714565366
39.765528,5.5897077608517165,0.1242387816969418
39.77012799999999,5.5854479013317,0.1235301028230972
39.77471599999999,5.5814765526886045,0.1228499044304677
39.77931999999999,5.582779626017252,0.1221080015852638
39.78390799999999,5.580040364147352,0.1214985308371707
39.788508,5.581553905087401,0.1208473616320627
39.793092,5.587442433551542,0.1201506101028598
39.797684,5.597217210683195,0.119442277829646
39.802272,5.611000421196505,0.1187109123684923
39.806868,5.627770445929677,0.1179825182292183
39.811456,5.6487932734728,0.1172255979614323
39.81605199999999,5.671004046340489,0.1164982720976061
39.82062799999999,5.701554098665301,0.1156586593502007
39.82521599999999,5.729694358524087,0.1148882203924887
39.8298,5.762864670926324,0.1140886044220945
39.834392,5.7992661669767145,0.1132856379663598
39.838976,5.833502239989373,0.1125450524759425
39.843556,5.873501473830356,0.1117271454623506
39.84814799999999,5.917875695195431,0.1108841361884558
39.852736,5.9666249040846,0.1100010998052727
39.85731599999999,6.010510386593094,0.1092006344936806
39.861928,6.043524612464295,0.1085770046445556
39.866516,6.079359326392585,0.1079192989831523
39.871124,6.1169929092161714,0.1072577437607576
39.875712,6.158957338115223,0.1065149460003481
39.880312,6.202065570890214,0.105756654913918
39.884904,6.240676631426967,0.1050471824143869
39.889492,6.278876996372653,0.1043228984763515
39.8941,6.317566100174923,0.1035739779015726
39.8987,6.355600138957836,0.1028260853392905
39.903292,6.389914255236011,0.102128180032714
39.90788,6.423695491208976,0.1014231043378618
39.91247599999999,6.453878989391351,0.1007582116484074
39.91706399999999,6.4872495297732495,0.1000447993296617
39.92166,6.514690583164052,0.0993653891495166
39.92624399999999,6.539799887354347,0.0986944749007425
39.930844,6.561311453754051,0.098054354187992
39.935428,6.579225282363166,0.0974491588899495
39.940024,6.5862237128863566,0.096932998891978
39.94461599999999,6.5953875664472825,0.0963863466619406
39.94920799999999,6.607083397188378,0.0957845499429362
39.9538,6.625153312328525,0.0950847137367579
39.958392,6.644611400772903,0.0943562490469445
39.962972,6.658795067245539,0.0936637036402047
39.967556,6.672079299270528,0.0929832514312712
39.97214399999999,6.682909597380864,0.0923102542188286
39.97674,6.695783133814787,0.0916111595031092
39.98133199999999,6.705713997477477,0.0909448066489581
39.98592,6.714623241978372,0.0902942340738504
39.99051199999999,6.720834183136323,0.0896613823547188
39.99509199999999,6.72524625539898,0.0890390458230275
39.999684,6.7268378396045465,0.0884408865112758
40.00427199999999,6.7284294238101126,0.0878437333232036
40.00885999999999,6.729121573568031,0.0872555568142922
40.013456,6.7382751874972175,0.086604369574644
40.018044,6.7465293669787565,0.0859612376200004
40.022632,6.757970588659822,0.0852770238154186
40.027224,6.770311244788534,0.0845908237933024
40.03182399999999,6.792257168964453,0.0838202976944854
40.036428,6.809217182045551,0.0831047888435784
40.04102,6.82503339125071,0.0824120084783601
40.045612,6.837662558256344,0.0817634010748067
40.050204,6.846982498348305,0.0811644612490354
40.054804,6.85785693790727,0.0805700966568869
40.059392,6.867709758304442,0.0799893631461497
40.06399199999999,6.880016512616265,0.079412234776084
40.068576,6.897842058328122,0.0788119368509704
40.07318,6.917588657649419,0.0781973463393216
40.07775999999999,6.941177364189599,0.0775609503767182
40.082356,6.968485993234516,0.0769059906984888
40.08695199999999,6.999636729498316,0.0762262204617601
40.09154399999999,7.033363584390914,0.0755437184563066
40.096136,7.07105473121654,0.0748366709794831
40.100728,7.105681020556785,0.0741614147427039
40.105316,7.1313571068691815,0.0735676543866543
40.109912,7.1561337587339295,0.0729795876205254
40.114508,7.181565475618034,0.0724072773017873
40.11909199999999,7.203521639425691,0.0718422220483031
40.12368,7.225888498824415,0.071307364915637
40.12827599999999,7.253241269317962,0.070736512591677
40.132868,7.281493474259155,0.0701669527741316
40.13745599999999,7.31473159029517,0.0695652625696609
40.142048,7.351278933244858,0.0689295508683509
40.146636,7.390891133679926,0.0682744316444286
40.151228,7.430747703543285,0.0676115910323126
40.15582399999999,7.469049773939639,0.0669477522514479
40.160412,7.499134749593017,0.0663176585853683
40.16501999999999,7.529464094674688,0.0656791609843637
40.16960799999999,7.557217321127559,0.0650496811212969
40.17419599999999,7.584193297846929,0.0644222967250585
40.178792,7.606794287042207,0.0638011361195501
40.18337999999999,7.63000619980821,0.0631557855011172
40.18798399999999,7.64577826756474,0.0625388706282235
40.192564,7.668579484739679,0.0618809009304905
40.197156,7.694689928828291,0.0611890964194969
40.20173599999999,7.720678188202756,0.0605040008017299
40.206336,7.740126037015396,0.0598406354437863
40.210924,7.764559796922858,0.0591502364525441
40.215524,7.784085689001015,0.058449819954603
40.22012,7.798092789679138,0.0577652790016343
40.224708,7.808379967852525,0.0570913145645521
40.22929999999999,7.808162443531058,0.05645685801372
40.233896,7.800138520057679,0.055856761296746
40.23848399999999,7.783653132413034,0.0552805225843026
40.24308,7.765246691158945,0.0547100442718884
40.24767599999999,7.742998142685973,0.0541510704276517
40.252272,7.719483605622917,0.0536048602518875
40.25686,7.693148580502772,0.0530635984733084
40.261448,7.660683840411866,0.0525570325346026
40.266028,7.621556505044989,0.0520673687122861
40.27062,7.582062615535674,0.0515895381599793
40.275208,7.537582814931538,0.0511325472166453
40.27979199999999,7.489793787413728,0.0506986298046041
40.284384,7.427780134896327,0.0502993932078491
40.288964,7.360003321550603,0.0499127553292446
40.29355599999999,7.282743424871818,0.0495450266653213
40.298152,7.208959081269477,0.0491768233984022
40.30273999999999,7.124714176620911,0.0488769887377453
40.30734399999999,7.0293536459067605,0.0486325772938067
40.31193199999999,6.928885019383642,0.0484128518945618
40.31653199999999,6.821387243442115,0.0482271879558626
40.32112399999999,6.718508824452973,0.0480273727895581
40.32571599999999,6.618450893520922,0.0478135398400754
40.330308,6.518026408446433,0.0476132163254179
40.334904,6.413393262010625,0.0474391677380415
