Time,Force,Position
37.26889600000001,4.375466907879021,0.1487401570320871
37.27352400000001,4.462882249252029,0.1485031902418598
37.27817200000001,4.53826205084833,0.1482109177880871
37.28281200000001,4.606514180497225,0.1478120624721669
37.287452,4.669804061236449,0.1472177311968144
37.292096000000015,4.71979241360888,0.1466637144576634
37.29673600000001,4.758522475938104,0.146068629395496
37.30136400000001,4.783706640472244,0.1455109113612776
37.30600000000001,4.799842079449538,0.144899133718954
37.310632,4.812081030127583,0.1441491050948878
37.31526,4.810329485602588,0.1435416723882961
37.31990400000001,4.798273466562399,0.1431083990771179
37.324532000000005,4.786750327827424,0.1426884636976111
37.32916800000001,4.776537319131162,0.1422751692995132
37.33381600000001,4.765835571578318,0.1419033537062329
37.33846399999999,4.763761614359515,0.141391235908604
37.343108,4.766062644664805,0.1408063073842867
37.347744000000006,4.77045105474231,0.1402249434575757
37.352372,4.771652422620289,0.1397397600842317
37.357020000000006,4.779927081365307,0.1391298536711688
37.36166399999999,4.793642488244839,0.1384757769953522
37.3663,4.814431185991407,0.1376948487580956
37.37094400000001,4.838206697957838,0.1369029590078835
37.37558799999999,4.85752917913466,0.1362599879042647
37.38021599999999,4.875585671721394,0.1356810254729512
37.38485600000001,4.893397794879839,0.1351255811903788
37.38949199999999,4.909699560019907,0.1346396623242488
37.394120000000015,4.932175181579365,0.1340554500756175
37.39876000000001,4.956205302605826,0.1334705605379746
37.403400000000005,4.976026762270968,0.1330102880263295
37.40804,4.998957220870119,0.132530475992947
37.41268,5.026018297565072,0.1320112377624958
37.41731200000001,5.051324646813359,0.1315786664859767
37.421956,5.078840560548005,0.1311436592471693
37.42659599999999,5.108566038769012,0.1307077546850519
37.431228,5.135881724523994,0.1303585064023193
37.43587199999999,5.161031987241246,0.1300738612978307
37.440516,5.188758368587294,0.1297615415636016
37.44514799999999,5.21959374886735,0.129433325338522
37.449792,5.2523501827568495,0.129080489787024
37.454432,5.285350986074639,0.1287139084888882
37.459068,5.320028473573579,0.1283424429245179
37.46369999999999,5.358548068291403,0.1279115434344551
37.46834000000001,5.402053574104047,0.1273813536932021
37.472972,5.444415276040751,0.126892036022153
37.47761199999999,5.4903747157680485,0.1263610073384621
37.48225199999999,5.539276828266581,0.1257755776905344
37.48688799999999,5.589200559926905,0.1251896130917509
37.49152799999999,5.640923160482526,0.1245974661334361
37.49616399999999,5.690191827123495,0.1240192595582814
37.50080399999999,5.740848667068693,0.1234032440904299
37.50544400000001,5.789051573099239,0.1228141131574536
37.51007200000001,5.8462046821576354,0.1220756414556313
37.51472000000001,5.902169845891466,0.1213217327451518
37.519364,5.958379379053588,0.1205593633804817
37.52399600000001,6.017243074110025,0.1197246344713476
37.52864,6.075696073575396,0.1188690129851694
37.53326799999999,6.132961127716201,0.1180096153583707
37.53789599999999,6.188260986798936,0.1171386302974236
37.54253600000001,6.237386989462281,0.1163439849104822
37.54718,6.288800599877505,0.1155128790145664
37.551808,6.335184157749279,0.1147280817742346
37.55644799999999,6.378336531972898,0.1139765145331491
37.561076000000014,6.4163366689389205,0.1132724977518858
37.56571199999999,6.44942893807564,0.1125918722608142
37.57036,6.480433827440144,0.1119108098751371
37.574996,6.511805270947085,0.1112144891620065
37.579628000000014,6.536103423586988,0.1105877343768292
37.58426800000001,6.553039774482936,0.1099986294760307
37.5889,6.575328590616143,0.1093153587643026
37.593548,6.595652211691279,0.1086195911300309
37.59819200000001,6.616586756337144,0.1078909460672369
37.60282799999999,6.627094641753672,0.1072469204496545
37.60748000000001,6.640789569369725,0.1065546847649854
37.612108000000006,6.651619867480062,0.1058517362748648
37.616736,6.655499059437507,0.1051965929049098
37.621376,6.6620324132892685,0.104478470949345
37.626004,6.664435149045226,0.1037770786469432
37.63063600000001,6.66667155863841,0.1030401183435069
37.63528,6.66735346876459,0.1022983815984378
37.63991999999999,6.660062653576085,0.1016154959870322
37.644552,6.651583893063013,0.1009074277589636
37.64919599999999,6.632556288606459,0.1002649932818594
37.653832,6.617204465206013,0.0995401371229264
37.65846400000001,6.6054062381475305,0.0987375774513915
37.663104,6.590132458012602,0.097953676441799
37.66772800000001,6.570972429210162,0.0971657276688463
37.672368000000006,6.551523889530802,0.0963404514939103
37.67699200000001,6.531830980423152,0.0955216764390115
37.681644000000006,6.506086399610258,0.0947323857655129
37.686272,6.478542949902068,0.0939519989555078
37.69090800000001,6.444947828488635,0.0931950174475491
37.69556399999999,6.415072629579938,0.0923987515515467
37.700196000000005,6.3808224431471485,0.0916234922471879
37.704824,6.346572256714358,0.0908416657426908
37.70945599999999,6.314243123891011,0.0900308273034009
37.714088,6.274351961344042,0.0892825525452881
37.71871999999999,6.230618691578192,0.0885618933016153
37.723352000000006,6.187540486831696,0.0878437281832297
37.72798399999999,6.14650552040879,0.0870906236652901
37.732624000000015,6.106247803719385,0.0863289946385131
37.73727199999999,6.067544586496984,0.0855635717471883
37.74191200000001,6.041677820969944,0.0846962479801018
37.746544,6.013279078262735,0.0838828502472267
37.75118800000001,5.983369977537151,0.0831069183662612
37.75581600000001,5.951295453773831,0.0823547054398199
37.76046,5.921552679211019,0.0816039697184101
37.765096,5.896062707458155,0.0808381539353413
37.769732000000005,5.87789039600062,0.0800245133446343
37.77437599999999,5.864625952372388,0.0792101946639401
37.779004000000015,5.853571073230518,0.078411380117963
37.783636,5.849222930813248,0.0776029376532006
37.78826799999999,5.840543942320512,0.0768541177126875
37.79289600000001,5.832275649418842,0.0761287313389447
37.79753199999999,5.827238540165326,0.0754098645182243
37.802164000000005,5.826332049007612,0.0746932253302888
37.806792,5.833276098450439,0.0739538865642039
37.811436000000015,5.853056599588625,0.0731478755363287
37.81606400000001,5.872592731298521,0.0723618132042497
37.82069999999999,5.894338427494778,0.0715974204435406
37.825344,5.921480730376921,0.0708132230377351
37.82997599999999,5.950055348011924,0.0700488945356228
37.83461199999999,5.974421304285606,0.0693454356459463
37.839256000000006,6.003284432797527,0.0686339970771913
37.843884,6.035378744957603,0.0679354659547732
37.848536,6.077366836041806,0.0672089815567212
37.853172,6.120787241878867,0.0665066396015845
37.857812,6.165639962468787,0.0658308771027632
37.86245600000001,6.205628956678031,0.0651990878812438
37.867092000000014,6.2472946350684255,0.064580816557443
37.87173200000001,6.288960313458818,0.0639692668392569
37.876368000000014,6.3298487421157095,0.0633613048141637
37.88100399999999,6.376500331600926,0.0627209703113199
37.885632000000015,6.425605855000794,0.0620926829273971
37.89027200000001,6.47279032479122,0.0614821315190286
37.894912000000005,6.520096979295792,0.0608743314460979
37.89954800000001,6.566504199352716,0.0602781860439283
37.904192,6.605105020257729,0.0597402108784953
37.908828,6.644360906182098,0.0592185233286443
37.913460000000015,6.684638411268261,0.0586945133259172
37.91810000000001,6.725815350802073,0.0581779167610067
37.922728000000006,6.767114475050029,0.0576598680429496
37.92737600000001,6.810456837621573,0.0571317816373697
37.932016,6.8462371704694975,0.0566365293925551
37.93664799999999,6.880585188564562,0.0561289794713281
37.941292,6.906716111916651,0.0556427034756402
37.94592,6.925407190259266,0.0551761392694945
37.95056,6.940622715525435,0.0547103001022384
37.95519200000001,6.954816621629811,0.0542509190327488
37.95982000000001,6.95964962911527,0.053819230789478
37.964452,6.96166214854364,0.053396601473067
37.96909600000001,6.959710376038983,0.0529954689957079
37.973724,6.955837549924884,0.0526035062461404
37.97836000000001,6.944769248229602,0.0522147805268524
37.982988000000006,6.933823131248466,0.0518195554973045
37.98762400000001,6.916214418991357,0.0514450641912216
37.992264000000006,6.893986349781865,0.0510779738757406
37.99690000000001,6.870081596391222,0.0507027964191456
38.001532,6.837593194115165,0.0503528734317896
38.006168,6.801629238762662,0.0499956535324057
38.010808,6.753117342591718,0.0496828304039189
38.015456,6.6978206664306565,0.0493938322949314
38.02010000000001,6.632796537508242,0.0491417658609505
38.024732,6.563808116652801,0.0489058372344328
38.02938399999999,6.4917548383119765,0.0486846661105946
38.03401600000001,6.415615083323979,0.0484866134746749
38.038648,6.342418001107218,0.0482689777695236
38.04328799999999,6.264357192509777,0.0480662642527518
38.047924,6.182576461407602,0.0478657148405586
38.05255199999999,6.100917915019572,0.0476516871733608
38.05718400000001,6.014395642250865,0.0474532304204165
