Time,Force,Position
34.997744,5.218681835953862,0.1529295947744956
35.002344,5.244219132077029,0.1528737374763246
35.006924,5.261396669479596,0.1526398141544161
35.011523999999994,5.2705810023040005,0.1521961623286625
35.016099999999994,5.266341622047466,0.1517877280995249
35.020703999999995,5.256495167493641,0.1513881063849327
35.025296,5.247992744795417,0.1508714109725696
35.029892,5.23764731175327,0.1503333371433859
35.034476,5.224970129510617,0.1498136145776469
35.039068,5.209061763619808,0.1493290361426929
35.043668,5.188778410204908,0.1489204956351218
35.04826,5.170904849256029,0.1484219531459866
35.052859999999995,5.155441080773175,0.1478363137892528
35.057452,5.144185973651643,0.1471323967345599
35.06204,5.135751354587198,0.1463657623644411
35.066635999999995,5.130992516578861,0.1454648453052674
35.071224,5.1230024949223685,0.144594134489374
35.075807999999995,5.121508742379075,0.1435300716685849
35.080396,5.1193599248164245,0.142465241790469
35.084979999999995,5.117333291967921,0.141381215239522
35.089572,5.11158673661468,0.1403712113401339
35.094152,5.105717996547294,0.1393665688949107
35.098744,5.097317279299737,0.1384540424003342
35.103336,5.09370224516734,0.1374989159655016
35.107924,5.093196209968952,0.1365206447010523
35.112531999999995,5.094122489523422,0.1355446143623903
35.11712,5.095747975545875,0.134629241556426
35.121724,5.098561406892897,0.133733446219247
35.126312,5.102318414136195,0.1328742163424736
35.1309,5.110083854761152,0.1319725489198471
35.135496,5.119403794853111,0.1310546040697106
35.140088,5.126969007498404,0.130233632023149
35.144684,5.134700546306469,0.1294699724791287
35.149263999999995,5.135813631287189,0.1288980552805009
35.153856,5.1364379774113305,0.1283677605308855
35.158444,5.139560398898751,0.12787590509047
35.163048,5.149145187682479,0.1273331507266746
35.167635999999995,5.158529748486545,0.1268731487920677
35.172236,5.168080635453385,0.1264604733780024
35.176832,5.185115508878327,0.1259813313974153
35.181428,5.20938999933308,0.1254579525807838
35.18602,5.238327988188846,0.1249197278507562
35.190616,5.273195464035712,0.1243258689477691
35.19522,5.309373069921289,0.123760398388405
35.199811999999994,5.350580728350316,0.1231659952518754
35.2044,5.393753581837413,0.1226016588984165
35.208996,5.441301422848603,0.1219976963788934
35.213584,5.493102066669742,0.1213655012299062
35.218172,5.551443121052706,0.1206479104403946
35.22276,5.616979651016855,0.1198613179918802
35.227352,5.68958947184804,0.1190113628839109
35.231936,5.766696464917462,0.1181283228811761
35.236515999999995,5.84290402353924,0.1172720645541105
35.241116,5.926551427170489,0.1163191771922481
35.245704,6.012530580002247,0.115370316488287
35.250284,6.09581142949106,0.1144670655524824
35.254876,6.179458833122309,0.1135644895503551
35.259463999999994,6.262573356448348,0.1126617141017172
35.26406,6.34617661863097,0.1117339289179477
35.268648,6.427814685755523,0.1108172893646899
35.273236,6.501724396993682,0.1099694703748991
35.277832,6.571747859564328,0.1091379267212733
35.282424,6.639273246771697,0.1082916662350838
35.28702,6.70213513557805,0.1074635853162555
35.291608,6.761477329859332,0.1066414055220821
35.296204,6.8144793415584495,0.10583524371537
35.300791999999994,6.862817854856554,0.10504439113724
35.305392,6.904694000858349,0.1042801286436574
35.309976,6.941784463744986,0.103539979979745
35.314575999999995,6.969836440706516,0.1028431664643008
35.31916,6.990770985352382,0.1021638913589675
35.323752,7.002544859358993,0.1015240787131824
35.32834,7.010554669412241,0.100877752407485
35.332936,7.015044784940415,0.1002159921701638
35.337532,7.0161373906576605,0.0995269857769958
35.342127999999995,7.016530789906921,0.0987897085461619
35.346716,7.010095267717436,0.0980850266289876
35.351304,7.000917300736379,0.0973581908421303
35.355884,6.988630334821313,0.0966276574107772
35.360479999999995,6.970047327772713,0.0959398588663574
35.365068,6.951175809847193,0.0952178573355414
35.369664,6.932015781044753,0.0944641432582051
35.374255999999995,6.9079920258616365,0.0937582805017592
35.378844,6.8815143367638685,0.0930514803495958
35.383444,6.844531945171246,0.092439140862759
35.388023999999994,6.811513845511652,0.0917765307672276
35.392599999999995,6.777840680832701,0.0911007759598428
35.397196,6.744167516153749,0.0904185614139757
35.401784,6.705997179236559,0.0897585114732525
35.406392,6.668481907338726,0.089100165488813
35.410972,6.630844450726746,0.0884424005417211
35.41556,6.5960274821718565,0.0877527036123813
35.420151999999995,6.563786632245765,0.0870487463859128
35.424732,6.529380359281942,0.086371943226416
35.429328,6.494729716889824,0.085703279663242
35.433916,6.458690901193477,0.0850626329584033
35.438516,6.42829306161131,0.0843731474682143
35.443099999999994,6.398305917620207,0.0837021736448507
35.4477,6.371916511419694,0.083008125456149
35.452284,6.347981039133835,0.0823087898256573
35.456872,6.327398935210274,0.081600442577325
35.461459999999995,6.306205907715987,0.0809230637776679
35.466052,6.288488433298145,0.0802307204758154
35.47064,6.27502376169025,0.0795272945872046
35.475235999999995,6.271697238434774,0.078754445765011
35.479816,6.268126345751006,0.0779974293192462
35.484404,6.267908821429538,0.0772395439125434
35.488992,6.273210088508103,0.0764523631709789
35.493584,6.283419223415973,0.0756672634581752
35.49818,6.294161238629053,0.0748984143337877
35.502772,6.306457753309139,0.0741370286066627
35.507368,6.318920594151998,0.0734138632994153
35.511956,6.33048400054721,0.0726965510815445
35.516548,6.345767329447157,0.071961719800126
35.521136,6.368612688070725,0.0711885516158206
35.525724,6.393256915589586,0.0704104463774119
35.53032,6.414958470337215,0.0696624083094791
35.534907999999994,6.435882775351341,0.0689111302106761
35.53952,6.455663276489528,0.0681819747174261
35.544104,6.476709766217798,0.067432229999026
35.548692,6.500943298145597,0.066655942379548
35.553287999999995,6.525176830073395,0.0658781652758073
35.55788,6.551820154467217,0.0650692478613409
35.562484,6.575887360232241,0.0642640459417896
35.567063999999995,6.597378447368468,0.0634643056391137
35.571664,6.619768968952342,0.0626680609335977
35.57624,6.635496895260244,0.0619056801124785
35.580844,6.649303767958704,0.0611617807981574
35.585428,6.660778891456658,0.0604048339961997
35.590028,6.670821700201755,0.0596295212719369
35.59462,6.6762451519944666,0.058865629746439
35.599211999999994,6.680114104320172,0.0580885148918853
35.603792,6.68001876471285,0.0573325079457644
35.608384,6.672239210667763,0.0566115567736244
35.612976,6.651789531090087,0.0559600014845469
35.617572,6.62864154816947,0.0553084587274736
35.62216,6.604349761372911,0.0546675542110141
35.626752,6.579935789862208,0.0540284450991146
35.631339999999994,6.550780276684973,0.0534019202837306
35.63594,6.516516667698772,0.0528072804551811
35.640528,6.47215905180878,0.0522753887044201
35.645124,6.428700870366436,0.0517377109929016
35.649716,6.376048116467952,0.0512595409755868
35.654304,6.320086135655796,0.050809328217709
35.6589,6.256195570977582,0.05039522801951
35.663488,6.183354803271517,0.0500270010910916
35.66808,6.110391850851308,0.0496569272570943
