Time,Force,Position
34.99764,4.540603468745952,0.1541963768138961
35.002224,4.638567654062444,0.1536785880665404
35.006812,4.725439875498502,0.1532071103651202
35.011419999999994,4.811191955243773,0.1524215038735858
35.016008,4.892103970793517,0.1514544169994665
35.020596,4.963923119337787,0.1504170338290559
35.025192,5.028203900343587,0.149279391040431
35.029788,5.077794979678364,0.1482355354477564
35.034395999999994,5.110530934304386,0.1473669789493412
35.038988,5.140313976527432,0.1464067213020273
35.04358,5.163678792902796,0.1456007777524831
35.048168,5.184389447383848,0.1449131019197787
35.052768,5.209719458817284,0.1441398403925302
35.057356,5.238280653898874,0.1433416499438051
35.061955999999995,5.264309871800296,0.1426309055491228
35.066544,5.286741351911125,0.1419997081213123
35.07114,5.313670004260193,0.1412909177772654
35.075731999999995,5.337778168552173,0.140641781710838
35.080327999999994,5.360620344254067,0.1400457564421624
35.08492,5.386815888318261,0.1394052693685054
35.089516,5.418652408496634,0.1386567763355382
35.094116,5.449345124799067,0.1379572867248773
35.098712,5.478361156920351,0.1372832545721212
35.103316,5.503657266536897,0.1366929821233768
35.107907999999995,5.523434584753411,0.1362060517489868
35.112496,5.541046479932193,0.1357844572814656
35.117084,5.555960071768031,0.1354105358504012
35.121672,5.574960140251043,0.1349413863293312
35.126259999999995,5.597802315952936,0.1343970601923705
35.130848,5.619212176901975,0.1338596079805691
35.13544,5.641355146135885,0.1332699423966602
35.140032,5.661699246474499,0.1327067623362554
35.14462,5.675380751537141,0.1322695446338574
35.149216,5.6825218460379565,0.1319460213504427
35.153803999999994,5.694115971328384,0.131502134503891
35.158396,5.705832281332956,0.1310523977211042
35.162992,5.715994091870525,0.130615755293429
35.167579999999994,5.731874921787789,0.1300283338540256
35.172188,5.746034926075275,0.1294084927013404
35.176779999999994,5.760683669219343,0.1287572471897604
35.181368,5.770957424839319,0.1281656974801061
35.185952,5.778899431258788,0.1275868105150251
35.19054,5.786430742087191,0.1269849238292411
35.195136,5.791508119000942,0.1264020512571337
35.199715999999995,5.79862873423828,0.1257762983361472
35.204316,5.800108373361439,0.1252378472260991
35.208912,5.80273181636054,0.1246714812208044
35.213511999999994,5.805599628787929,0.1240905620748034
35.218092,5.802415769510076,0.1235728787971809
35.222691999999995,5.79755522605107,0.123070294966964
35.227276,5.788974760087331,0.1226223059754034
35.231872,5.783214782180679,0.1221297222259884
35.236464,5.77884297757826,0.1215864070130734
35.24106,5.781133768251811,0.12093346315151
35.245648,5.783302374211217,0.1202930900409744
35.25024,5.784449361008829,0.1196748634751291
35.254828,5.784696913358794,0.1190698077195876
35.259412,5.779347631043208,0.1186022873032306
35.264,5.779683466290429,0.1181045573778092
35.268592,5.778753312947564,0.1176447199858134
35.273188,5.777578790176409,0.1172011716265517
35.27778,5.776159897976961,0.1167739460205275
35.282371999999995,5.778094374139815,0.1163240390273193
35.28696,5.785303272274409,0.1158235097457729
35.291552,5.794188854590154,0.1153144683537765
35.296136,5.813701324114899,0.1146474876719039
35.300723999999995,5.832725054783063,0.1140190693840041
35.305319999999995,5.853058915489937,0.1134118080629842
35.309908,5.882387120673292,0.1127110035584703
35.314512,5.91326982532365,0.1120109007134899
35.3191,5.948405332783956,0.1112804057197037
35.323688,5.9864835130154965,0.1105187618183478
35.328292,6.03175716882822,0.109696201024228
35.332876,6.076908639926797,0.1088980556990533
35.33748,6.1216935568829385,0.1081310959050987
35.342076,6.1685217121626685,0.1073388005613101
35.34668,6.214328248280603,0.1065649911974476
35.35126,6.26230020743627,0.1057525024767163
35.35586,6.305408440211262,0.1050168244611448
35.360448,6.350682096023986,0.1042492619873871
35.365052,6.397876805446151,0.1034610584582884
35.36964,6.447114753191903,0.1026454455543858
35.37424,6.493532212880567,0.1018706670240605
35.378836,6.539294607549873,0.1011055874461996
35.383427999999995,6.587222425256912,0.1003186637212185
35.388008,6.633351374068655,0.0995703290141805
35.392604,6.681767930632278,0.0987887085868511
35.397208,6.7261760538142426,0.0980183026448052
35.401799999999994,6.767597362776344,0.0972544889329781
35.406388,6.808485791433236,0.0964813489805627
35.410984,6.850229513089148,0.0956695534481368
35.415572,6.884655574449729,0.0949204874573172
35.420156,6.909310041600333,0.0942378998990145
35.424744,6.928035021759836,0.0935790479723817
35.429336,6.947737479632504,0.0928700033640565
35.433932,6.965108188304669,0.0921623418614903
35.438516,6.98783136221409,0.0913851797904111
35.443112,7.010266025246592,0.0905847489529493
35.4477,7.030735493221025,0.0897585470220933
35.452288,7.050549896176102,0.0889320168143718
35.45688,7.068154734644816,0.0880965056129763
35.461468,7.08330563919888,0.0872650368811278
35.46608,7.094448110371287,0.086428755910212
35.470668,7.099294540410158,0.0856292133093289
35.475252,7.097722744601349,0.0848738618960908
35.479848,7.087034419601917,0.0841726633917827
35.484435999999995,7.07029442289724,0.0834904258335319
35.48904,7.056741468392089,0.0827666267330533
35.493635999999995,7.0401236564015575,0.0820751680201926
35.498231999999994,7.024116767981755,0.081350294595416
35.50282,7.001325099571834,0.0806785717796707
35.507411999999995,6.983397157542591,0.0799630344090445
35.512004,6.970332941894023,0.0792025111363672
35.516603999999994,6.961110833464338,0.0784091725003659
35.521196,6.947802248387479,0.0776566167153428
35.525796,6.935270913044122,0.0769059999986873
35.530387999999995,6.913500863795995,0.0762035621859757
35.53498,6.892630248995516,0.0754971234498886
35.539568,6.875601741413919,0.0747614993660192
35.54416,6.853953876879938,0.0740459080004425
35.548759999999994,6.83590375013655,0.0733165271194397
35.553352,6.821695730612042,0.0725614982984286
35.557939999999995,6.814927556097008,0.0717680760668262
35.562535999999994,6.81085768492492,0.0709616210257709
35.567124,6.810507736257568,0.0701363814553471
35.571707999999994,6.815676578990248,0.0692828665683861
35.576296,6.827141462856464,0.06841191526693
35.58088,6.8363187389708,0.067575428418857
35.585472,6.849338122304021,0.0667189421811075
35.590059999999994,6.862523831800015,0.0659030045510672
35.594643999999995,6.882494321286125,0.0650453871123656
35.599239999999995,6.90042157244865,0.0642088144590058
35.603828,6.919903323078179,0.0633871562766108
35.608432,6.9406952037464205,0.0625924359488233
35.61302,6.967005875814697,0.0617836565368644
35.617616,6.99613703594006,0.0609714245931141
35.6222,7.034917605561259,0.0601561879570458
35.626796,7.072310001878227,0.0593738536821669
35.631395999999995,7.108680779033402,0.0586069470068593
35.635988,7.150448162874464,0.0578347436897736
35.64058,7.187474005048995,0.0570860522877184
35.645168,7.218247947538619,0.0563890545322425
35.649756,7.246734282276366,0.0557264115485616
35.654348,7.276242236175905,0.0550597338280832
35.658944,7.301785898142415,0.0544162811519029
35.663528,7.329128429004222,0.0537765840558653
35.668128,7.345844072657028,0.0531799044171853
35.672712,7.362193162167397,0.0526011749531999
35.677304,7.371635286973504,0.0520567145444556
35.681904,7.375436435665431,0.0515261307890668
35.686496,7.375806172729541,0.0510345726641512
35.691084,7.376830974813007,0.0505544453043946
35.69568,7.369927193030417,0.0501114281271871
35.700267999999994,7.355339196810061,0.0496931705197339
35.704856,7.334499300904799,0.0493183152130764
35.709444,7.305486451705189,0.0489917943320801
35.714032,7.267889953620164,0.0486904543733467
35.718616,7.2253075444403185,0.0484111169177615
35.723208,7.177905550328424,0.0481898371168593
35.727796,7.124251656531623,0.0480091298199151
35.732384,7.069986839164094,0.0478551765193528
