Time,Force,Position
37.70384,6.533047605980445,0.1388010956711113
37.70842,6.514794068335721,0.1387794982502849
37.71302,6.494843367246369,0.1384885055618825
37.717604,6.469363635125244,0.1381372323473145
37.722204000000005,6.441508012354984,0.1377501318622594
37.72679600000001,6.412953183116739,0.1373103329534893
37.731392,6.385131462163369,0.1368163204864121
37.73598,6.358531588351456,0.1362348153078885
37.740576,6.325958086099817,0.1356652756854747
37.745172,6.28913178103823,0.1351363248461654
37.74977200000001,6.246087478108623,0.1346340596995269
37.754364,6.202876849016246,0.1340865036456495
37.758956,6.161176577942241,0.1334763950751791
37.763544,6.117266742381877,0.1328622435952038
37.768132,6.072824026516301,0.1322280354465365
37.772712,6.025805192021926,0.1316159914401866
37.777304,5.978009107794051,0.1310009360214458
37.781896,5.92865852409917,0.1303858246813688
37.786484,5.880451744280228,0.1297326228440195
37.791076,5.829835171995262,0.1291404337026511
37.795656,5.787313509739126,0.1284239569483913
37.800248,5.744303108626409,0.1277358900018507
37.804844,5.696717492009933,0.127162001133348
37.809432,5.644312290461408,0.1267256395441692
37.814040000000006,5.594405164276166,0.1263150663373311
37.818628,5.544542179539551,0.1259495128495906
37.823232,5.496766574575152,0.1255825673273168
37.82782400000001,5.45071179524053,0.1252410876920316
37.832416,5.413695501831016,0.1248214924882319
37.83702,5.3815870762508045,0.1243599284743308
37.841616,5.35185454131973,0.1239370361900574
37.84622,5.328995069276028,0.1234918416973138
37.850812000000005,5.308511487881463,0.1230870671883127
37.855408,5.297843642145506,0.1226110093317324
37.859996,5.291472740668125,0.1221436186970925
37.864596000000006,5.292341456220554,0.1216335764546842
37.869184,5.301593592678734,0.1210559713265731
37.873788000000005,5.317063727004934,0.1204612965499689
37.878372,5.3405507280944455,0.1198282681928438
37.882972,5.373076215109064,0.1191381160174581
37.887568,5.407444712467607,0.118490670071447
37.89216,5.444677839331866,0.1178554925676757
37.89674,5.484775595701844,0.1172313722807246
37.901336,5.538731422928977,0.1164247791485485
37.905924,5.600659975470793,0.1155443218221091
37.910516,5.670439068613151,0.1146026172994996
37.915104,5.742305541527722,0.1136873448597516
37.919692,5.813316721443274,0.112839527094421
37.92428,5.883306282197034,0.1120316952257351
37.92888000000001,5.954605972989505,0.1112498242921138
37.933468000000005,6.0316688246103,0.1103965169106331
37.938064,6.105256123154651,0.1095921989133846
37.942656,6.175900748927766,0.1088355430090079
37.947244,6.242048202462643,0.1081429204254705
37.951844,6.314325370968279,0.1073676117397362
37.956424,6.385170224721056,0.1066022032383152
37.961016,6.447675799016713,0.105939316212908
37.96561200000001,6.506950189664214,0.1052968624024627
37.970200000000006,6.564914450273004,0.1046568578980644
37.974796,6.619359016356719,0.104012239871461
37.979384,6.670572398792279,0.1033849588548739
37.983972,6.719698401455625,0.1027471184450818
37.988576,6.768125197650988,0.1020637425825004
37.99316400000001,6.805103715455217,0.1014755102114959
37.99776,6.837663104286723,0.1008869264354643
38.00234,6.860939637764835,0.10034600301633
38.00694,6.880452107289579,0.0997996763971778
38.011528,6.898610305326984,0.0991958849157973
38.016128,6.914026058572817,0.098573925939178
38.02071600000001,6.926166486721866,0.0979174842090142
38.025312,6.932377427879818,0.0972902931632582
38.029892,6.936500989265554,0.0966479053588456
38.034488,6.9409469633451,0.095940366775915
38.039084,6.941628873471279,0.0952206267004455
38.04368,6.927020397987446,0.0946049921232373
38.048276,6.908281304407811,0.0939978630026171
38.052876,6.89334017659843,0.0933066890143069
38.057468,6.876189484302688,0.0926027879825879
38.06206,6.853109305015847,0.091917841919302
38.066648,6.825287584062477,0.0912724660019682
38.071236,6.795378483336891,0.0906054708589887
38.075816,6.764037067858446,0.0899240856321318
38.080412,6.7319184026465,0.0892375335128568
38.085004,6.700821356596347,0.0885314488270225
38.089584,6.662040096108427,0.0878903673791154
38.09418,6.623913900639866,0.087251201220791
38.09876,6.5873422046383086,0.0866114444754044
38.103352,6.548605085599018,0.0859966938024441
38.10794800000001,6.505537120484262,0.0854400571619225
38.112536000000006,6.46377928540822,0.0848957040148159
38.117148,6.423820319227474,0.0843359999374719
38.121736,6.384394233351937,0.08378769210423
38.126332000000005,6.346156092800968,0.0832601142232842
38.130928,6.3111491358981535,0.0827293000127996
38.13552,6.289633695710058,0.0821209661967521
38.14012,6.269428385560674,0.0815281018216785
38.144712,6.250288836021711,0.0809688953535947
38.149308000000005,6.233236666254964,0.0804288443326302
38.15390000000001,6.220192929869875,0.0798920719038298
38.15850400000001,6.214222484351822,0.0793265950225858
38.163092000000006,6.213037721948926,0.0787711797188906
38.167692,6.2177824465371305,0.0782093068554366
38.17228,6.226413419792846,0.0776663240758755
38.17688,6.240074445592009,0.0771221626556313
38.181472,6.265183749782305,0.0765419571586635
38.186064,6.297610714267928,0.0759292705648857
38.190648,6.331958732362993,0.0753083346483709
38.195244,6.375056725506245,0.0746703279475247
38.19985200000001,6.429558855592,0.0739620489472959
38.204448,6.485615485144759,0.0732684292677629
38.209036,6.544903298345673,0.0725926698512404
38.213632,6.610731522108415,0.0718935916534692
38.21822,6.681179102823539,0.0711850867416177
38.222808,6.754324986881608,0.0704775434737261
38.227396,6.825794186758526,0.0697882929046853
38.231984,6.905436339929793,0.0690415527441725
38.236572,6.98646666640529,0.0682814359001859
38.241164,7.07554776146099,0.067475936142084
38.24576,7.17075857148745,0.0666396813778856
38.250348,7.262616013151611,0.0658155242593644
38.254948,7.355206563100645,0.0649734087948829
38.259528,7.446364798296821,0.0641351011101133
38.264120000000005,7.534536219273134,0.0632896090827591
38.268716,7.619720826029583,0.0624338290890112
38.273304,7.699098130509081,0.0615813971440942
38.277916000000005,7.775244251340425,0.0607350785853924
38.282496,7.852900730190144,0.0598749536404095
38.287088,7.923850472315264,0.0590154534845438
38.29168,7.984662066087965,0.0581930133953926
38.296268,8.043508464802597,0.0573486374478876
38.300872,8.09282763873554,0.056502144647498
38.305464,8.129310360973124,0.0556845374287213
38.31006000000001,8.15499986983893,0.054880569159894
38.314648000000005,8.174637706999494,0.0540739410738797
38.319248,8.18605844941708,0.0532801764542311
38.323828000000006,8.182110762959137,0.0525423440693634
38.32843200000001,8.163938451501602,0.0518402549755265
38.333024,8.126922158092091,0.0511842746965914
38.337616,8.071839132464104,0.0505759256624279
38.342204,8.008172457950705,0.0499847695249176
38.346796,7.932979461780656,0.049422378386999
38.351384,7.847403947829899,0.0488757320453374
38.35598,7.752756046137144,0.0483662041285397
38.360572000000005,7.651856244759485,0.0478871217436412
38.36516400000001,7.543027859515768,0.047431903301558
38.369752000000005,7.423328217634759,0.0470123805734925
38.37434,7.28572816969805,0.0466646548658013
38.378928,7.141221157057076,0.0463313717794582
