Time,Force,Position
39.109080000000006,4.024977301149091,0.1315748089039866
39.113668,4.0665483307988834,0.1314678492555166
39.118256,4.103045166456596,0.1313641507521952
39.122848000000005,4.135122873141587,0.1312655698596983
39.127444,4.168588753130809,0.1311137366012444
39.132036,4.211127020862027,0.1307015935577568
39.136628,4.255586342202686,0.1302595296988488
39.141216,4.294893426285749,0.1298992982952419
39.14581200000001,4.337221226405566,0.1293929166241215
39.150400000000005,4.37374172424843,0.1289616754818759
39.154988,4.405232169547843,0.1285958315959424
39.159584,4.426951020637276,0.1283958556097142
39.16417200000001,4.443517634469112,0.1282730823755316
39.173356,4.460294715912353,0.1282691866501705
39.177944,4.468189397961519,0.1282071226734928
39.18254,4.480370784637523,0.1279399773615765
39.187136,4.494673452902633,0.1275376011091257
39.191728,4.505989306947878,0.1271458308274071
39.19632,4.51521778122091,0.1267462414191574
39.200912,4.520437822112284,0.1263853869466987
39.2055,4.52116069076542,0.1261068723631162
39.21009600000001,4.517508571894462,0.1258962369495857
39.214688,4.515488995756026,0.1255993210380177
39.237664,4.421210831127382,0.1255526531084449
39.24225200000001,4.400503359568004,0.1254882562544305
39.246840000000006,4.381716941618067,0.1253828764702222
39.251428,4.372657976429483,0.1250573892697281
39.256016,4.364742815116839,0.1246923046937236
39.260604,4.362346445204225,0.1242208455823861
39.265204,4.36505817110058,0.1236162211222696
39.269792,4.371123265359235,0.1229777285416745
39.274392000000006,4.371835894380633,0.1224966977082872
39.278984,4.371038165383653,0.1220888192937516
39.28357200000001,4.37563704307256,0.1215988512989278
39.288172,4.3819126049426185,0.1210929262906594
39.29275200000001,4.390642100727328,0.1205695184927306
39.297348,4.400803911264896,0.1200491181692535
39.301944000000006,4.418527751526084,0.1193836328357682
39.306532,4.4347412337688965,0.1187915283312685
39.311136000000005,4.457783637450454,0.1181255971458383
39.31572,4.487122082265547,0.1173614734623438
39.320308,4.520713329890588,0.1165563005811571
39.3249,4.551117535316101,0.1158412999142974
39.3295,4.587451227732713,0.1150615734674227
39.334104,4.6181880854837765,0.1144595525996753
39.338696,4.652400496311284,0.1138243942640566
39.343292000000005,4.683181495510974,0.113305391129942
39.347872,4.718215297520612,0.1127510497133683
39.352464,4.755703033444902,0.112192008797987
39.357044,4.788982108007874,0.1117415864435136
39.361648,4.818296890637815,0.1113737575882272
39.366236,4.852353214934288,0.1109257919761009
39.370836,4.890129461735496,0.1104270839607759
39.375428,4.919977124670649,0.1100887034683908
39.380024000000006,4.951379287072806,0.1097541340162928
39.384612,4.981637645599024,0.1094552734137801
39.389208,5.01586029605827,0.1090867701979433
39.393796,5.047140273746282,0.1087813241801521
39.398392,5.081607293633821,0.1084090449464695
39.402984,5.106180534597232,0.1081541141732381
39.40758,5.129854341112996,0.1079157796922834
39.412168,5.149808225124023,0.1077316636495633
39.416752,5.172949151334575,0.1074791683756349
39.42134,5.192736709182828,0.1072509673073051
39.425924,5.211214136992367,0.1070011557738674
39.43052,5.224417142830165,0.1068066767627483
39.435108,5.2345111497339545,0.1066145188373395
39.4397,5.241496157703735,0.1064284895996149
39.444288,5.24729322034895,0.1062189748420974
39.448876,5.254600641012539,0.105952335984023
39.453484,5.264562223570444,0.1056005075325565
39.458072,5.271292622480195,0.1052626167905037
39.462684,5.27287078413235,0.1049660802784158
39.467272,5.278002542126468,0.1045734643871389
39.47186000000001,5.277204813129489,0.1042203308303177
39.476456,5.276240757969735,0.1038217329598349
39.481044,5.27167896501939,0.103463530266054
39.485648,5.265318303173751,0.1031239710019235
39.49024,5.253194480499785,0.1028675010385692
39.494832,5.248754872263586,0.1024979159511188
39.49941200000001,5.24083971095094,0.1021563013439958
39.504012,5.234068353514234,0.1017862959713071
39.50859200000001,5.225498127182232,0.1014353663491666
39.5132,5.219093323887964,0.1010384856171607
39.517788,5.216652812526724,0.1005767396401306
39.52238800000001,5.217277158650863,0.1000601084663744
39.526972,5.224686284765122,0.0994471933725391
39.53156800000001,5.230052172555793,0.0988694149780003
39.53617200000001,5.229532714803994,0.0983797401023111
39.540768,5.228768887623902,0.0979089640056698
39.545356,5.226739071853728,0.0974753492440282
39.54994000000001,5.228306993874145,0.0970106874949166
39.554532,5.231673784789856,0.0965287906772926
39.559128,5.234918390991423,0.0960570750374961
39.563712,5.243559603878875,0.0955363467030018
39.568308,5.249135959280948,0.0950655912356746
39.5729,5.252136196054223,0.0946081204223278
39.57749200000001,5.258323475027024,0.0940927219318848
39.582088,5.2678199809134965,0.0935066034818778
39.586676,5.274862552885318,0.0929291587366162
39.59127600000001,5.282149494285431,0.092330766987403
39.595868,5.287759751504392,0.0917377245642353
39.60046,5.292470574275707,0.0911525897248509
39.60504400000001,5.298203016208815,0.0905562834108119
39.609636,5.303036023694274,0.089970157320938
39.614244,5.307091781446231,0.0893852031835363
39.618832,5.304240574493925,0.0888948524308307
39.62342,5.300489933093972,0.0884076763868384
39.628016,5.3005813989129,0.0878719404529518
39.632604,5.30349335278892,0.0873103297477341
39.63720000000001,5.307671295255023,0.0867178487293337
39.641792,5.307107696054597,0.0861778899207455
39.646384,5.305644662406523,0.0856441639814769
39.650976,5.302382759863152,0.0851220385015931
39.655568,5.296544738690983,0.0846112457150936
39.66014800000001,5.29442664002355,0.0840653754147562
39.66475200000001,5.294107410251415,0.0835040128226854
39.669344,5.291867126869839,0.0829664151046205
39.67394,5.290159723793472,0.0824504276873272
39.678532,5.29000682018411,0.0819409163314294
39.683128,5.291286231327607,0.0814447553334972
39.687724,5.293342892204606,0.0809496736392863
39.69232,5.296176802815107,0.0804574948005842
39.69690800000001,5.29582367122608,0.0800182566820489
39.701504,5.2960034199422665,0.0796005963602216
39.706096,5.291974507297133,0.0792454582534743
39.710688000000005,5.293464386052031,0.0788495129446397
39.71528000000001,5.298429817883376,0.0784397017862872
39.719868000000005,5.302129261124635,0.0780609795210524
39.724456,5.298144489928129,0.0777585936802738
39.729044,5.295469848770336,0.0774821540969143
39.733632,5.291651403736604,0.0772260678891051
39.738224,5.289387458169877,0.0769769395013434
39.74282,5.289577446517801,0.0767294322992278
39.74740800000001,5.291199749618584,0.0764980233582837
39.752004,5.293721487167016,0.076263418535861
39.75658800000001,5.298697158630098,0.0760321989529591
39.761176000000006,5.303306275950744,0.0758271544305812
39.765784,5.307138143537888,0.0756192767431732
39.770372,5.311747260858534,0.0754169549950365
39.774964,5.3186439859310575,0.0751738591966252
39.779552,5.330282252670113,0.074895094019432
39.78414000000001,5.342819953856816,0.0746136174589453
39.788736,5.356257089491168,0.0743278792064225
39.793324,5.370960213715604,0.074016465091651
39.797928,5.391426498768363,0.0736554335597951
39.802508,5.406496177135236,0.0733201731276375
39.807108,5.426551766596931,0.0729395726223364
39.8117,5.451593267153447,0.0725116105351757
39.816292,5.487506024347256,0.0719819999231133
39.82088400000001,5.5162233059598815,0.0714813757466387
39.825476,5.550948117829121,0.0709211853395037
39.83006,5.586938918288447,0.0703399209501048
39.834652000000006,5.625339511213797,0.0697212059911701
39.839256000000006,5.660020181634411,0.0691225322298155
39.843852,5.689959310388493,0.0685580324760218
39.848444,5.718466124389716,0.0679813763848958
39.853036,5.746195688657436,0.067400601295641
39.857624,5.774824687372806,0.0668207818334536
39.862212,5.797934894688143,0.066267129222001
39.8668,5.817858059803952,0.0657574808994047
39.871388,5.8340613024150265,0.0652734471970741
39.87598,5.849487295292597,0.0647869845900936
39.88056,5.864502592579103,0.0642735433155561
39.885144,5.876697401808519,0.0637787506466288
39.889732,5.889913830199729,0.0632798312526043
39.89432000000001,5.9059507466480285,0.0627647473599324
39.898924,5.914670002800999,0.062282201628243
39.903512000000006,5.9172154025345804,0.0618103335752487
39.908108,5.911177153382749,0.0613900009722328
39.912696,5.914744172278124,0.0609131744114426
39.917284,5.912548030345175,0.0604707700521099
39.921888,5.907531400355137,0.0600421910138247
39.926484,5.901248781775013,0.0596403752114069
39.931088,5.899297009270355,0.0591875378233515
39.935672,5.900410094251077,0.0587064990974236
39.940264,5.901278809803509,0.0582406187671851
39.944856,5.902269710070087,0.057766605169046
39.949452,5.900317937565427,0.0573110671135905
39.954032,5.904129325889096,0.056824480731452
39.95864,5.909084518088701,0.0563218762308082
39.963232000000005,5.911341406945363,0.0558217864896059
39.967828,5.910655623030791,0.0553382337095201
39.972412000000006,5.910624904135574,0.0548680864080792
39.977008,5.912393054135653,0.0543963456889707
39.981596,5.908520228021555,0.0539459082653172
39.986188,5.905791205783394,0.0534811808925492
39.99078,5.903717248564591,0.0530283023273112
39.995372,5.905651724727444,0.052600009390574
39.99996,5.911183938680889,0.0521680846701409
40.004548,5.909931372644216,0.0517726120959583
40.009136,5.913542532988219,0.0513526776700255
40.013732000000005,5.917031508618077,0.0509392746599071
40.01832400000001,5.916800561743198,0.0505355228376455
40.022916,5.911994399364562,0.0501897917220757
40.027512,5.906943867557634,0.0498584206880786
40.0321,5.901116086017204,0.0495197407339405
40.036684,5.898108792533863,0.0491738170693416
40.041272000000006,5.897022552659965,0.0488194507164444
40.045860000000005,5.892871455300684,0.0484876012615351
40.050456,5.886799304331964,0.0481620878945033
40.055044,5.882159468116102,0.0478558779607046
40.059648,5.882261173566769,0.0475349333513785
40.064236,5.880197455979705,0.0472345957874007
40.068824000000006,5.873392196726109,0.0469469787692965
40.07342,5.867364187206015,0.0466643770702066
40.078012,5.857005331610457,0.0464235361505646
40.08260800000001,5.845747041567251,0.0461810309605509
40.087188,5.83293425205704,0.0459239988169319
40.091788,5.811415628947271,0.0456979372045505
