Time,Force,Position
37.39452,2.364383402267473,0.1543143769930454
37.399108,2.459493197709985,0.1537976764827019
37.403708,2.5532045802165286,0.1530637994756974
37.408296,2.643963050320098,0.1522196909012075
37.412896,2.726782696925872,0.1513659536383041
37.41748,2.7987208472626155,0.1507542394703324
37.422068,2.86084326194075,0.1504518097436048
37.426668,2.921489220417398,0.1500222130869021
37.431264,2.975794996311882,0.1497288209431103
37.435856,3.0307897390426124,0.1492292848131149
37.440448,3.073392627485936,0.1490835828429579
37.44504,3.106912888555525,0.1490597456601062
37.449636,3.139934171136792,0.1487754864601725
37.509292,3.126099762464788,0.1485337311271458
37.51388,3.118605536374947,0.1484096777446334
37.518488,3.1100896911233127,0.1483306698734285
37.52308,3.105293768376415,0.148124737839987
37.527684,3.097310803429991,0.1480666963547283
37.532272,3.093702826007661,0.1478893396920472
37.536864,3.0956577814339914,0.1476200709929391
37.541444,3.098922866899035,0.1473661682194182
37.54604,3.103620267116938,0.1471086460736705
37.550628,3.111915405125432,0.1467511806500376
37.555228,3.128427637876902,0.1461421142750362
37.559824,3.1484154237048174,0.1454521724002248
37.56442,3.172000947323325,0.1446411048565033
37.568996,3.1948533626569584,0.1439323954062162
37.573592,3.2251456230000657,0.1429863585690535
37.578196,3.24853091863891,0.1423235270653001
37.582796,3.2730600181536933,0.1416092175564459
37.587388,3.3010646707449225,0.1408189225233005
37.59198,3.336753537773917,0.1397599421970029
37.596568,3.373097469822268,0.138732815539963
37.601156,3.405354925223445,0.1378915137704569
37.605744,3.43683513089112,0.137085578648082
37.610336,3.474200682101264,0.1361010028360474
37.614932,3.5137316563491416,0.1350620634812693
37.619524,3.5551836842064604,0.1339719977367414
37.624116,3.595614092901986,0.1329221717779246
37.628704,3.63383493711115,0.1318939208803976
37.6333,3.669479662691516,0.1309222842403435
37.637888,3.705613127128465,0.1299050722675411
37.642476,3.74019209209841,0.128934222942247
37.647072,3.7694966350966137,0.1280867398727399
37.65166,3.797246678627813,0.1272670680848429
37.656248,3.8272843299108894,0.1263665207217881
37.660844,3.8608755775359302,0.1253298556112252
37.665432,3.891113456798671,0.1243685106045993
37.67004,3.92531562799444,0.1232966444815129
37.67464,3.957352376152476,0.1223021644194832
37.679244,3.985136321500564,0.1213764070774371
37.683836,4.008423094610413,0.1205517664142607
37.688432,4.030033183539112,0.11975683362591
37.693012,4.051887641896103,0.1189360169874959
37.697612,4.0727204810913,0.1181557815724191
37.702188,4.089711213067614,0.1174834582000554
37.706788,4.101838218663251,0.1169348307890357
37.711384,4.111511290344236,0.1164103591089675
37.715976,4.122694720043598,0.1158119556879657
37.720556,4.131712726705228,0.1152783431784428
37.725148,4.1444506558715934,0.1146763525276817
37.729748,4.155800411733729,0.1141412209056584
37.734348,4.16114263733925,0.1137551053657519
37.738936,4.169305351001859,0.1133140173562632
37.743532,4.178489683826262,0.1128518918719268
37.74812,4.185142039470495,0.112494073425508
37.752708,4.185542495429822,0.112306504566257
37.757296,4.183777528351416,0.1121833112808298
37.761888,4.181113126825362,0.1120744968263064
37.766484,4.183556821108275,0.1118394280643126
37.771068,4.189476068467634,0.1115625657704895
37.775652,4.194906576970411,0.1113313183959178
37.780244,4.20303538881613,0.1110629657368188
37.784836,4.213085254271292,0.1107592687310193
37.78942,4.221214066117011,0.1104937474684966
37.794008,4.228443443515085,0.1102426124474567
37.798604,4.236816624789096,0.1099551293532754
37.803192,4.2457226863683175,0.1096888650068729
37.80778,4.256061062700399,0.1094364902687216
37.812376,4.272162599860803,0.1090765952506934
37.816968,4.2862208986976205,0.1087697220983435
37.821564,4.302322435858026,0.1084180303204303
37.826152,4.327007621903844,0.1079128096597354
37.830752,4.346951266283132,0.1074909847385211
37.835332,4.363707868462893,0.107152796471096
37.839932,4.3827520783945335,0.1067484258923668
37.844524,4.406782199420995,0.1062377226771297
37.84912,4.433754993218692,0.1056719016455344
37.85370399999999,4.458684548692802,0.1051539467975945
37.8583,4.4797719969480285,0.1047156375475874
37.862892,4.501881064365049,0.1042641643673165
37.867488,4.527421543409888,0.1037170274022833
37.87208,4.546299427178753,0.1032797605658419
37.876676,4.558881269814086,0.1029189829127906
37.881264,4.570685862715915,0.1025558290382901
37.885856,4.581713205884242,0.1021931186985842
37.890444,4.593639983500216,0.1018217990135536
37.89503199999999,4.60809873829636,0.1013674591939994
37.89962,4.61932630944435,0.1009286010545027
37.904212,4.6261788930682455,0.1005366018121278
37.90880799999999,4.630699727491636,0.100143780986024
37.913388,4.63288881271452,0.0997518608581714
37.917988,4.627105172622717,0.0994414711773469
37.922576,4.627329062787531,0.0990188346688928
37.927172,4.629063310970721,0.0985333503685846
37.931764,4.628343625239259,0.0980581929974372
37.936356,4.626069440040793,0.0975838277328603
37.940948,4.619298082604088,0.097156121502614
37.94554,4.61481433291926,0.0966682249919848
37.950144,4.607510095177343,0.0962163882830219
37.954736,4.591089328244802,0.0958665274929893
37.959324,4.5728696924169645,0.0955335331758106
37.96392,4.561679206007537,0.0950727059826624
37.968504,4.557151314874082,0.0945140174079042
37.973096,4.556587715673655,0.0938884308427543
37.977676,4.556146301187374,0.0932507832540956
37.982268,4.555827071415238,0.0926061004108602
37.986852,4.549866865528924,0.0920328205838418
37.991456,4.543662290214318,0.0914782783775737
37.996048,4.537335530185566,0.0909321666445661
38.000644,4.530886585442669,0.0903926147936839
38.005236,4.525214890433274,0.0898540568027594
38.009832,4.525839236557414,0.0892562280882171
38.014432,4.52352090991032,0.0887081226042883
38.019028,4.521979832996728,0.0881640461836191
38.023628,4.521871070835994,0.0876355297047312
38.02822,4.5224173736946165,0.0871215170394798
38.032812,4.524884730162681,0.0865787130147833
38.037396,4.526208282754806,0.086065958383226
38.041984,4.534194430622902,0.0854733293393869
38.046584,4.552318726843417,0.0847764086911879
38.051172,4.5708537186549965,0.0841166344618109
38.05576799999999,4.585302233819402,0.0835321182512735
38.06036,4.599017640698933,0.0830143885391195
38.064948,4.613632482026113,0.0824993376955313
38.06954,4.631722876429737,0.0819726675297582
38.074128,4.648669466957424,0.0814749858681967
38.07872,4.671545544476207,0.0809622395639228
38.083308,4.6969977406237895,0.0804433768790571
38.08789599999999,4.721183948181286,0.0799567024491117
38.092492,4.752565631319966,0.0794279953899707
38.09708,4.787422867535091,0.0788940743782073
38.101668,4.820359050140776,0.0783910142534692
38.106264,4.8577924049847,0.0778708677779218
38.110856,4.893837586524391,0.0773965688322885
38.115452,4.928983333616436,0.0769306342890844
38.120032,4.964906330441983,0.0764745078147588
38.124632,5.00700318368692,0.0760007575949134
38.12922,5.049755101951212,0.075543035176654
38.13382,5.088420543568331,0.0751498280225917
38.138408,5.125164931576008,0.0747852753608978
38.143008,5.162153689011977,0.0744064845182993
38.147596,5.202617999524392,0.074020404393584
38.152188,5.24716878668398,0.0735911617390373
38.15678,5.286611478034601,0.0732310933586762
38.161376,5.324133115775781,0.0728941971651092
38.165972,5.361776938231107,0.0725508227922863
38.170572,5.402607802885957,0.072172062292447
38.175164,5.444582471416749,0.0717802170495335
38.179756,5.494607908527742,0.0713068400339533
38.184348,5.538337304505199,0.0708690832097288
38.188932,5.577325158816128,0.0704705129189983
38.19352,5.616313013127056,0.0700763379209816
38.19812,5.645695599390776,0.0697587007517533
38.202712,5.675566924511078,0.0694100508978019
38.2073,5.708503107116763,0.0690319632817683
38.211896,5.736042683036561,0.0686739874482408
38.216484,5.755242979499236,0.0683651652103671
38.22107999999999,5.7739103956567,0.0680376267909336
38.225668,5.791800562080661,0.0677051961663808
38.230256,5.807769674895184,0.0673892866116032
38.23486,5.820141049919112,0.0670860978332032
38.239448,5.828381806847239,0.06677633511316
38.24406,5.828527653746535,0.0664963460371907
38.248648,5.833659411740653,0.0661710807353096
38.253236,5.837358854981913,0.0658291497343866
38.25783199999999,5.841180482937318,0.0654801221554077
38.26242,5.835641212273808,0.0651834411893807
38.267024,5.822417727172533,0.0649385172549553
38.271616,5.801387842919344,0.064753004422097
38.276212,5.782523381703889,0.0645379829631325
38.2808,5.7649249090785215,0.0642968077641071
38.2854,5.745527567557854,0.0640597973313295
38.289988,5.731360506560304,0.0637628030038455
38.294584,5.7173156302768975,0.0634573172681964
38.299172,5.69660815871752,0.0631898250838901
38.303772,5.681419478558175,0.0628996434951731
38.308364,5.671338894207798,0.0625590594977548
38.31296,5.658437821800331,0.0622309044876942
38.31754,5.643860065211713,0.0618972352060077
38.322136,5.630670481927327,0.0615305799049917
38.326732,5.622222440309471,0.0611373432970036
38.331328,5.616594886748705,0.0607298004904349
38.335916,5.609823529311998,0.0603352506147503
38.3405,5.597533380475259,0.0599596618503848
38.345092,5.584998862210228,0.0595978281956845
38.34968799999999,5.573363778392847,0.0592342439464461
38.354276,5.564793552060845,0.0588392769441065
38.358868,5.56133142153781,0.0583938349357139
38.36346399999999,5.559912529338363,0.0579282830597938
38.368052,5.553263356615804,0.0575157399903244
38.372644,5.544693130283802,0.057112809681242
38.377224,5.5344462197706505,0.0567023435962955
38.38181599999999,5.523954939829209,0.0563072003027692
38.3864,5.512197671297681,0.0559359636771385
38.390988,5.505181944432684,0.0555402739396455
38.395576,5.4948128492053865,0.0551338798360585
38.400172,5.478436223721474,0.0547722141125215
38.404768,5.4639806518470015,0.0543973719075452
38.40936799999999,5.4524677527437655,0.0540010046426249
38.41396,5.435968942545707,0.0536388689910643
38.418556,5.416405274862267,0.0533029177677324
38.423136,5.3928773152458005,0.0529919656224256
38.427728,5.370248790076982,0.052676197542567
38.432308,5.348641884069956,0.0523477486198879
38.436912,5.324991739739343,0.0520343854773531
38.441504,5.295334065152114,0.0517640241868927
38.446096,5.263388782813008,0.0515245474097068
38.450692,5.22837864298852,0.0513083324061354
38.455284,5.186705907888061,0.0511176039018303
