Time,Force,Position
36.315492,1.9445170004794476,0.1696483732126766
36.320088,2.06779459175429,0.1683274428554041
36.324676,2.1959800508584366,0.1668980068334708
36.329276,2.322655151944207,0.1658904907120109
36.333864,2.4553819247352213,0.1643726395289772
36.33846,2.5882647840572703,0.1624350786942291
36.343048,2.706424039891406,0.1613333681382397
36.347636,2.814356864475868,0.1607858313839525
36.352224,2.9200359831253406,0.1602448442402649
36.356816,3.019741473335088,0.1598022906457708
36.361412,3.1176039532009105,0.1593826174554173
36.365996,3.214478715721829,0.1588400734517291
36.370592,3.3120424450789945,0.1581186155560347
36.37518,3.3981137545964004,0.1577588782493891
36.379776,3.4790667286731,0.1573555319568635
36.38436,3.550692705947773,0.1571373968604864
36.393556,3.6700060052895855,0.1569306700123951
36.398144,3.720513815413817,0.156819803513036
36.421084,3.84625558023505,0.1566637277417572
36.42568,3.848465144721412,0.1566446332453331
36.430268,3.847643753539281,0.156578913417526
36.434864,3.8490658286604007,0.1563235828602177
36.439452,3.844392090627649,0.1561435425715136
36.444052,3.8377090160882,0.1558753010567788
36.448644,3.832247788690207,0.1554602151936862
36.45324,3.8196691289765488,0.1551577427426684
36.457832,3.802959851167088,0.1549358955301995
36.462428,3.781831444384906,0.1547404767292045
36.467016,3.765644807248917,0.1542873270438374
36.471612,3.7509685281313048,0.153736402140413
36.476204,3.7391907803362994,0.1530070990073394
36.480796,3.7289233905596704,0.1521811026518739
36.485384,3.7202885435155615,0.1512449363634392
36.489972,3.716639607566277,0.1501436085517364
36.49456,3.715444605531644,0.1489956970431906
36.499152,3.711306930725776,0.1479391159946954
36.503748,3.708601570672767,0.1468710546318493
36.50834,3.712436621181584,0.1456066930625706
36.512928,3.714883498386171,0.1444155770246082
36.517508,3.718762690343616,0.1432315897999065
36.522088,3.7212537089968314,0.1421279891493012
36.526684,3.725299227117049,0.1410057377903554
36.531272,3.737195285837808,0.1397040058090606
36.535868,3.746314997950105,0.1385685455013368
36.540448,3.757522089834617,0.1374525807950369
36.54504,3.7736370495484337,0.1362513101304315
36.549644,3.7884860206721664,0.1351062978626596
36.554232,3.800314275759146,0.1341382976463797
36.558824,3.808100195647579,0.1333993326508253
36.563404,3.814131388089345,0.1327856211231648
36.568004,3.8198401678373024,0.1322951400061965
36.572592,3.826492523481536,0.1318650181671948
36.577192,3.832411770840895,0.1315195094725102
36.581784,3.8328563682488497,0.1313891228618615
36.586384,3.835754899571456,0.131227489150607
36.59098,3.849446644265837,0.1308395874566493
36.595572,3.8653479534465776,0.1304490077207845
36.600156,3.878228546590568,0.1302317664608183
36.636872,3.9984444633017033,0.1300192787531631
36.64146,4.023482780936546,0.129924357837448
36.646052,4.058004181904451,0.1296122901510491
36.650644,4.097633678681324,0.1291584100689208
36.655236,4.138162609905844,0.1286874250921363
36.659824,4.179835345006304,0.1281801828624829
36.664412,4.223429133716205,0.1276424740149247
36.669008,4.268699606607256,0.1270851621120581
36.673592,4.3158911331077485,0.126478010985591
36.67818,4.362427594588883,0.125881467565081
36.682776,4.397027038822305,0.1255312772805774
36.687364,4.431215787464662,0.125155869565721
36.691968,4.470224121039067,0.1246116641724716
36.69656,4.511109366774286,0.1239754784794758
36.701156,4.558490881622702,0.1231506364565257
36.705744,4.604684451146552,0.1223131411421274
36.710344,4.650711694507628,0.1214324220609927
36.714932,4.695795361972428,0.1205012296984476
36.719532,4.734705173017837,0.1196631054799234
36.724116,4.775247526795769,0.1187464940677047
36.728716,4.810637643316105,0.1179077799362536
36.733312,4.839076653683551,0.1171727353968866
36.737904,4.858643504288663,0.1165727093530917
36.742492,4.87191431376024,0.1160692469414209
36.747088,4.8868176659643385,0.1154951730934067
36.751676,4.899267084253786,0.114941081834508
36.756272,4.906686449999782,0.1144356528244721
36.76086,4.916104912620737,0.1138322266571139
36.765448,4.927155917974214,0.1131607950580517
36.770036,4.934487000822957,0.1125489252539541
36.774616,4.945782375604724,0.111853263396521
36.779204,4.954501631757695,0.1111841118388901
36.783796,4.960400399853577,0.1105703787494233
36.788392,4.964255929625871,0.1100064163809014
36.792972,4.961693233550485,0.1095327320815182
36.797556,4.960152156636893,0.109041222324173
36.802148,4.956812210828004,0.1085716688375807
36.806736,4.956414937790351,0.1080522467180098
36.81134,4.960104141399872,0.1074502927369595
36.815928,4.962893910561744,0.1068611662937448
36.820516,4.965561495009471,0.1062801538419991
36.825112,4.970027948352494,0.1056774248538992
36.8297,4.978214324200254,0.1050224179710709
36.834292,4.988976818676812,0.1043429429130126
36.838888,4.996674455667989,0.1037275388926728
36.84348,5.006415330982755,0.103074258083531
36.84806,5.018854509640462,0.1023916244145098
36.85266,5.024264538879762,0.1018383176540936
36.85724,5.027631329795473,0.1013276508879308
36.86184,5.03394079348242,0.1007687085546677
36.866424,5.041149691617014,0.1002029683632627
36.871016,5.050035273932759,0.0996270642468045
36.875604,5.054956564315475,0.099116746690816
36.8802,5.058078985802895,0.0986262581804123
36.884788,5.0640218953474045,0.0980969155670151
36.88938,5.063180024901796,0.09766865356673
36.893968,5.06425920806563,0.0972132053229611
36.898564,5.061251914582289,0.0968328128364046
36.903152,5.059266240260742,0.0964364247376919
36.907748,5.0554816970439,0.0960563308178328
36.912336,5.052963142417142,0.0956386441908179
36.916936,5.049422968628591,0.0952385337983857
36.921524,5.042285057049448,0.0948711152511673
36.926116,5.03473644987924,0.0944732561769343
36.930708,5.026288408261384,0.0940818163961396
36.935296,5.014897693872293,0.0937333492706048
36.939892,5.000808676140258,0.0934082567084538
36.944484,4.989662331179458,0.0930365882460457
36.949072,4.978515986218659,0.0926641751133416
36.953664,4.966470206810212,0.0922995312627007
36.958256,4.953402808239972,0.0919520202801552
36.962844,4.940457594383877,0.0915942356888812
36.96744,4.931476672460811,0.0911753397071745
36.972036,4.923395184985392,0.0907477466898822
36.976632,4.914947143367535,0.0903482269628845
36.981228,4.913283881739797,0.0898556253823213
36.98582,4.91047681623612,0.0893907432776647
36.990412,4.908813554608381,0.0888973000098783
36.995008,4.9049848699429095,0.0884489623771225
36.999596,4.90475392306803,0.0879721885050243
37.004204,4.903501357031358,0.0875117677154645
37.008792,4.905069279051776,0.0870224362503072
37.01338,4.912033807758079,0.0864928632016793
37.017972,4.9183874128936536,0.0860090281671543
37.022568,4.927561506086318,0.0854958397193686
37.027164,4.940455521783718,0.0849481160016189
37.031752,4.955803471395771,0.0843993656535111
37.03634,4.9727059204748265,0.0838576757173569
37.040932,4.990507804001533,0.0833133830257302
37.045524,5.011252360299474,0.0827392490289955
37.050116,5.030075862987975,0.0821857715600918
37.0547,5.053640907343005,0.0815939256468926
37.0593,5.074918343946155,0.0810523483758144
37.063888,5.096195780549308,0.0805138043205749
37.068484,5.118494836314252,0.079963216067143
37.073068,5.139650088203258,0.0794427522808073
37.077644,5.160805340092263,0.0789242405781791
37.082228,5.186457764219507,0.0783850833017362
37.086824,5.209289700289664,0.0778690280764682
37.091408,5.23212163635982,0.0773605033520903
37.09602,5.257529691058774,0.0768489584286969
37.100604,5.281016692148286,0.0763610235287724
37.105196,5.304625877951944,0.0758742455956234
37.109788,5.331422105955127,0.0753422474291857
37.114368,5.357074530082372,0.0748351925558952
37.11896,5.378884846990734,0.0743654315603907
37.12354,5.400040098879739,0.0738860637537283
37.12814,5.423360773806478,0.0733790010847683
37.132728,5.442839341514334,0.0729057828240552
37.137328,5.461174105346251,0.0724610914205726
37.141912,5.480530488339959,0.0720025049082102
37.146512,5.491181037734111,0.0716241752008329
37.151104,5.505018629327789,0.071202859545069
37.1557,5.519633470654967,0.0707881833692537
37.160288,5.5356364852863775,0.0703421306299231
37.16488,5.550862250184285,0.0698941195355146
37.169484,5.565188580634545,0.0694501477666507
37.17408,5.575017738846565,0.0690277067345175
37.178668,5.590610057886909,0.06856210939259
37.18326,5.6015830199748695,0.0681219564587821
37.187848,5.609080428986384,0.0676880993316611
37.192436,5.615922772978541,0.067241949164746
37.197024,5.617001956142375,0.0668392105865886
37.20162,5.614239032087326,0.0664649648132545
37.206204,5.611842662174713,0.0660672049378981
37.210792,5.611856084728125,0.0656232749626949
37.215388,5.613013311157476,0.0651623466565253
37.219976,5.607507942310855,0.064743649299704
37.224568,5.606988484559055,0.0642798928678267
37.22916,5.602871289016665,0.063826835746429
37.233744,5.603984373997389,0.0633178089936397
37.23834,5.611104989234727,0.0627547931527169
37.242928,5.611563009196094,0.0622296163937343
37.247516,5.606624422471573,0.0617151012639083
37.252112,5.597599359099879,0.0612407443659594
37.256708,5.593315837394714,0.0607443613087841
37.26132,5.591197738727283,0.0602213855649571
37.265912,5.588058020898058,0.0597059407585326
37.270508,5.580421130830594,0.0592007124126374
37.275096,5.576748532696159,0.0586641581190898
37.279696,5.574752618742873,0.0581306288319351
37.284284,5.571612900913648,0.0576120703307552
37.28888,5.569494802246216,0.0570802340571179
37.293472,5.571340995511814,0.0565198399581255
37.298068,5.573065004063263,0.0559681974590886
37.302664,5.573156469882193,0.0554640818159344
37.307256,5.566218786282713,0.0550118647301305
37.311836,5.564144829063909,0.0545279900776327
37.316432,5.559006014359724,0.0540720876258851
37.321028,5.55362283022725,0.0536289045403328
37.325628,5.541743376981577,0.0532628281937484
37.33022,5.526021816517021,0.0529150283714844
37.33482,5.519783339385525,0.0525274845295404
37.339408,5.52086252254936,0.0521247871536211
37.343992,5.5227189554466944,0.0517273821655648
37.348584,5.513171251401528,0.0513760745246476
37.35318,5.4994148859950425,0.0510644551608028
37.357772,5.487335204769704,0.05075806105693
37.36236,5.477587272744874,0.0504723377917398
37.366944,5.46428574437808,0.0502415956296197
37.371532,5.448285912668342,0.0500104838274646
37.376124,5.433063330692108,0.0497851265230366
37.380712,5.418617998449376,0.0495656304945427
37.3853,5.399064570397675,0.0493855967323451
37.389896,5.379266772917684,0.0492202218814396
37.394484,5.3616343984754256,0.0490302748802091
37.399072,5.351686238470934,0.0488057865842635
37.403668,5.336874352085763,0.0486039038278282
37.408256,5.319897042662861,0.048424461082767
