Time,Force,Position
36.929304,1.6564126138791828,0.1896002762930697
36.933896,1.7454234132461504,0.1893279984471609
36.938484,1.8392979389937945,0.1882981836278098
36.943084,1.9335390188838752,0.1871721495895123
36.947672,2.0293345982409607,0.1857897891971737
36.952276,2.1272956006357786,0.1843083491704569
36.956864,2.223457734135301,0.183232703424449
36.961464,2.3205973453479887,0.1822143667594809
36.966056,2.420679629331911,0.1811078453394907
36.970652,2.5151548390185448,0.1802034197641073
36.975228,2.5974384223974343,0.1798058554120346
36.97982,2.6754589633346373,0.1792589433672528
36.984412,2.7463959737730645,0.1787183730807127
36.989004,2.8150351368278748,0.1780458863233786
36.993592,2.875002368100015,0.1776590272934573
36.998176,2.927197102037133,0.177486592397572
37.002764,2.984944529191175,0.1767661812376495
37.00736,3.037084882047927,0.1761507859095942
37.011952,3.086272322501705,0.1754325364301726
37.01654,3.135860218914809,0.1744418546350161
37.021132,3.1788194218688317,0.1735903945576056
37.02571999999999,3.219158364745428,0.1727428626521523
37.030316,3.25736578640118,0.1718634783930054
37.034896,3.293563871550235,0.1709163139610309
37.03947599999999,3.332860716001559,0.1696633861230395
37.044068,3.366306116727303,0.1685196758210739
37.048656,3.3958211273369088,0.1673851383401986
37.053236,3.4149094787171768,0.166600409611629
37.05782799999999,3.4267582130676337,0.1659971209330752
37.062408,3.441793989617617,0.1652511963318541
37.067004,3.463247992015281,0.164286753187139
37.071584,3.482414386661067,0.1634516223524525
37.07618,3.5012142271644158,0.1626607523902869
37.080768,3.5187480790776795,0.1619611908660028
37.085368,3.540490592352263,0.1610656752444067
37.089952,3.567219016721668,0.159963746253144
37.094548,3.593414560785863,0.158885412019496
37.09914,3.620509539297706,0.1577868157220629
37.103732,3.6432736717340815,0.1569000242744613
37.108324,3.66489400029452,0.1560871033091607
37.112916,3.6895791863403375,0.1551560037505331
37.117504,3.7152418500993214,0.1541156156120029
37.122092,3.739472199105448,0.153106275423731
37.126684,3.763047483092216,0.1521100854500175
37.13128,3.778161302907717,0.1513944047625188
37.135872,3.793641676865655,0.1506381209271611
37.140464,3.811820354166537,0.1498203813454989
37.14506,3.833796997237673,0.1487927828392835
37.149636,3.856262379165392,0.1477021204488718
37.15422,3.8742305888548714,0.1467473717078543
37.1588,3.887579441591965,0.1459374081554902
37.16338399999999,3.900273229309704,0.145115889398786
37.167984,3.91525462477932,0.1441943749731935
37.172572,3.92958095522958,0.1432725697370842
37.177164,3.941086797622751,0.1424399859285202
37.18176,3.951160325263062,0.1416252100281684
37.186356,3.9562479418085528,0.1409784196183644
37.19096,3.959658874172893,0.1403622413287212
37.19555999999999,3.967034098470261,0.1396204170569135
37.200152,3.973632073034127,0.1388898636776246
37.20474,3.9784311787026976,0.1382076838554572
37.209344,3.9800432421717415,0.1376415245740016
37.21393199999999,3.976302840403527,0.1372703361782369
37.218532,3.968598146702284,0.1370222572924525
37.22312,3.962692321896337,0.1367306262845977
37.22772,3.9574415621097456,0.1364450706844023
37.232308,3.9505141181420047,0.1361883706484811
37.23690799999999,3.9457962386606247,0.1359244066596084
37.241492,3.942510673932104,0.1356600898124823
37.246076,3.939102924489437,0.13540810890819
37.250676,3.9381491089614222,0.1351234101372949
37.255268,3.942469715405149,0.1347357998951109
37.25986,3.949122071049382,0.1343366691807557
37.264452,3.95450843810353,0.1339945867999371
37.26904,3.961327119910537,0.133653645347014
37.273624,3.968312127880317,0.1333754930647444
37.278212,3.9797943080883367,0.1330055546097753
37.282808,3.994874226086948,0.1325670096586354
37.2874,4.009465405228978,0.1321863369579241
37.29199199999999,4.0272877680191606,0.1317789339408593
37.296572,4.045398641686264,0.1314182819218666
37.30116,4.065841264553874,0.1310399606240282
37.305756,4.093190852125746,0.1304723436253079
37.310348,4.129901338316534,0.1297047070429248
37.314936,4.167022520098387,0.1289633743566169
37.31954399999999,4.201856094128361,0.1283048908619758
37.324132,4.235545864282398,0.1276941640883175
37.328724,4.269235634436434,0.1271016966618046
37.33331999999999,4.304968642914056,0.1264640826370836
37.337908,4.345076638915772,0.1257649228061737
37.342504,4.383507950736338,0.1250939094406392
37.34709599999999,4.418219340052167,0.1245114019966205
37.351688,4.448189187701466,0.124038561046034
37.356276,4.480324458388497,0.1235001241041517
37.360876,4.515646771275055,0.1228822927199129
37.365464,4.548637334961106,0.1222795124315906
37.370064,4.578152345570712,0.1217315799420298
37.374652,4.606890106446815,0.121201783812779
37.379252,4.636116606179501,0.1206369339127054
37.383836,4.660557422797027,0.1201085768772746
37.388432,4.683565924661696,0.1195747155464024
37.393028,4.712049076477768,0.1188999075440646
37.39762,4.737178859931542,0.1182668391606731
37.402212,4.753969363928193,0.1177854216285032
37.406804,4.772636780085657,0.1172087111891679
37.411392,4.795102162013374,0.1165015935680722
37.41598,4.816135229188235,0.1157867478517252
37.420568,4.831771689677208,0.1151504221293136
37.425156,4.844832031537383,0.1145487194708636
37.429756,4.852862320854109,0.1139943862310166
37.43434799999999,4.860237545151477,0.1134316094376848
37.438944,4.869123127467223,0.1128076901991038
37.44352,4.8806628716772815,0.1120891118244062
37.448116,4.890403746992045,0.1113962326946278
37.452708,4.89564745006857,0.1107687192337271
37.457284,4.900891153145095,0.1101396994412963
37.46188,4.905479791202264,0.1094990692772245
37.466468,4.906104137326405,0.1089365728323626
37.471076,4.902764191517516,0.108451508672912
37.475656,4.900978745175633,0.1079625479970662
37.48025199999999,4.898293864386101,0.1074827475900349
37.48485599999999,4.88498209638757,0.1071912548561733
37.489444,4.877844184808427,0.1068321764182486
37.49404,4.869806838781636,0.1064816823476589
37.49862,4.863323992221849,0.1061307759561588
37.50322,4.855452972357831,0.1058314819055675
37.50780399999999,4.851956940017908,0.1054897492738477
37.51240799999999,4.852180830182722,0.1050950693539137
37.516992,4.851138731757451,0.1047402954955991
37.521592,4.854349436142129,0.1043545095395282
37.526176,4.858337390260307,0.1039683760570149
37.530772,4.85913830217896,0.1036527135141715
37.535352,4.859328290526885,0.1033880194862511
37.539948,4.866180874150781,0.1030294705115868
37.544544,4.87381070750818,0.1026713268635769
37.54914,4.884383213636813,0.1022676848509639
37.553728,4.897531838394244,0.1018460284959191
37.558316,4.912845886189408,0.1013755293793304
37.562904,4.931346976184098,0.1008385838999805
37.567492,4.95369017339767,0.1002538474609437
37.572084,4.9830625200296526,0.0995580472813362
37.57666,5.019219646651752,0.0987580880304049
37.581256,5.048181297692668,0.0980421769067645
37.585832,5.082906109561911,0.09724912940535
37.590428,5.111334880297617,0.0965196185056518
37.595016,5.13706534769038,0.0958168266478913
37.599604,5.162140750063785,0.0951158104293995
37.604212,5.185783837684333,0.0944076653196452
37.6088,5.21195890248505,0.0936315750550081
37.61338799999999,5.235147153065904,0.0928492160763869
37.61798399999999,5.255759285017961,0.0920790699526976
37.622572,5.2785368400077495,0.0912651082961727
37.627168,5.297961026635239,0.0904627791603973
37.631748,5.30892374909146,0.089764585064717
37.636344,5.321152460137765,0.0890356615675324
37.640924,5.328761814231686,0.0883534240941025
37.645524,5.335838288020396,0.0876546114062193
37.650116,5.344180750399191,0.086925868347915
37.65471599999999,5.3508465285968345,0.0862045925694477
37.65931199999999,5.351094080946799,0.0855418307981252
37.663904,5.343535234144852,0.0849779014405427
37.668496,5.333278083999962,0.0844335753741695
37.673092,5.321222064959777,0.0838966351883714
37.6777,5.304424504253061,0.0834082038027489
37.682292,5.290325246889286,0.0828971503891924
37.686884,5.27659254366795,0.0823557796562885
37.69148,5.255419995437141,0.0818771015368982
37.696056,5.232981458616245,0.0814277357091427
37.700644,5.206456445148175,0.0810345404382275
37.705232,5.180586496699464,0.0806493636090206
37.709832,5.161256958812578,0.0802046265247407
37.71442,5.142826855373338,0.079753182714119
37.719012,5.125951251401104,0.0793052892003124
37.723608,5.112018320200104,0.0788203598288316
37.728188,5.098740454018461,0.0783488753663525
37.73278,5.08906032562741,0.0778545103145955
37.737368,5.077214774198626,0.0773949691115309
37.74196,5.063981049465613,0.0769753985436297
37.746568,5.052424008913747,0.0765537734153468
37.751156,5.042543652543033,0.0761282896169765
37.755752,5.034339980353469,0.0756991267869562
37.760344,5.026669188469115,0.0752907700231039
37.76494399999999,5.023251199394709,0.0748741827009526
37.769536,5.021099198910388,0.074424436052005
37.77412399999999,5.0244659898261,0.0739422491268332
37.778728,5.034783886894704,0.0734473253700982
37.78332,5.053318878706283,0.072903018604423
37.787912,5.076473227470247,0.0723318344076802
37.792492,5.103347498738949,0.0717351067825743
37.797092,5.12715691252227,0.071176507008407
37.80168,5.147901468820211,0.0706653717581664
37.806284,5.16840165568986,0.0701762206820626
37.81087599999999,5.191966700044889,0.0696532754885066
37.815476,5.21438794052398,0.069153092159963
37.82006,5.2330892584983335,0.0686783934649378
37.824656,5.256409933425071,0.0681874137494457
37.829244,5.285371584465989,0.0676644231361235
37.833836,5.315232669954554,0.0671414664304051
37.83842799999999,5.34562663574833,0.0666460908336641
37.84302399999999,5.375121167094457,0.0661531761775229
37.847604,5.409601609535407,0.0656184495055055
37.852192,5.449067963071178,0.0650456181642888
37.856772,5.490577554930538,0.0644583272201337
37.861364,5.534541080704546,0.0638858485954059
37.865956,5.5746624992596745,0.063351110591334
37.87054,5.606689007785972,0.0628460542899434
37.875132,5.636139397683471,0.0623470080957351
37.879724,5.661869865076235,0.0618691415055791
37.88432,5.690420820526087,0.0613846071294394
37.888904,5.724734936804263,0.060867031765544
37.893492,5.758271803348936,0.0603476590497677
37.898088,5.791153604874254,0.059819348070945
37.90268,5.824934840847219,0.0592981379232908
37.907276,5.861658749591419,0.058760896636771
37.911872,5.898260473621473,0.0582291327180009
37.916464,5.924357495156673,0.0577559739735166
37.92106,5.946734594187135,0.057302654551468
37.925652,5.964614520979358,0.056856151207623
37.930248,5.976198406638047,0.0564185161142375
37.934828,5.994444887572706,0.0559527729046101
37.939428,6.006028773231395,0.0555212632434431
37.94402,6.010172813880608,0.0551171072491564
37.948616,6.008675878415643,0.0547348285524179
37.953208,6.004114085465298,0.0543783154011206
37.957792,5.995832370010216,0.0540322597638593
37.962388,5.98820571957449,0.0536970780927393
37.966984,5.977514211653383,0.0533851471245706
37.97158,5.9651460195511286,0.0530654905956977
37.976172,5.945093613011106,0.052781824697797
