Time,Force,Position
36.45332,3.1326621483258017,0.1461904458930476
36.457912,3.180295089312575,0.1460287569305677
36.4625,3.2316038113554577,0.1456773931670226
36.467096,3.281358033931336,0.1453533877913529
36.471676,3.330945930344441,0.1449363802052034
36.476264,3.3849868575471564,0.1442793461013664
36.48086,3.4342421016347138,0.1437164597405114
36.485448,3.4839080413133354,0.1432313407499137
36.490044,3.534761926316525,0.1427858329219025
36.49464,3.5830396926909165,0.1424005366357466
36.499228,3.635037381570045,0.1419278844321342
36.503824,3.688833939344469,0.1414218129038923
36.50842,3.744918104870772,0.1408199889191316
36.513012,3.801368824539511,0.1402160820974254
36.517604,3.858552652493125,0.1395419131953334
36.522204,3.9153257848556726,0.1388532730601375
36.526792,3.964781256922893,0.1383583153907583
36.531396,4.018567575065579,0.1376850369654993
36.53598,4.072065382331344,0.1369675262641269
36.54058,4.124497428986689,0.136220313250047
36.545176,4.169734000060851,0.1356547604920912
36.549772,4.21222812634344,0.1350996188246463
36.554364,4.248670580920787,0.1346740812665736
36.558956,4.282370590706561,0.1342367892149841
36.563544,4.320401446567801,0.1336630652806975
36.568144,4.356467107370971,0.1330814711587581
36.572732,4.394043126192518,0.1324276321038974
36.577328,4.4286323307942,0.1317997721078125
36.581916,4.462277959499609,0.1311323486591481
36.586508,4.495635077328097,0.1304208037409731
36.591096,4.523673631736216,0.1297508068459194
36.595692,4.546027068581528,0.1291406314328983
36.600284,4.562695387864033,0.1285907635798828
36.604864,4.5711466124035605,0.128201731631469
36.60946,4.57624446858079,0.1278572954758516
36.614048,4.578477695252301,0.1275105079648323
36.618644,4.583365083818129,0.1270499927905099
36.623232,4.585798538469303,0.1266158238624134
36.62782,4.5869218630817645,0.1261681479465524
36.632416,4.5894333609984574,0.1256633894730406
36.637004,4.593699586361816,0.125063332067905
36.641608,4.592691389753434,0.124543017030573
36.6462,4.586286586459165,0.1241110734617608
36.650788,4.582824455936133,0.1236101926408907
36.655392,4.574332272869649,0.123169503560172
36.65998,4.564529959764451,0.1227127261904804
36.664584,4.5513742782969535,0.122291430674514
36.669164,4.532821990143571,0.1219563430763072
36.67376,4.512593017809035,0.1216365961320896
36.678352,4.494407283798088,0.1212623172111914
36.682948,4.472790138159324,0.1209965311099208
36.687532,4.455137284453587,0.1206359733916544
36.692132,4.439405484357292,0.1202319790026651
36.696716,4.429148334212402,0.119661491468199
36.701312,4.4183583037623,0.1190679121771326
36.705904,4.4065466541504055,0.1184965959181996
36.7105,4.390648527891337,0.1180253567159237
36.715096,4.376016390222354,0.1175027074064396
36.719684,4.364082555896313,0.1169365562887004
36.724272,4.346141191313658,0.1165097449897966
36.72886,4.32627877312156,0.1161184814820822
36.733448,4.311035711881847,0.1156427881620728
36.738032,4.301555811470459,0.1150431679129269
36.742624,4.286557119659038,0.1145368413946641
36.747216,4.270536808685824,0.1140520373239143
36.751812,4.256070997179614,0.1135601874567018
36.756392,4.243159685140408,0.1130617347771419
36.760988,4.236910968377174,0.1124297890276464
36.765576,4.231439501347443,0.1117949734593737
36.770172,4.224702045727626,0.1112094735307314
36.774768,4.221928882040839,0.1105314216092697
36.779356,4.216745925888025,0.1099385498587955
36.783952,4.212095850040424,0.1093664948284596
36.788548,4.20389217785086,0.1089138314930769
36.79314,4.198675319881158,0.1084672525715716
36.797724,4.194646407236024,0.1080513927912817
36.802324,4.195114666829129,0.1075683294389291
36.806916,4.192151514794417,0.1071923338844695
36.811504,4.184080266950737,0.1069394795739676
36.8161,4.180506191345296,0.1066199006372136
36.820688,4.177997876350277,0.1063440149241359
36.825288,4.172957584175088,0.1061657391732466
36.829868,4.170004671772115,0.106007950320679
36.871216,4.207312658980219,0.1059633921164689
36.875804,4.222979838364408,0.1059439952040022
36.880396,4.244943058882131,0.1058456629703853
36.884976,4.264985225790415,0.1057821911743477
36.88956,4.285926827146346,0.1057069134767197
36.894156,4.310710535721159,0.1055718493155221
36.89874399999999,4.342934089305447,0.1053287656063387
36.903336,4.3825974878992096,0.1049786043546253
36.907924,4.426347363140145,0.1045567439906939
36.912516,4.473406465294753,0.1040564796541826
36.917112,4.523774794363032,0.1034744871284678
36.9217,4.576797285325627,0.1028233069092877
36.926292,4.632351753468391,0.1021020288416836
36.930884,4.685818841838941,0.1013631810559717
36.935472,4.744638395446751,0.1005058347427424
36.940068,4.799571700387048,0.0996458242360773
36.944656,4.845877214993305,0.0988560917189286
36.949252,4.8898509803990535,0.0980639977088592
36.953828,4.929694127709001,0.0972892700507358
36.958428,4.967572079960879,0.0964889533976822
36.963016,4.997599491612218,0.0957567854734975
36.967616,5.021941785700749,0.0950497183224255
36.972208,5.03765628945524,0.0944068579518355
36.976808,5.054348270922896,0.093686861795527
36.981392,5.069197242046628,0.0929248263589155
36.985984,5.077750172036826,0.0922321685011029
36.990576,5.081517418911863,0.0915494469513158
36.995172,5.079599548224094,0.0908812767840294
36.99976,5.069586767507495,0.0902869982376117
37.004356,5.054177380105008,0.0897393712000205
37.008944,5.032227582140696,0.0892628108916513
37.013532,5.0018163200051164,0.0888812634284906
37.01812,4.9658862664695045,0.0885507167794417
37.0227,4.930977832095685,0.0881988475574162
37.027296,4.893248909664776,0.0878742427891942
37.031888,4.861160963348046,0.0874835984526514
37.036484,4.834713993145493,0.0870279497202133
37.041076,4.811331880428322,0.0865201218541661
37.04566,4.789748636606447,0.0859947746973776
37.050248,4.769597707537431,0.0854822608721877
37.054832,4.753821765992508,0.084940579439363
37.05944,4.737434900876856,0.08444279824167
37.064028,4.727466261608885,0.0838845436441215
37.068624,4.717786133217834,0.0833678063709364
37.073212,4.711215003760792,0.0828628718377826
37.0778,4.705298939323106,0.0823680202459767
37.082396,4.698649766600545,0.0819288324581736
37.086988,4.693188539202552,0.0815232534296056
37.091584,4.690958495452714,0.0811185761118474
37.09616,4.694125058388764,0.0806771743874136
37.10076,4.708451388839023,0.0801369484085016
37.10534,4.727807771832733,0.079587687952894
37.10994,4.752438576798183,0.0790144020104654
37.114528,4.775681208459404,0.0784864896678096
37.119128,4.797780036244685,0.0779847112429426
37.123712,4.818368506011591,0.077544545460739
37.128304,4.839612040797854,0.0771237230778338
37.132896,4.862287890336974,0.0767275343781151
37.137492,4.889705281542626,0.0762932185105818
37.14208,4.9159788688723385,0.0758845845151569
37.14668,4.9469939978685815,0.0754416909072166
37.151268,4.9828728532455,0.0749504217992014
37.155856,5.019284588927629,0.0744909530058522
37.160444,5.05455252073382,0.0740565589397383
37.16504,5.090719886987658,0.0736258463320002
37.169632,5.131628794908028,0.0731616096426139
37.174224,5.176501994761426,0.0726584838430737
37.17882,5.220231390738885,0.0721759358618813
37.183408,5.26768070922108,0.0716748557232911
37.188008,5.317051081312716,0.0711730560228204
37.192596,5.364622584509057,0.0707001350740258
37.197188,5.412438457133689,0.0702168437729483
37.201776,5.458211091434735,0.0697631834181093
37.20636399999999,5.510646321011752,0.0692679518976292
37.21096,5.5668014730935065,0.0687554971326501
37.215548,5.622545929584195,0.0682216340538802
37.220136,5.6782903860748855,0.067696111328535
37.224732,5.731214354508484,0.0671943602201909
37.229332,5.780051846294911,0.0667440176474194
37.233924,5.832076380280862,0.0662594538717528
37.238512,5.881158241495579,0.0658107356709452
37.243108,5.930362287424442,0.065365089293607
37.247696,5.978134018600446,0.0649095488777859
37.252296,6.028071172814182,0.0644303254383263
37.256884,6.075310023684977,0.0639644380362892
37.261484,6.121771624822268,0.0635045427070493
37.266068,6.167211606797765,0.063061677691643
37.270664,6.219802922905817,0.0625602565987036
37.27524,6.272760793156307,0.0620498313043305
37.279836,6.317012829807236,0.061596222803199
37.284432,6.352026152553397,0.0611799211153016
37.289028,6.383563922223113,0.0607666636065346
37.293616,6.415712615463555,0.0603222889149924
37.298204,6.441687452284611,0.0598899473599879
37.302792,6.465208355191012,0.0594531958394788
37.307392,6.486930389202119,0.0590222736652151
37.31198,6.503255816527337,0.0586005308616419
37.316572,6.517005125223758,0.0581753905221988
37.321168,6.530221553614967,0.0577313781135569
37.325756,6.538818625053793,0.057303431026673
37.330352,6.541119655359083,0.0568838991537194
37.334932,6.537779709550195,0.0564863465186897
37.339524,6.528554418198836,0.056121518840633
37.34412,6.515975758485179,0.0557476177783517
37.348708,6.506706325685192,0.0553378003975683
37.353316,6.487953809552145,0.0549631481163121
37.357904,6.465070675323297,0.0545717051751435
37.362516,6.43090558886609,0.0542164535667007
37.367108,6.381616442961644,0.053910827408954
37.371712,6.331794416751986,0.0535814327934409
37.376308,6.282749640275831,0.0532529559030155
37.380896,6.234482113533178,0.052926951201892
37.3855,6.180329241248056,0.0526289780576236
37.390092,6.122212077029904,0.0523500001362385
37.394688,6.06307329364996,0.0520740003155992
37.399276,5.9998480336228415,0.0518243522271641
37.403876,5.939443261652812,0.0515606605118245
37.408464,5.879038489682783,0.0512921288183556
37.413064,5.81593541436981,0.0510189786631093
37.417656,5.751810719895045,0.0507480079544593
37.42226,5.691161578496724,0.0504783532908892
37.426852,5.628713568203107,0.0502033367391903
37.431448,5.569208230680727,0.049907840385693
