Time,Force,Position
36.860944,1.9837273682190149,0.1597508795139207
36.865524,2.075083339339901,0.159316283742765
36.870112,2.1677935819481284,0.1590308504150613
36.874708,2.2648007688149314,0.1585794077571861
36.879296,2.3619742818445086,0.1583707740627988
36.883884,2.464177847417536,0.1579567997286708
36.88848,2.568957531619361,0.1575156344621787
36.893064,2.667929913544234,0.1572588568899562
36.89766,2.762194655619466,0.1570164504275634
36.902248,2.854694430616291,0.1567201553279635
36.906844,2.9413427618875354,0.1565245700200092
36.911424,3.0209958455572608,0.1564425177897505
36.916024,3.099539027167936,0.1562318351631906
36.920612,3.1723529497671765,0.1561167401493458
36.925212,3.2393154286408365,0.1560881654361058
36.929796,3.3010373873596444,0.1560137601677247
36.934392,3.357763195351892,0.1558668863077759
36.938984,3.414112209569964,0.1554932782818163
36.943576,3.466242322794977,0.1550623366095982
36.948176,3.5158302192080817,0.1545247258052058
36.952776,3.561321399342273,0.1539014096380254
36.957372,3.5979743215310207,0.1533600007158033
36.961968,3.627954408812058,0.1527779272779167
36.96656,3.652038910918887,0.1521529930425376
36.971144,3.66986127370907,0.1515448785104392
36.975724,3.678601009125518,0.1510461884753518
36.980316,3.679157551615879,0.1506284807591556
36.984908,3.6802808762283408,0.1500504970412751
36.989488,3.676618517725644,0.149550051589915
36.99408,3.664328368888905,0.149267922924367
36.99866,3.646719656631797,0.1490479960884778
37.003252,3.632009475697296,0.1486308540540668
37.007836,3.6114919924858415,0.1483359870524816
37.012424,3.5854115764257277,0.1481328683792779
37.017032,3.557365965307543,0.14790980200014
37.049168,3.304416219095329,0.1476574313548788
37.05376,3.271340555433694,0.1474898021148084
37.05836,3.240841010400858,0.1472563676781742
37.062948,3.213817018444468,0.146927705976103
37.067536,3.1915787096032355,0.146524822046635
37.072116,3.170528346086571,0.1461487576989069
37.076712,3.1506659278944738,0.1457974663506771
37.0813,3.1367329966934747,0.1453128117292639
37.085896,3.12824081362699,0.1447584379702118
37.090488,3.129031485913905,0.1440004803139017
37.095084,3.128844680487653,0.1433727573808788
37.099672,3.1331991887482693,0.1427020281174181
37.104256,3.1437716948769023,0.1419529644992637
37.108844,3.1551655921876662,0.1412803622870515
37.113436,3.168280315128208,0.1406636608327943
37.118032,3.187735220650913,0.1399695968960296
37.122624,3.214429743203429,0.139166017564653
37.127216,3.244233264689954,0.1383164324811046
37.131796,3.276901415682196,0.1374654845205787
37.136392,3.3085920889612725,0.1367569393152032
37.14098,3.342125772584273,0.1360919219114542
37.145564,3.373127479027104,0.1355876167436892
37.150168,3.408015434137446,0.1350619124806602
37.154756,3.442170280962914,0.1346434761195182
37.159344,3.477346746950176,0.134202174154498
37.16394,3.518819254070972,0.1336224532774428
37.168528,3.562090630087064,0.1330150830442373
37.173132,3.6070386902843055,0.132406232268444
37.177724,3.6524754893381295,0.1317560166159798
37.182316,3.692926377297133,0.1312805918162367
37.186908,3.7326000155226335,0.1308028777276319
37.191508,3.774439076785866,0.1302613908661517
37.196096,3.813702019420302,0.1297705275598473
37.200692,3.858850307597207,0.1291284397597383
37.20528,3.903954454325485,0.1284197034451201
37.209884,3.942229679615016,0.1278309582169299
37.214476,3.97481978734174,0.1273127514684152
37.219072,4.009941872248635,0.126693092890274
37.223664,4.045430511297965,0.1260450162106829
37.22826,4.080508454756232,0.125363135719298
37.232856,4.114276268175785,0.124668389384193
37.237452,4.148655005166066,0.1239141448834914
37.242036,4.178003689612898,0.123236393693389
37.246632,4.205264994287514,0.1225483204792828
37.251224,4.229295115313977,0.1218983382234738
37.255808,4.246251945473401,0.1213778822591688
37.260396,4.259855407270525,0.1209023866143282
37.264992,4.269206066257702,0.1204875325355845
37.269584,4.276757856349583,0.1201078714556965
37.274176,4.285042754726338,0.1196557123197575
37.278768,4.296636880016765,0.1190994254932698
37.283348,4.3019349641736575,0.1186528567197789
37.287944,4.307599602472987,0.1181706345256231
37.292532,4.304147711581691,0.117853782978533
37.29712,4.2968537134715135,0.1176196728729552
37.301728,4.292868942275007,0.1172802826258127
37.30632,4.290683039973797,0.1169098096174117
37.310908,4.286453899349,0.1165950241197028
37.3155,4.278871390361903,0.1163141356753555
37.320088,4.272554869964891,0.1159836601985345
37.324684,4.268159403177319,0.1156143464682298
37.329272,4.263108871370391,0.1152362130750703
37.333868,4.262144816210637,0.1147594191462183
37.338448,4.263879064393827,0.1142440488134254
37.34304,4.265368943148725,0.1137500834560949
37.34762,4.268902060227211,0.1132050808581546
37.35222,4.2725573620198425,0.1126473362425166
37.356816,4.280054771031357,0.1120186188003783
37.361408,4.2856311264334295,0.1114255778317774
37.366004,4.291207481835502,0.1108344191415526
37.370596,4.297561086971077,0.1102510286988587
37.375196,4.308534049059038,0.1095937030763518
37.379792,4.318607576699349,0.1089489958461212
37.384388,4.331501592396751,0.1082483085529158
37.388984,4.35003658420833,0.1074517873140199
37.393572,4.367061218001534,0.1067298042194502
37.39816,4.386006905404178,0.1059794235393312
37.402748,4.401110485587941,0.1052975058230656
37.407336,4.420833422724087,0.1045505076336759
37.411928,4.437369317660708,0.1038846971726756
37.41652,4.453250147577973,0.1032173282092251
37.421108,4.468886608066946,0.1025754805001293
37.425688,4.481458211070538,0.1020085553992313
37.43028,4.489532641835891,0.10149700645792
37.434868,4.50054974537248,0.1009338059540602
37.439456,4.511566848909068,0.1003731248226312
37.44406,4.52413845191266,0.099814450909042
37.448644,4.530946894087927,0.0993531645006156
37.453232,4.542619062643872,0.0988107441354859
37.457828,4.5571117192569055,0.0982345283666016
37.462416,4.5678844533652025,0.0977135777850568
37.467016,4.57890155690179,0.0971791230919749
37.471608,4.590940279600171,0.0966254901248264
37.476204,4.606821109517437,0.09601922864236
37.480792,4.621147439967697,0.0954205137812064
37.485392,4.635718139846248,0.0948023979581573
37.489972,4.648489970829504,0.0942074889773132
37.494572,4.668168766517022,0.0935055868683746
37.499168,4.6838832702715125,0.092873781074971
37.503768,4.702662631511383,0.0921867756637343
37.508352,4.720298188875315,0.0915329626384666
37.512948,4.735235442896303,0.0909014237220932
37.517536,4.747352208860202,0.0903017405853813
37.522132,4.764987766224134,0.0896451071153733
37.526732,4.783400573321567,0.0890007813270941
37.531328,4.802468445438358,0.0883719922791275
37.535916,4.821780686983441,0.0877288229855812
37.540504,4.8458344701950535,0.087028518942051
37.545084,4.867722830368932,0.0863821686704625
37.549672,4.884747464162135,0.0858056841670108
37.554264,4.901649913241194,0.0852376430127166
37.558856,4.916264754568373,0.0847266948754001
37.563452,4.934477333686144,0.0841951584202353
37.568036,4.953344977823271,0.0836869371416255
37.57262,4.973522751999111,0.083210201811405
37.577212,4.993944895603244,0.0827179847882603
37.581792,5.014122669779085,0.0822460953038268
37.586388,5.0291923481459575,0.0818557336218836
37.590976,5.04708251456992,0.0814402731499387
37.595572,5.066649365175031,0.0810279335261546
37.600168,5.086993465513645,0.0806210370864938
37.604756,5.113511422271649,0.0801853621862769
37.609352,5.143504932106097,0.0797340588923382
37.613932,5.172476822778753,0.0793058733956036
37.618536,5.198750410108465,0.0788995220848221
37.623116,5.226289986028262,0.0784672644414098
37.627712,5.255628430843355,0.0780320546903488
37.6323,5.283823071782509,0.0776243678753631
37.6369,5.312139897435807,0.0772116845549171
37.641496,5.344176645593844,0.0767724801517629
37.646092,5.382098739294349,0.076278515181856
37.65068,5.419487952689645,0.0757648998780873
37.655272,5.454178862741995,0.0752750840552282
37.659872,5.482451546946667,0.0748281698083563
37.664464,5.505449809179595,0.0744011800326709
37.669056,5.526937713394149,0.0740204969501338
37.673648,5.553289343989379,0.0735999230420153
37.678236,5.580007528727045,0.073154342574972
37.682824,5.602228541226473,0.0727308323035769
37.687412,5.621751250382958,0.0723238592186439
37.692004,5.639719460072437,0.0719101653533165
37.696588,5.656255355009057,0.0714866267037065
37.701192,5.672380554354613,0.0710369675434929
37.705788,5.682087527852489,0.0706203754631219
37.710376,5.68909619800742,0.0702137678020937
37.714976,5.691241141781674,0.0698500331123894
37.719552,5.68888891331769,0.0695054986021707
37.724148,5.6842049356532,0.0691471592115909
37.728744,5.678865892969352,0.0687769073013187
37.733332,5.669929112494913,0.0684201427658922
37.737928,5.65330811758271,0.0681218518623281
37.742524,5.636442753242215,0.0678379776722768
37.747112,5.617778520006423,0.0675593228263321
37.751708,5.59809266760884,0.0672892421580359
37.756308,5.579184064944756,0.0670216968955525
37.760904,5.564728493070285,0.0666851339153936
37.76548,5.540912022576897,0.066402356320743
37.770072,5.517994986531159,0.0661145822636682
37.774664,5.5014961763331005,0.0657975884828387
37.779256,5.48614117001098,0.0654613681899077
37.78384,5.473484467031807,0.0651165859199707
37.788428,5.459028895157336,0.0647771686377157
37.793012,5.44637219217816,0.0644327351619079
37.797604,5.43833484615137,0.0640652518887193
37.802204,5.435039041791109,0.0636692599699426
37.806796,5.437506398259173,0.0632358388422231
37.811376,5.440506635032449,0.0628218419478966
37.81596,5.44583862100623,0.062424437725816
37.820548,5.450804052837574,0.0620513088976102
37.825132,5.4615326454972415,0.0616443178506504
37.82972,5.475081726213999,0.0612217458570321
37.834296,5.487853557197254,0.0607920967809604
37.83888,5.500381018752218,0.0603777537318467
37.84346,5.518793825849652,0.0599193143540009
37.848052,5.5419481746136166,0.0594374208712688
37.852636,5.561016046730408,0.058999410886767
37.857216,5.587645948570819,0.0585235501913543
37.861804,5.614930915430586,0.0580642240118081
37.866388,5.636819275604464,0.057619604130695
37.87098,5.654743343845316,0.0572051363528676
37.875576,5.668048055133782,0.0568071475455888
37.88016,5.679187343384515,0.0564353286560428
37.88476,5.687383958864015,0.0560851451002226
37.88934,5.695824943771806,0.0557207532145396
37.893944,5.700301636746566,0.055385326304957
37.898532,5.696194680835915,0.0550903384356525
37.903132,5.692454279067699,0.054771366948534
37.907724,5.684216705061246,0.0544566475115093
37.91232,5.671604143530698,0.0541371267533116
37.916904,5.648242510077005,0.0538823605690167
37.921496,5.619362085223279,0.0536387206610846
37.9261,5.592402713978995,0.0533826590017609
37.930696,5.56683151603894,0.0530917391420582
37.935284,5.536518776432356,0.0528184717161665
37.93988,5.499787810978091,0.0525561350162692
37.944468,5.46293466080968,0.052299493121724
