Time,Force,Position
2.485488,0.21928483633974022,0.0
2.490076,0.2165865329967967,0.0
2.494667999999999,0.20986472975527115,0.0
2.499255999999999,0.2016476350122948,0.0
2.503843999999999,0.19006210539009297,0.0
2.5084280000000003,0.1774549566060976,0.0
2.513024,0.16214950447915874,0.0
2.517619999999999,0.1477434867998677,0.0
2.522207999999999,0.13333746912057667,0.0
2.5268,0.11880926672713996,0.0
2.531379999999998,0.1033816298860554,0.0
2.5359559999999988,0.08885342749261868,0.0
2.540552,0.07162692175623842,0.0
2.54514,0.0600413921340366,0.0
2.549728,0.04755642806418693,0.0
2.554319999999999,0.03789195205142648,0.0
2.5588999999999995,0.031047964095755262,0.0
2.563504,0.024203976140084044,0.0
2.568092,0.015561119289117126,0.0
2.572683999999999,0.006796077724004536,0.0
2.577271999999999,0.0017509586636290223,0.0
2.581868,0.0004257621079905852,0.0
2.5864519999999995,0.0004257621079905852,0.0
2.59104,0.0,0.0
2.595623999999999,0.0,0.0
2.600211999999999,0.0012030118414927665,0.0
2.604808,0.008046999797163983,0.0
2.609399999999999,0.010027261372158928,0.0
2.613987999999999,0.012906957394801723,0.0
2.618584,0.013865599808003148,0.0
2.6231599999999986,0.01494642693535024,0.0
2.627744,0.016926688510345185,0.0
2.632328,0.020828003694781508,0.0
2.636916,0.023829884431569977,0.0
2.641508,0.026176700149001933,0.0
2.6460919999999994,0.03044456947587527,0.0
2.650675999999999,0.0347124388027486,0.0
2.65526,0.04192298090085684,0.0
2.659848,0.0472124693895237,0.0
2.664439999999999,0.04955928510695565,0.0
2.669027999999999,0.050884481662594086,0.0
2.673615999999999,0.050884481662594086,0.0
2.6782120000000003,0.05088448166259409,0.0
2.682812,0.0508844816625941,0.0
2.687403999999999,0.0508844816625941,0.0
2.691991999999999,0.04968146982110133,0.0
2.696588,0.04283748186543011,0.0
2.701167999999999,0.04085722029043517,0.0
2.705767999999999,0.03797752426779237,0.0
2.710355999999999,0.03701888185459095,0.0
2.714955999999999,0.03593805472724385,0.0
2.719548,0.03395779315224891,0.0
2.724143999999999,0.03005647796781258,0.0
2.728719999999999,0.027054597231024113,0.0
2.733312,0.024707781513592153,0.0
2.737907999999999,0.02043991218671882,0.0
2.7425,0.016172042859845484,0.0
2.747088,0.010873958702953464,0.0
2.751676,0.01355883949248522,0.0
2.756252,0.0337539100101301,0.0
2.7608479999999997,0.06761706303700538,0.0
2.76544,0.11479681094759941,0.008228522332884887
2.7700319999999987,0.17257978388204326,0.016510173397267458
2.7746199999999988,0.24084379712619125,0.024869732336259484
2.779207999999999,0.3186894162323955,0.0333559886512686
2.7837999999999994,0.4080376948100974,0.041784740574631545
2.788383999999999,0.5077448289833578,0.05027974865617285
2.792971999999999,0.623451794866355,0.05849255107969671
2.797568,0.7542591580114415,0.06653021941552265
2.802156,0.897590799789819,0.07451324926278283
2.806744,1.0515256665920465,0.0825331320221789
2.811335999999999,1.2161859431322695,0.09056821254823468
2.815935999999999,1.3915716294104876,0.09861663205443241
2.8205399999999994,1.5778049101408471,0.10666190063866397
2.825132,1.77566303505685,0.11469277401720593
2.829723999999999,1.9832249505490547,0.12277293923388817
2.834311999999999,2.1993027112928942,0.13088104320941474
2.8389119999999988,2.419607968698017,0.13898209873384196
2.843499999999999,2.64133530122426,0.14694293313062068
2.8480999999999987,2.8504161704030664,0.1548486027139797
2.852692,3.048771629843877,0.16270001501869266
2.85728,3.235257875670753,0.16231109695897408
2.8618679999999994,3.4112630811879248,0.16185725447867405
2.86646,3.5776866808430405,0.16130469854132176
2.8710639999999987,3.7335070554743086,0.16065804649947893
2.8756559999999998,3.8790907592241624,0.16001285496887674
2.8802559999999997,4.0175026495779855,0.15919418181888215
2.884848,4.136316970431477,0.1587386719563559
2.889432,4.241296882612966,0.15840289754216305
2.8940279999999987,4.332853081713514,0.1581420673099928
2.8986159999999987,4.416626543847304,0.15777241857622734
2.903212,4.493394518747834,0.15729799292505986
2.9077959999999994,4.561235952805665,0.1567720538893237
2.9123839999999994,4.620928095754297,0.15619305129655042
2.916967999999999,4.668995394517286,0.15562844390946676
2.921555999999999,4.709035586885223,0.15498868391571025
2.9261479999999995,4.742358802896822,0.15428462308779345
2.930736,4.772362552363011,0.15352334392263386
2.935324,4.795659565104599,0.15289537977038858
2.939916,4.815114470627304,0.15236866606595104
2.944504,4.829705649769332,0.15197213651272243
2.9490920000000003,4.84405245948307,0.1515983446105504
2.953688,4.861097572539751,0.15117103137852586
2.958276,4.876343816701136,0.1507825223798295
2.962876,4.896698156671488,0.1502477062473181
2.967468,4.916685942499404,0.14975162505951536
2.972071999999999,4.931810001946642,0.14938687033393735
2.976659999999999,4.950776168612767,0.1489199089888018
2.981256,4.966799662507656,0.14853260336211943
2.985835999999999,4.983966960278485,0.14810361938715816
2.990435999999999,4.996514901096926,0.14778178078894824
2.995023999999999,5.005587288838923,0.1475280025879431
2.999623999999999,5.014126796275709,0.14726278112372865
3.004208,5.021111804245491,0.14701525173191066
3.008804,5.030017865824714,0.1467231759747841
3.013411999999999,5.034793309308136,0.14648680515551712
3.0180039999999995,5.0378920686104065,0.14627618239753393
3.022587999999999,5.0390697743032336,0.1461128089219768
3.027184,5.040614034138499,0.1459184295545066
3.031772,5.044856597316707,0.14567173398838998
3.036363999999999,5.054862321323242,0.14528928796309046
3.040951999999999,5.067810718101009,0.14483738188720624
3.045539999999999,5.076917007659894,0.1444769818611395
3.0501240000000003,5.0887216005617235,0.14406668633418407
3.054724,5.093374859330999,0.1438489806533822
3.059315999999999,5.097905933386126,0.1436426065452011
3.063903999999999,5.105912560517699,0.1433798925361308
3.068496,5.1157180565445675,0.1430864452560682
3.073072,5.1254013678572905,0.14280037029531836
3.077667999999999,5.134962494455866,0.14252550581637966
3.0822640000000003,5.145667424930385,0.14221101668406907
3.0868519999999986,5.151508629024225,0.14200937204559516
3.091448,5.156206029242127,0.141846942198286
3.096036,5.1600039950123815,0.14170225871319364
3.100624,5.161103657439692,0.14160814159075297
3.105219999999999,5.16837717628639,0.1414090564672189
3.109812,5.1758950645613835,0.14118994462031065
3.114407999999999,5.179037965312282,0.14104167620245173
3.118995999999999,5.179482562720236,0.1409431244024301
3.1235919999999986,5.18245913730836,0.14075083113586426
3.128183999999999,5.180161289924742,0.1406455548277466
3.1327799999999986,5.176308943074121,0.140551894984901
3.137364,5.174744203975379,0.14038559188475616
3.141959999999999,5.169703911800191,0.14027226015051944
3.1465559999999986,5.168872280986323,0.14004386640791697
3.151147999999999,5.168529389029036,0.13977542800549347
3.155728,5.1638115095476556,0.13957539189067378
3.1603239999999992,5.158194195618628,0.1393913410134915
3.164919999999998,5.155275185032543,0.13916030771672058
3.169511999999999,5.151334555284664,0.13895478961414778
3.1740999999999997,5.1472717408226405,0.13875892338433277
3.1786839999999987,5.148849902474797,0.13844611314151378
3.1832719999999988,5.151449683288746,0.13810815068964907
3.187864,5.1520062257791075,0.13782143536357597
3.192456,5.155505441040704,0.13746786938186084
3.1970399999999994,5.153730234330559,0.13719928139032933
3.2016279999999995,5.149911789296825,0.13698155028656298
3.2062159999999995,5.148669462891891,0.13672534505834005
3.210808,5.148082201506313,0.13647279557043168
3.215396,5.142631213740057,0.13633064261413527
3.2199720000000003,5.143476267107338,0.13607914826904413
3.224572,5.140234843827445,0.13593077007438065
3.229163999999999,5.133928563062169,0.13586005240457574
3.23376,5.128643901458689,0.13576308564478673
3.238348,5.125280293464651,0.13562464524169718
3.242944,5.11807457825173,0.13556810974828643
3.247539999999999,5.115488219991193,0.13542387052934896
3.25212,5.1117580578547175,0.13531562833387298
3.256724,5.108394449860677,0.13517677889665353
3.261312,5.108872949085522,0.13495780725661627
3.265912,5.111272501919806,0.13469898150935147
3.2704880000000003,5.115715293077679,0.13439324419701806
3.275088,5.120935333969054,0.13408543006390233
3.279679999999999,5.127054809308077,0.13376097524942845
3.284276,5.129332177428217,0.13351538962939938
3.288867999999999,5.1343078488913,0.13322626261892712
3.29346,5.140838019821387,0.13292676824861904
3.2980599999999995,5.150433048236855,0.13255504599107903
3.302652,5.1629707494235575,0.13212155601127676
3.307231999999999,5.175019711753678,0.13172394890142286
3.3118160000000003,5.184614740169145,0.13135619183050742
3.316407999999999,5.200095114127084,0.1308639880595791
3.3209919999999986,5.218518160856257,0.13030869329645423
3.325579999999998,5.239761695642519,0.12970497849297677
3.3301799999999986,5.256508058190542,0.12917580726230846
3.334771999999999,5.275175474348006,0.12860446324542127
3.3393479999999998,5.293965075219616,0.12803158042775709
3.3439439999999987,5.311077991910077,0.12747406532699646
3.348528,5.322183378343921,0.12704495852294304
3.353116,5.328791592539526,0.12668730081286472
3.3577199999999987,5.337198675630426,0.1263064751954933
3.3623079999999987,5.342785270664237,0.12597911075890805
3.3669119999999992,5.345673562355105,0.1256924838248464
3.3714999999999997,5.349705657921912,0.1253729344229793
3.376099999999999,5.3575798607076015,0.12498197948819201
3.3806839999999987,5.3614897715602625,0.12467158185010219
3.3852719999999987,5.3688310940407415,0.12426678760888644
3.3898639999999998,5.37425136291178,0.12390008167425452
3.394452,5.377872762887522,0.12356092926668145
3.3990519999999997,5.383659585900997,0.12316610526462933
3.4036399999999998,5.385237747553153,0.12286936625041646
3.4082399999999997,5.379253879481689,0.12270323493187515
3.41282,5.373392196124369,0.12252749143702137
3.41742,5.36638670889111,0.12238333879484198
3.4220039999999994,5.359014667515415,0.12226718555840509
3.426596,5.353441495035015,0.12212566006881391
3.431184,5.344026215335732,0.12205246988953015
3.4357799999999994,5.333833685902947,0.12198229006743577
3.440384,5.332591359498013,0.12173178970240496
3.4449759999999987,5.33249283696902,0.12144853302020699
3.4495559999999994,5.326875523039992,0.12125003774596624
3.454139999999999,5.319581524929815,0.12106619945931735
3.458727999999999,5.309589223476692,0.12091944977791293
3.463327999999999,5.2986974875759225,0.12078470998268123
3.467915999999999,5.285762513351567,0.12069346381119006
3.472515999999999,5.279079438812118,0.12045957032398315
3.4771079999999994,5.268432072339638,0.12030293693732641
3.481691999999999,5.258806325028954,0.12012402527012184
3.486288,5.248281143270621,0.11995647504591815
3.490867999999999,5.240043569264167,0.11972675371792248
3.495452,5.235770287190741,0.11942071262827335
3.5000599999999995,5.239059034840936,0.1189903023247996
3.5046479999999995,5.23928292500575,0.11862369408844026
3.5092479999999995,5.238973934865354,0.11824144877681039
3.5138359999999995,5.242629236657985,0.11778438086136697
3.518424,5.246162353736469,0.11733893509548406
3.523019999999999,5.248551666939016,0.1169200646979703
3.527616,5.2585030098651835,0.11638305157894316
3.532207999999999,5.2644900608583205,0.11592563687858734
3.536804,5.273708295499613,0.11545450013965723
3.541407999999999,5.287790256521581,0.1149005676135975
3.545983999999999,5.3033045322964085,0.11435104675693315
3.550583999999999,5.324459784185414,0.11371522409950244
3.555171999999999,5.352033261922101,0.11300391476274715
3.559771999999999,5.377807870763492,0.11231227438141769
3.5643639999999994,5.400273252691211,0.11170774619701163
3.568959999999999,5.422616449904784,0.11111107566661828
3.5735519999999994,5.44291640879477,0.11055604429375879
3.578144,5.464115802132404,0.10999100101687749
3.582744,5.482372522698802,0.10948059795330554
3.5873359999999987,5.499974178245845,0.10896597318407789
3.5919359999999987,5.5167985840593845,0.10846097273095975
3.596535999999998,5.538731085681893,0.10786510982901423
3.6011239999999987,5.558253794838376,0.10733251386169945
3.60572,5.5769992542613585,0.10680733441871368
3.610308,5.593290779769687,0.10629369596254122
3.614896,5.6137909666393355,0.10569595206780966
3.619484,5.628283623252369,0.10520630437112624
3.624072,5.640733041541816,0.10475175245651715
3.628656,5.650606341202464,0.104319949582326
3.633236,5.660357456148968,0.10390195905123481
3.63782,5.671496744399702,0.10344222462842353
3.642408,5.682758217364582,0.10297941057368647
3.646996,5.686824214748278,0.10258989196325438
3.651591999999999,5.693832884903209,0.1021579107417585
3.656179999999999,5.7031291628100185,0.10167829159167105
3.660784,5.7145908637545615,0.10115809684274814
3.665367999999999,5.727196368575043,0.1006129718749398
3.669951999999999,5.740945677271465,0.10004578641921194
3.674555999999999,5.756249485434889,0.09948043236823886
3.679148,5.770409489722376,0.09894076327913942
3.68374,5.78264844040042,0.09842940253091617
3.688328,5.790023664697789,0.09798435290937535
3.692928,5.798909247013532,0.09748834502932104
3.697503999999999,5.808694263776926,0.09698926220918486
3.702095999999999,5.821299768597407,0.09646028854263843
3.706688,5.834804707865537,0.09592919917592875
3.711283999999999,5.849697820437897,0.095358453246978
3.715871999999999,5.870842832695164,0.09469238777907206
3.720467999999999,5.889167356895341,0.09405351571398908
3.725071999999999,5.902750339428989,0.09346699919562573
3.729664,5.914290083639049,0.09291265291461508
3.734252,5.921865535916081,0.09241180766417784
3.738847999999999,5.931484226516699,0.09188095546973948
3.743428,5.941102917117318,0.09135340128698563
3.7480119999999992,5.9494556191278525,0.0908607818951762
3.7525999999999993,5.958463386157742,0.09038129029152808
3.757183999999999,5.967348968473487,0.08991078210900973
3.76178,5.97599018136094,0.08945885168670382
3.766368,5.984875763676684,0.08899365146397308
3.770959999999999,5.997481268497166,0.08849886301251103
3.77554,6.008820784727563,0.08803341174280307
3.780132,6.024779657910345,0.08753214882766844
3.784728,6.042293030560131,0.0870362871541912
3.789316,6.058662599333978,0.08656623021443349
3.793923999999999,6.073888364231885,0.08611982698891683
3.798511999999999,6.088214694682145,0.08568359743033806
3.803104,6.102541025132405,0.08524947252400217
3.807699999999999,6.109838206164255,0.08490073162911421
3.812299999999999,6.127884459119254,0.08444733695438969
3.816899999999999,6.148218319826129,0.08395231100931412
3.821499999999999,6.170595418856592,0.08343419625622422
3.826091999999999,6.194360691191284,0.08288050471519703
3.830672,6.218658843831188,0.08234790003350313
3.835272,6.242301931451735,0.08180949881573903
3.83986,6.264268334891131,0.08127530840179753
3.844455999999999,6.284924608291816,0.08072594215684978
3.849039999999999,6.306846870282585,0.08015340178456248
3.853639999999999,6.328358436682289,0.07956016665779285
3.858224,6.35023655722443,0.0789504865213184
3.8628199999999993,6.3659408213471815,0.07836537457551071
3.867415999999999,6.382378193754807,0.07773680302065851
3.872,6.393541144190692,0.0771283038071143
3.8766,6.4051928334831585,0.07649500443744625
3.881191999999999,6.414390588860974,0.07585998470108256
3.885779999999999,6.424976517543019,0.07519534918723053
3.890364,6.431842523720327,0.07455295766550422
3.894952,6.438708529897635,0.07391216725260173
3.899552,6.4508048165980565,0.07321104388627668
3.90414,6.447899228565384,0.07260513277443334
3.90874,6.447447574447365,0.07200441559020973
3.913331999999999,6.445319236148194,0.07140440402133293
3.917916,6.444989766744318,0.0707988003710384
3.9225119999999993,6.443350167301731,0.07017264693154834
3.927092,6.442610002306792,0.06954531248275592
3.931683999999999,6.441092587578349,0.06891222435367365
3.93628,6.437287565098029,0.06831177338597594
3.940859999999999,6.433604727331855,0.06770689580987892
3.945447999999999,6.4286559009755955,0.06712516756541018
3.95004,6.418843348238659,0.06657543228174202
3.954628,6.414671771615903,0.06599512170432704
3.959223999999999,6.411277444726648,0.0654191094257434
3.963816,6.410703605894482,0.06482731421492255
3.96842,6.410007582348172,0.06424512995086706
3.973008,6.410210993249507,0.06365911120065115
3.977611999999999,6.407471731379608,0.06309338134857376
3.982199999999999,6.410373445623887,0.06250240667694301
3.986799999999999,6.412253540706373,0.061920357605358675
3.991384,6.4127454624846285,0.06137075666253203
3.995984,6.4205550445582125,0.06079409117821689
4.000568,6.42770956161244,0.06020975770575559
4.00516,6.434619709238377,0.05963868090076645
4.009751999999999,6.438587184093078,0.0590865425696842
4.014348,6.443209723967136,0.05854693370014548
4.018943999999999,6.441946918298724,0.05804095803005869
4.023543999999999,6.442360796811461,0.057538020620072294
4.028136,6.446861151971373,0.05700368195148118
4.032719999999999,6.4470306610558215,0.05651413480794324
4.037312,6.448221789302062,0.05601663915705563
4.041896,6.449168548120011,0.05552743941241522
4.046484,6.449748752795523,0.055062021927721416
4.051076,6.448163534433302,0.0546181709438232
4.055667999999999,6.447355565804584,0.054181251012342974
4.060255999999999,6.446303227747574,0.05375940065929644
4.064855999999999,6.4441070858146245,0.05335031353378351
4.069443999999999,6.444242693082182,0.052958461287154396
4.074036,6.438615139521414,0.05259134521962904
4.078624,6.432210336227146,0.05221681299006369
4.083212,6.421063991266346,0.05185714391387189
4.087816,6.411472145772553,0.05151028957888624
4.092404,6.394973335574495,0.05119773136904836
4.097016,6.3784745253764354,0.05088363818886894
4.101604,6.363652399359528,0.050573940484088496
4.106192,6.3475642847525355,0.050283672781275886
4.110795999999999,6.336217711812072,0.049975833893809204
4.115383999999999,6.3220506508145204,0.04967397974747645
4.11998,6.301753874846206,0.04941241026107743
4.124559999999999,6.284521956363274,0.04912840126464903
4.129159999999999,6.2632035612331665,0.04886998069598354
4.133751999999999,6.245727273321942,0.04859523168404083
4.138344,6.219789521239452,0.048339487754578664
4.142928,6.194751203604608,0.04808161170717043
4.147527999999999,6.163705355713149,0.04785615462697229
4.152108,6.127140716421659,0.047634568892393654
4.156704,6.089554457968372,0.04741709145984713
4.161296,6.0457943430956975,0.04718903283081111
4.165887999999999,6.00268929324238,0.04697253580836037
4.170484,5.957296635637183,0.046780274115754195
4.175072,5.9119039780319875,0.046584479907286085
4.179648,5.860748159598467,0.046407998975720004
4.184239999999999,5.813312263669683,0.046222098876544625
4.188827999999999,5.761912075807872,0.04605371356756233
4.193411999999999,5.705648161565383,0.04590421113983406
4.197999999999999,5.64194440231342,0.04576488347029203
4.202575999999999,5.573376916680781,0.04564303681859994
4.20716,5.501744573562761,0.04554038778346417
4.211748,5.43101166489239,0.04543655940896065
4.216336,5.356558833717281,0.04533290641183853
4.220936,5.283127621703966,0.04521888123274687
4.22552,5.205732117757624,0.04512275575378451
4.230115999999999,5.131934351601873,0.04502625641776868
4.234708,5.056992781570181,0.044942688422493625
4.239284,4.98319501541443,0.04484077468324341
4.243879999999999,4.9069874567926535,0.04477876309870953
4.248467999999999,4.828858844561436,0.04472132341350448
4.253064,4.753061981530725,0.044689169054677236
4.257652,4.672767946261774,0.04465235203193236
4.262252,4.594394964602266,0.04460502333373601
4.266836,4.515777613514466,0.04457466917554267
4.271431999999999,4.435483578245516,0.04453317144079143
4.276028,4.352369054919476,0.04449585520426239
4.280619999999999,4.270031781326939,0.044469072496306314
4.285207999999999,4.192680418829223,0.04440166715771677
4.2898,4.1217472821791885,0.04432859164408693
4.294404,4.0515913952626565,0.04426572064404192
4.299,3.982334942793772,0.04420414375763797
4.303592,3.9111574367154462,0.0441512610577055
4.308183999999999,3.837692322885242,0.04413837949842615
4.312771999999999,3.7623061554455965,0.04413123205923238
4.317364,3.688841041615392,0.04411090128233681
