Time,Force,Position
10.931384,0.046770332198406865,0.0
10.93596,0.03580711009793073,0.0
10.94056,0.027956569497391406,0.0
10.945147999999998,0.02382595140158916,0.0
10.949751999999998,0.02198294105766531,0.0
10.954336,0.020917180447243635,0.0
10.958936,0.021772473446263332,0.0
10.963532,0.02005164781648515,0.0
10.968123999999998,0.01718701831076777,0.0
10.972712,0.016898507433848277,0.0
10.977308,0.022250972671107233,0.0
10.981895999999995,0.029083576675781125,0.0
10.986492,0.04167934150877914,0.0
10.991079999999998,0.057095594398866384,0.0
10.995668,0.07341128173660147,0.0
11.000255999999998,0.09242527241728013,0.0
11.004851999999998,0.11156144781210443,0.0
11.009444,0.13057543849278308,0.0
11.014031999999998,0.14766837556402035,0.0
11.018627999999998,0.1686034198541404,0.0
11.023208,0.1877395952489647,0.0
11.027808,0.20573196676784986,0.0
11.032396,0.21971222233915033,0.0
11.036988,0.23369247791045072,0.0
11.041575999999996,0.24640674489166633,0.0
11.046164,0.2571999582634405,0.0
11.05076,0.26877042136871687,0.0
11.055348,0.27931926531219975,0.0
11.059936,0.2929329667410632,0.0
11.064531999999998,0.3016829417892504,0.0
11.069124,0.305691375170907,0.0
11.07372,0.3088003741049157,0.0
11.0783,0.30230410499171756,0.0
11.0829,0.2911884789261345,0.0
11.087488,0.28007285286055145,0.0
11.092088,0.26613673873787913,0.0
11.096676,0.25093463602512195,0.0
11.101276,0.2378979563500975,0.0
11.105872,0.22882556860810147,0.0
11.110464,0.21296840087598778,0.0
11.115059999999998,0.2008311556486112,0.0
11.119655999999996,0.18701722624008457,0.0
11.124244,0.17782265378394282,0.0
11.12884,0.16957165722407716,0.0
11.133428,0.16962603830444406,0.0
11.138024,0.17995099208311316,0.0
11.142616,0.1994468561327734,0.0
11.1472,0.23044537965393128,0.007184564824954593
11.15178,0.2685715751224932,0.014786116728856342
11.156368,0.3217540264045161,0.022183444115054962
11.160956,0.38488463769103226,0.029890964626555567
11.165544,0.45694178982024825,0.037786316331692195
11.170144,0.5445880780681359,0.04564038669029816
11.174724,0.6459024488252539,0.053436278955236366
11.179315999999998,0.7571649795868652,0.061250653606051676
11.183911999999998,0.8747779325623785,0.06930188601486875
11.1885,1.005648272456057,0.07724888045239461
11.193096,1.1443013493164962,0.08525308442963742
11.197684,1.289060478962546,0.09335558178860959
11.202276,1.4469548108126151,0.10144811933600598
11.206872,1.6129984337718817,0.10954797843758761
11.21146,1.7920550742210222,0.1176391258779009
11.216056,1.9770514412929998,0.12578824032624908
11.220643999999998,2.165733829052825,0.13399927261130645
11.225243999999998,2.3463213067838193,0.1423842358104322
11.229824,2.5177039724269332,0.15084274379424545
11.234424,2.6822033355509345,0.1592031619083106
11.239012,2.8318466708411383,0.16048838876046662
11.2436,2.9725634652886423,0.16137025010278483
11.248184,3.0966695044556807,0.16257206322076953
11.252771999999998,3.2149138602654,0.16336068827110298
11.257363999999995,3.323454425498917,0.1639753691606741
11.261948,3.419715081527434,0.16461542457794764
11.266539999999996,3.5032070894943694,0.1653426476078016
11.271124,3.5748298838473693,0.16609577980557977
11.275715999999996,3.6441887326336415,0.1664520311498717
11.280304,3.6993907600541007,0.16699916248822536
11.284888,3.7451333663266495,0.16744436683310743
11.289471999999998,3.7846477350994423,0.16771994952089447
11.294064,3.815524073906454,0.16797913887548183
11.29864,3.839028371337771,0.1681492850510475
11.303219999999998,3.8568373115745422,0.1681968149492684
11.307815999999995,3.868706525188477,0.1681492301677602
11.312391999999996,3.879666064723025,0.16790258700539656
11.31698,3.895811743332058,0.16737689357641733
11.321576,3.914733768549552,0.16669611444516433
11.326171999999998,3.933411424338755,0.16605602027702013
11.330775999999998,3.9609612398902905,0.16518589806539213
11.335371999999998,3.9909649893564785,0.1642724044398714
11.339975999999998,4.02534372634676,0.163234566735654
11.344556,4.058456474746957,0.16227903546469036
11.349147999999998,4.097088014547187,0.1611849729478179
11.353736,4.138173488262068,0.16005605514247528
11.358336,4.181180015586391,0.15886727300385528
11.362916,4.224430912339005,0.15764163382957533
11.367512,4.263717517158592,0.1565760177507799
11.372095999999996,4.305946794749413,0.15540461642468795
11.376688,4.348464583217153,0.1542820570319978
11.381275999999998,4.390860186970747,0.1531930549087524
11.385871999999996,4.429780237647896,0.15217975513800444
11.390447999999996,4.469844092200985,0.1511502799137953
11.395032,4.50745401283942,0.15019314270506606
11.399623999999998,4.545186118192003,0.1492373745358196
11.404212,4.573435140211522,0.14854339413748455
11.408799999999998,4.600129662764038,0.14788812405898213
11.413375999999998,4.625924750868907,0.1472672785310991
11.417968,4.649676600650188,0.14671497105142295
11.422547999999995,4.6676652896031445,0.14632364456203287
11.42714,4.689618270489131,0.14583409787890486
11.431723999999996,4.712592870536911,0.14531900601635755
11.436312,4.735567470584689,0.14480770795623946
11.440923999999995,4.753922713680083,0.1444103130688487
11.445507999999998,4.7711341528995375,0.14405764901849893
11.450099999999996,4.788223407404847,0.14371920854277667
11.454696,4.805312661910157,0.14337919088593454
11.459292,4.820480862806025,0.14308353414903965
11.463892,4.835116183396681,0.14277468692738457
11.468483999999998,4.84831918923448,0.14246778581058128
11.473079999999998,4.857025022834038,0.14224988337144492
11.477668,4.866996845023682,0.1419779957672936
11.482268,4.8683850183279125,0.14191458129304824
11.486851999999995,4.86593108441326,0.1419465458748861
11.491452,4.860245966850454,0.142016917194236
11.496035999999998,4.862733802581995,0.14185172956805422
11.500635999999998,4.858803412465855,0.14182516023993838
11.50522,4.849887111254894,0.14193612465025313
11.509816,4.8371287028250505,0.14214842086512006
11.514407999999998,4.828701140470672,0.14221525892736606
11.519,4.81115704892567,0.14247545799708164
11.523587999999998,4.791814088485372,0.1427698190669498
11.528183999999998,4.770672259149778,0.1431007183247848
11.532772,4.747365006776452,0.14350623694357237
11.537363999999998,4.724302123831416,0.1438857028064181
11.541955999999995,4.700584175867024,0.14425784487399057
11.546539999999998,4.679442346531431,0.14458470187546263
11.551128,4.6602215708052785,0.14486719795698752
11.555704,4.642433109831985,0.14514331766000368
11.5603,4.626565702468132,0.14537088613749888
11.564887999999998,4.616339271218459,0.14546808552365997
11.56948,4.609710577759377,0.14549275213481105
11.574068,4.608067795395116,0.14538428139894546
11.578652,4.60630282831671,0.145286613630799
11.583259999999996,4.6086684793341055,0.14513264617465876
11.587844,4.609523772333125,0.1450544828516923
11.592444,4.613321738103379,0.14489926618079918
11.597039999999998,4.619407311625512,0.14465994966806103
11.601628,4.632644219280199,0.14421208442419953
11.60622,4.643715703897155,0.1438415307668009
11.610808,4.659284360752348,0.143378000266004
11.615404,4.673298518140539,0.14292597654402972
11.619991999999998,4.68923372913817,0.14242673059579408
11.62458,4.70745654788768,0.14184184341409378
11.629167999999998,4.722736693865954,0.14133320578248804
11.633772,4.736750851254144,0.14087641056580869
11.638363999999996,4.751009378070624,0.14040344405229918
11.64296,4.766411708763044,0.13989222457581005
11.647552,4.780259539988461,0.13939803979751825
11.652148,4.79320793676623,0.1389247038344005
11.656736,4.803335845486909,0.13851970967333194
11.661328,4.8125643197599395,0.13813847576154484
11.665915999999998,4.8215484246046785,0.13777980314516608
11.670512,4.83551844054424,0.13729547310752835
11.6751,4.8449912842455625,0.13689568831027465
11.679695999999998,4.851765824603942,0.13654661745168256
11.684284,4.862015918038766,0.13614540846965179
11.68888,4.876108118692474,0.13566149438565483
11.693467999999998,4.890977569079682,0.13518478719171076
11.698047999999998,4.905969204181039,0.13470151777334824
11.70264,4.926068935091362,0.1341042474453538
11.707228,4.951687457401716,0.13341427242762915
11.711819999999998,4.979471402749804,0.13267601532483736
11.716408,5.010075836154982,0.13189472872512478
11.720995999999998,5.044888930921481,0.13100847104386276
11.725608,5.080068579830414,0.1300876876055289
11.730195999999998,5.109729437339316,0.12926071095094926
11.734808,5.138368675686423,0.1284626389388761
11.739395999999996,5.168029533195325,0.127646394518257
11.743995999999996,5.199489259599523,0.12680990178438487
11.748592,5.232092789879658,0.12594521382975496
11.75318,5.2609763976550585,0.12514769995920494
11.757784,5.291003809306397,0.12432039126198315
11.762371999999996,5.318332917614792,0.12354414557482912
11.766975999999998,5.349626317856216,0.12268750122097945
11.771564,5.382063521973578,0.12179720816588868
11.776171999999995,5.412824041909791,0.12093503166195087
11.780747999999996,5.439864639341266,0.12014211863103622
11.785347999999995,5.4593432070491215,0.11948193863020164
11.78994,5.474857482823949,0.11889902164519292
11.79454,5.480522121123279,0.1185131384096318
11.799123999999996,5.481445217756077,0.11821078174197623
11.803716,5.477382403294053,0.11800794332513719
11.808296,5.468578047165499,0.1178843173326266
11.812892,5.455687214389771,0.11784572861090334
11.817492,5.445739054385278,0.11775141616231076
11.822088,5.444252358552052,0.11752311041843201
11.826679999999998,5.4431322168612635,0.11726701765091911
11.831272,5.438947217685095,0.11707332016414548
11.835859999999998,5.4311644807183335,0.11692554599777048
11.840455999999998,5.418640202085042,0.11685356644581336
11.845044,5.409180780937132,0.11671823021651972
11.84964,5.39804467560807,0.11659573885880457
11.854231999999998,5.386664200850719,0.11649117909898701
11.858824,5.3736070419122175,0.11639834888369714
11.863416,5.3586288293642745,0.11633672135326174
11.868003999999996,5.3427511823686835,0.11628498184180322
11.872596,5.328794588982533,0.11620082088948544
11.877188,5.320478971710561,0.1160320711332105
11.881768,5.315350396638116,0.11579250217954722
11.886376,5.3141861134987,0.11547890318373127
11.890955999999996,5.313144015073428,0.11515509342629221
11.895563999999998,5.316188393295332,0.11474950982617352
11.900148,5.32217544428847,0.11429167649384647
11.904731999999996,5.3323711566429255,0.11374402784341808
11.909335999999998,5.341423065121444,0.11323088945477065
11.913931999999996,5.346877235809371,0.11276795932914307
11.918528,5.3520870370690075,0.11232435885258368
11.923111999999998,5.360361695814024,0.11182215362616675
11.927707999999996,5.373377896225572,0.11125314294407596
11.932296,5.391912888037151,0.11061203201660225
11.936892,5.40738302236335,0.11002971598514757
11.94148,5.421709352813609,0.10947366452705362
11.946059999999996,5.438323291015748,0.10886578014051124
11.950652,5.454692859789594,0.10827842178118866
11.955244,5.476048339658263,0.10760941153509981
11.959828,5.497770373669368,0.10691698265689979
11.964411999999998,5.519492407680475,0.10623061393201066
11.969,5.539782126938722,0.10554302038142525
11.973584,5.563014518968204,0.10481836529149607
11.978159999999995,5.583304238226451,0.10413551402636345
11.982759999999995,5.605515011094141,0.10342786155332385
11.987343999999998,5.624783111190595,0.10276940666860238
11.991935999999995,5.642007972963462,0.10214814347103393
11.996528,5.6589884653080365,0.10155242018181872
12.001115999999998,5.674170088757315,0.10097556008690382
12.005708,5.683466366664125,0.10048223133741124
12.010291999999998,5.693662079018583,0.09998226013518015
12.014867999999998,5.704879410534834,0.09947003269150141
12.019467999999998,5.711233015670409,0.09902715264645989
12.024052,5.7150105021771855,0.09860203260541135
12.028632,5.725450583959935,0.09809840220284459
12.033236,5.7427976304469475,0.09750250450952797
12.037828,5.753359896943842,0.09699388434330153
12.042432,5.761101675383648,0.0965152175235461
12.047019999999998,5.765900781052218,0.09608049239962954
12.051612,5.7703333325783515,0.09567183150439798
12.0562,5.772067580761542,0.09528583536312664
12.060795999999998,5.770614786745205,0.09495427953429458
12.06538,5.765319885509986,0.09466982379030622
12.069976,5.766154699245528,0.09429255278138855
12.07456,5.765190644085775,0.09393008343500066
12.079156,5.764104404211876,0.09357493720656461
12.083752,5.763384718480412,0.09319424227430714
12.088343999999998,5.7589451102442135,0.09285022617422348
12.092928,5.756548740331603,0.09247596733654208
12.097523999999998,5.760937150409107,0.0920185727052054
12.102112,5.76569211462905,0.09153924703295196
12.106695999999998,5.767626590791902,0.09109014064137584
12.11128,5.773403174173638,0.09059868335973426
12.115871999999998,5.780079192003022,0.09010092407320137
12.120456,5.7762505073375525,0.08971562398119155
12.125032,5.7638381737866675,0.08942106656688677
12.129632,5.7598873044070515,0.08904421755626647
12.134219999999996,5.761821780569903,0.08859756913021818
12.138795999999996,5.761957387837461,0.08816269154898719
12.143392,5.760171941495577,0.08774729302876556
12.147975999999998,5.7600631793348445,0.08732666201267406
12.152564,5.765595393288289,0.08685328390469893
12.157156,5.768839999489856,0.08642204407569375
12.161744,5.768120313758392,0.08604183574367875
12.16634,5.769321681636371,0.0856421947277842
12.170916,5.77305502669452,0.08518350571106738
12.175503999999998,5.777687806200316,0.08471951481875845
12.180084,5.780521716810817,0.08426311756805642
12.184684,5.781434573811877,0.08382712572699848
12.189271999999995,5.783246865260585,0.0833899050683353
12.193868,5.781994299223912,0.08299292213909626
12.19846,5.780497363758948,0.0826109378755022
12.203055999999998,5.774258886627453,0.08227129001643521
12.20766,5.769941463105398,0.08191412796577885
12.212251999999998,5.7745742426111955,0.08145299544043035
12.21684,5.78484799823117,0.08094431702628277
12.221423999999995,5.790502396898761,0.08047309890865027
12.226003999999998,5.79423574195691,0.08002404547377298
12.230592,5.80156682480565,0.07955674963975529
12.235175999999996,5.809020092368535,0.07907908461489693
12.23976,5.818638782969154,0.07857167650349071
12.244355999999998,5.825803539655121,0.07806684856216344
12.248931999999998,5.840119630473643,0.07747867030802474
12.253516,5.8562345901874595,0.07688351068639115
12.258107999999998,5.870428496291836,0.07630697778881265
12.262696,5.883112044377834,0.07577639208473147
12.267303999999998,5.897350091930839,0.07525616081291046
12.271892,5.920949038102757,0.07467708065273419
12.2765,5.946591222598263,0.07407842589540684
12.281083999999998,5.967614050141383,0.0735105242572064
12.285676,5.992356800189243,0.07292197905476458
12.290272,6.018487723541331,0.07230139485396915
12.294868,6.044863016321711,0.07166100231437773
12.299464,6.067518386597355,0.07104594137104223
12.304044,6.087231084101762,0.07046339590348201
12.308635999999998,6.105922162444377,0.06989701412525234
12.31322,6.123469436911052,0.06934728476283118
12.317816,6.1371746041588455,0.0688255944736079
12.322404,6.149203087225488,0.06830650205891549
12.326992,6.167239100548746,0.06773646453308435
12.331572,6.184131309996065,0.06718926700438732
12.336163999999998,6.19693704279621,0.06668107987804263
12.340768,6.205001233929824,0.06620601019572642
12.345359999999998,6.211144371453997,0.06574445299675433
12.349959999999998,6.220107997035259,0.06526976293830121
12.354552,6.229193807330667,0.0647889217956711
12.359139999999998,6.235947868425569,0.06429629596602841
12.363732,6.234362650063348,0.06384253993305182
12.368315999999998,6.230489823949249,0.06342190158711028
12.372911999999998,6.228415866730447,0.0629958575486667
12.377496,6.224787410044637,0.06256177009681818
12.382072,6.221814018378186,0.06214053948217127
12.386667999999998,6.225381037273562,0.061692740510361894
12.391256,6.231768544226027,0.06123255238177801
12.395844,6.2370122473025535,0.060788331129414445
12.400432,6.238536027874341,0.06035764458074892
12.405015999999998,6.245167904255096,0.05988518040626348
12.409611999999996,6.250900346188204,0.05941019574080555
12.414187999999998,6.258553841730753,0.05892786089752538
12.418776,6.260321991730831,0.05848521631977966
12.42338,6.257470784778525,0.058055338660758384
12.42796,6.262303792263986,0.05758713002915053
12.432552,6.268036234197093,0.05711806248320438
12.437139999999998,6.275934099167934,0.05662702844378063
12.441736,6.281011476081685,0.05614835455862029
12.446324,6.284167799385996,0.05567812859024841
12.450924,6.286058134100221,0.05522829912084463
12.455512,6.289747337709741,0.05477445835129414
12.460112,6.293558726033408,0.05431281961945648
12.464691999999998,6.294671811014131,0.053852807114918425
12.469288,6.292720038509472,0.05341481343776875
12.473876,6.285127289890635,0.05299341646760622
12.478471999999998,6.269073077100533,0.05259896445643343
12.48306,6.2500761915391925,0.0522192246160022
12.487656,6.2312014906919995,0.051830811518304876
12.492243999999998,6.215269462616041,0.051424317351586
12.496828,6.193329904283467,0.051054743158396705
12.501415999999995,6.176786952636782,0.05068056398496803
12.505999999999998,6.15423647073348,0.05034192931611613
12.510595999999998,6.129520565792445,0.05002153677392367
12.515184,6.106481345032562,0.04970397112725335
12.519775999999998,6.07269305234953,0.04943763266062188
12.524364,6.03469609830518,0.04920550104862727
12.52896,5.991713233166007,0.048999691695617506
12.533543999999996,5.944888260807952,0.04880540170366701
12.538132,5.8998621573451935,0.04860807124730304
12.542743999999995,5.855735488330081,0.04840767954655844
12.547332,5.808421777115443,0.04823418501524547
12.551927999999998,5.758409762557862,0.048057311369994846
12.556516,5.708031193857844,0.04789914280514264
12.561112,5.657286071015388,0.04776123624374322
12.565716,5.608217632354083,0.04762843743035608
12.570308,5.563401996502725,0.04750849971521502
12.574908,5.515521503165987,0.04740961858419161
12.579495999999995,5.461755664286779,0.047339084237495284
12.584096,5.403781164046251,0.04730478620184918
12.588675999999998,5.342086741300986,0.04727669106861088
12.593271999999995,5.273974092708041,0.047252884549560795
12.59786,5.205861444115095,0.04722862958544512
12.602455999999998,5.138770414683943,0.04719473514241324
12.60704,5.070779950805144,0.047158098170980746
12.611627999999998,5.005854344411725,0.04709659049385628
12.616231999999998,4.9402736729989485,0.04701637628031905
12.620823999999995,4.873427012996088,0.04696201527119499
12.62542,4.807235418012584,0.04692461764279405
12.630012,4.732582358857813,0.04691090200920263
12.634599999999995,4.652821203894073,0.04694424754297261
12.639192,4.574326037520419,0.046947942627500606
12.643775999999995,4.495708686432619,0.04695600103930745
12.648364,4.413371412840082,0.04697454105930059
12.652951999999996,4.330379074228189,0.0469727800738384
12.657544,4.2476311050445865,0.04694647058976846
12.662136,4.16050814833689,0.046905567895336335
12.666724,4.075428429952781,0.04684314476404233
12.671316,3.995090253235203,0.04675945319086193
12.675903999999996,3.910787784584596,0.046715304762804805
12.680492,3.8290614345627874,0.04668391961625408
12.685083999999998,3.7479901495603345,0.04667478365141396
12.689672,3.664997810948441,0.04667898378276225
12.694283999999998,3.581883287622402,0.046692307051621196
12.698876,3.4978693298487147,0.046699406689248296
12.703464,3.413733187360882,0.046715637760261136
12.708055999999996,3.3303742946065515,0.04674162085439484
12.712655999999996,3.2472597712805125,0.04674729587229086
12.717259999999998,3.163245813506825,0.04675898738676834
12.721852,3.082829593523729,0.046778676765205356
12.726444,3.0027799276830702,0.04676541804545848
12.731031999999995,2.919665404357031,0.046792985895416875
12.73562,2.8373281307644933,0.046832321033324825
12.740204,2.760631833286135,0.046841045017319484
12.744804,2.6818922974841892,0.046882487289266514
12.749387999999998,2.602908392253952,0.04694863226294941
12.753983999999996,2.5238023023095693,0.047028615283995066
12.758568,2.442775158755745,0.04712192828866867
12.763152,2.358927527144832,0.047228241313609504
12.767735999999998,2.282353414380619,0.04718111657238361
