Time,Force,Position
12.809043999999998,1.6092335555827393,0.045373699969328087
12.813639999999998,1.539033527217579,0.04500539912502553
12.818228,1.4727977907854473,0.04448316901463502
12.822811999999995,1.4093825424104043,0.043906515667946545
12.827408,1.34404624042592,0.04152103311647404
12.831995999999998,1.2767888848319944,0.03915631191666491
12.836584,1.2123520172951576,0.03677172104043416
12.841176,1.1440730425394385,0.034387549229614955
12.845776,1.0765713175172216,0.032004132581795186
12.85038,1.0107462766761544,0.029621551854618216
12.854971999999998,0.9485189736256787,0.027239901491950106
12.859564,0.8828602589473856,0.024964047998844666
12.864143999999998,0.8225981509549796,0.02272148865235008
12.868736,0.7611922390866344,0.020513053734941347
12.873323999999998,0.7003192075234999,0.0183412346238968
12.877923999999998,0.6427995443226657,0.016184881664074027
12.882519999999998,0.5905543030935727,0.014016084571633017
12.887104,0.5348776502366623,0.011924301436224246
12.891691999999995,0.4876624615510195,0.009791034236917653
12.896284,0.4393034689894375,0.007707755981723305
12.900888,0.39568601809438614,0.005655158584485082
12.90548,0.3514135021799782,0.003654468664661483
12.910067999999995,0.3083289315901377,0.0018091785517940805
12.914664,0.2669512644324084,0.0
12.919251999999998,0.23019295422706398,0.0
12.923836,0.1961329473646632,0.0
12.928423999999998,0.16477124384520597,0.0
12.933008,0.142740219693703,0.0
12.937599999999998,0.12724960610402636,0.0
12.94218,0.11511236087664978,0.0
12.946771999999998,0.10535100629840786,0.0
12.95136,0.10528320266462912,0.0
12.955936,0.10469275835737832,0.0
12.960544,0.1186256895583776,0.0
12.965136,0.14749269185869213,0.0
12.969723999999998,0.18667440830593696,0.007675258598292194
12.974316,0.23719245806190564,0.015316279026251751
12.978912,0.30865210917380503,0.02251055643165418
12.983516,0.384907683032602,0.029977313275868032
12.988116,0.47442064380956417,0.03743789585510314
12.992708,0.5738817645910196,0.044946648424539076
12.997303999999998,0.6811256223392356,0.05271578623711676
13.001907999999998,0.7982734986433168,0.06047102010676378
13.006484,0.9287707273287475,0.0681039456059892
13.011084,1.068927605141752,0.07573453915686058
13.015672,1.2179668823488286,0.08337633084937991
13.020275999999996,1.3752334939306197,0.09102332360180083
13.024864,1.536016117471557,0.09874948400532287
13.029464,1.7011839681683263,0.10652049219008425
13.034048,1.873513392629389,0.11427098543686023
13.038644,2.049196185452752,0.1220174893798643
13.04324,2.223568848237402,0.12971270675071578
13.047835999999998,2.3987526625724436,0.13739040032789593
13.052424,2.560801274703466,0.14510021401974715
13.057007999999998,2.706805913676123,0.15277602004046834
13.061596,2.842407555604593,0.15267503923142123
13.066179999999996,2.964785712431788,0.15253057162618797
13.070768,3.067033419453443,0.1528348322810244
13.075359999999998,3.164563246993718,0.1527044568992615
13.079955999999996,3.2478921117195516,0.15261464240978045
13.084544,3.3182860022210297,0.15247076933710735
13.089131999999998,3.384328567383564,0.15190169739661805
13.093707999999998,3.4387462883604556,0.15132843272398896
13.098304,3.479862480970554,0.15081840450697448
13.102887999999998,3.507432775785567,0.15035776885826782
13.107476,3.523666737291857,0.14993144523381635
13.11208,3.532939353013516,0.14942560562194093
13.116668,3.5354949923788364,0.14880192830352706
13.121272,3.530189851511879,0.1481267264494144
13.125868,3.5183340604513553,0.1474146742418361
13.130463999999998,3.5026700639888397,0.14666585330812704
13.135068,3.481443134677663,0.14600907697647325
13.139668,3.456085587270683,0.1454366472180327
13.144259999999996,3.4355137229788624,0.14478804798289963
13.148852,3.4177284449272416,0.144221349354043
13.153448,3.4015859492398817,0.14379468123140707
13.158028,3.387619116221993,0.1435320876783232
13.162624,3.37991442252075,0.1432697082491903
13.167211999999996,3.371398577269115,0.14319715755367535
13.171811999999996,3.3724540982477973,0.1429774742440061
13.176408,3.380016127971417,0.14273408617672184
13.181008,3.3875442558781477,0.14267351292198582
13.1856,3.3972039050057217,0.1426956252873051
13.190195999999998,3.4077290867640535,0.14287079580007778
13.194804,3.4287250692003512,0.1428834289408005
13.1994,3.4590039069900476,0.14271561289494927
13.204,3.490104135961874,0.1426259637536655
13.208595999999998,3.52537912447813,0.14255038483057275
13.213188,3.5633965577859583,0.14248543670269753
13.21778,3.601335947828268,0.14251511122965874
13.22236,3.6452048248616764,0.14245188774813666
13.226952,3.6970464272097705,0.14222275575635968
13.231539999999995,3.759681242929638,0.1417638862156419
13.236139999999995,3.8242371122589467,0.14127790198986304
13.240728,3.8886707968741105,0.14078905961990806
13.245304,3.9579682078699503,0.14017642010490178
13.249899999999998,4.0309413999218995,0.1394046691357834
13.254484,4.10554713470637,0.1385601761705313
13.259076,4.178964924166273,0.13768801106944908
13.263667999999996,4.245920346329867,0.13692213651278565
13.268256,4.307557205073092,0.1361941731424467
13.272864,4.3683726726341865,0.13541216077461748
13.277451999999998,4.434007725127329,0.1344521523646679
13.28204,4.503274417227953,0.13328553383774866
13.286636,4.565545861727056,0.13220714494098895
13.291223999999998,4.618656635586907,0.13127318850255518
13.295816,4.670168768531126,0.13029449232051463
13.300412,4.716606707483267,0.12932603736145268
13.305016,4.761568190233921,0.1283025106642849
13.309603999999998,4.807340824534967,0.12714778654684697
13.314203999999998,4.84113230013967,0.12617318620958334
13.318788,4.865885289819267,0.12531127010464566
13.323388,4.87955655525017,0.12461006352942136
13.327971999999995,4.884966584489469,0.12399400770716079
13.332571999999995,4.89172064558437,0.12325855717322907
13.337164,4.8893140360400205,0.12262156700881612
13.34176,4.881999558666364,0.1220302530784971
13.346344,4.869777213463403,0.12148211843643682
13.350936,4.8621300837642005,0.12079642599882856
13.355527999999998,4.857669996264524,0.1200295455457804
13.360123999999995,4.855253147088434,0.11921278881945216
13.364712,4.849482929550045,0.11842638439279195
13.369299999999996,4.837538855592266,0.1177250009217107
13.373888,4.8224077394349605,0.11710479001654604
13.378483999999998,4.8053555696682135,0.11651600684493447
13.383072,4.792267691834495,0.11584282734633872
13.387668,4.779179814000776,0.11516877467196335
13.392259999999998,4.769811858671795,0.11443488634269466
13.396848,4.761221153076316,0.11370028218477354
13.40144,4.751775154481816,0.11303874181703089
13.406027999999996,4.7495246314685,0.11227948331826408
13.41062,4.749483672941546,0.11152267651921412
13.415207999999998,4.7508750291674495,0.11076839171990657
13.419796,4.75795150295616,0.10997955374821891
13.424379999999998,4.766870987088794,0.10923478793174098
13.428976,4.783396642393675,0.10842781944272738
13.433564,4.8039307310802135,0.10760971876668599
13.438159999999998,4.827573818700761,0.10679082064015456
13.44274,4.843699018046317,0.10615667388122116
13.44734,4.856392805764056,0.10561972879046265
13.45192,4.875627004043619,0.10500284351858308
13.45652,4.9027117429237235,0.10432112807928416
13.461107999999998,4.9344599802048394,0.10364328123215295
13.465707999999998,4.971360454743554,0.1029394091543414
13.4703,5.013290981825715,0.10220780081104848
13.474896,5.054244031194711,0.10156058338981473
13.479476,5.095485591440629,0.10095596357355921
13.484072,5.135994043401671,0.10041864560369791
13.488672,5.175891571791985,0.09993400730821395
13.493263999999998,5.214889665734652,0.09946172436939194
13.497856,5.255564443858469,0.09899370210535235
13.502448,5.298937525325228,0.0985054210996741
13.507028,5.34590834458258,0.0979871402024971
13.511611999999998,5.394922402163519,0.09744535722610659
13.516204,5.444303013886895,0.09688960553630843
13.520796,5.4938058103244165,0.09634096744263121
13.525391999999998,5.5407324881331395,0.0958148670504214
13.529983999999995,5.587781350656009,0.09528870943268536
13.53458,5.641614993168994,0.09467535051442195
13.539167999999998,5.699412927615009,0.09401172756259221
13.543759999999995,5.749037908766676,0.09349067929241939
13.548348,5.7959645865753995,0.09300740813203917
13.552935999999995,5.839782265450114,0.09252613412074027
13.557543999999998,5.875627219010144,0.09210455010335986
13.562132,5.911960911426757,0.09165942613828437
13.566724,5.949927146575892,0.09116408561215271
13.571311999999995,5.989281555029255,0.09063509477400247
13.5759,6.029002517625056,0.09008789851512967
13.580504,6.073054326296324,0.08947849720761678
13.585091999999998,6.119926623024679,0.08884877927257544
13.589695999999998,6.1612801283530025,0.08826864304990967
13.594276,6.204021806985557,0.08766458967878141
13.598871999999998,6.247130039760548,0.0870487508076709
13.603452,6.284841665849653,0.0864721184502572
13.608052,6.317034500538725,0.08593934726623828
13.612643999999998,6.344974532417848,0.08542504892945339
13.617243999999998,6.376101606496499,0.0848716846381218
13.621836,6.405796365822289,0.08431213124705772
13.626428,6.43213775678578,0.08376515089808516
13.631015999999995,6.455780844406327,0.08323835321374473
13.635599999999998,6.482200278635335,0.08264566780394204
13.640199999999998,6.506410148377982,0.0820451170675697
13.644791999999995,6.53086438754892,0.08143337723167868
13.649371999999998,6.5574840497575915,0.08078942555764988
13.65396,6.57972872444217,0.08016604977987586
13.658547999999998,6.598497846050303,0.07955669376168564
13.663147999999998,6.614935218457928,0.0789430956632429
13.667736,6.627364157483898,0.0783241053161033
13.672327999999998,6.62965494815745,0.077766068890171
13.676923999999998,6.627937305449345,0.07720224090080638
13.681504,6.627852205473761,0.07659090229902409
13.686095999999996,6.619427826041056,0.07602888775543842
13.690684,6.603807971027168,0.07549630653685345
13.695271999999996,6.591497342926952,0.07491640743766881
13.69988,6.583517560902202,0.0742783753984787
13.704468,6.573738909982154,0.07364453312657658
13.709075999999998,6.5561538599101965,0.07307263975553766
13.71366,6.533582898743416,0.07254255996795102
13.718247999999996,6.508313634233693,0.07201993357105378
13.72284,6.483166554438116,0.07148906035005514
13.72742,6.454055182709509,0.07098978020149407
13.732016,6.422656203229025,0.07052218886816464
13.736596,6.3890918007108075,0.07007929018517363
13.741184,6.354017040174214,0.06967195519913073
13.745772,6.3213962135522745,0.06926641384260321
13.750372,6.290207701683192,0.06887298741505289
13.754968,6.262372558176409,0.06847983600375757
13.759564,6.2376464136036365,0.06810030553994241
13.76416,6.219993559897898,0.06770202855838056
13.768751999999996,6.206471324287966,0.06731012449206199
13.773351999999996,6.194914283736102,0.06695158860640546
13.777948,6.188876034584268,0.0665678723200955
13.782544,6.192731564356563,0.06615626036878534
13.787144,6.196875605005778,0.06577934177989517
13.791735999999998,6.201596667408832,0.06546857065175911
13.796327999999995,6.211592151783625,0.06515136375477693
13.800916,6.229027481167893,0.06480173267299988
13.805503999999996,6.255945893885224,0.06440368069846723
13.810092,6.290059782183737,0.0639921569940863
13.814688,6.324950920215751,0.0635889450814484
13.819283999999998,6.3653608496478,0.06316960771760206
13.823872,6.410390136032232,0.06273656005425483
13.828468,6.461060398530844,0.0622829600964834
13.833055999999996,6.517616006571924,0.06179490240249672
13.837652,6.575071049060652,0.06131139851578732
13.84224,6.634569329872968,0.060816631841306194
13.846824,6.689203884304607,0.06035470033495891
13.851431999999996,6.748824349831069,0.05986867458662237
13.85602,6.8077897503381735,0.0593776679765247
13.860615999999998,6.862135793892893,0.05890488832258177
13.865204,6.914927337980608,0.058426191884489095
13.869792,6.967474512640033,0.05796519899467128
13.874387999999998,7.012826211718274,0.05752231394794299
13.878968,7.057645030491305,0.05706733340352263
13.883572,7.0997214044727635,0.05657643073113649
13.888156,7.138200040663631,0.0560944137326425
13.892756,7.175901427120997,0.055613717908703224
13.897344,7.202198676635859,0.05517702291704665
13.901939999999998,7.221056081141248,0.05476335500068411
13.906532,7.238114616751341,0.05435293601171022
13.911132,7.253252098751993,0.05395395224076843
13.915715999999998,7.262093539619109,0.05356122440410356
13.920308,7.264516754638545,0.05318114368867823
13.924904,7.259622309362652,0.05281301177537659
13.929496,7.252151745457962,0.05244134873288245
13.934095999999998,7.243781747105624,0.052071621588335844
13.938695999999998,7.23361287985799,0.05170016985644042
13.943287999999995,7.210773887077767,0.05138237336226441
13.94788,7.184992221526311,0.05107663253325687
13.952467999999998,7.161253794298442,0.05075641282377216
13.95706,7.135716498175276,0.050435239264666434
13.961636,7.107603083423314,0.050107832326033726
13.966232,7.075403192024176,0.04980168391565129
13.970824,7.039894073711366,0.04952492527499993
13.9754,7.001320097913178,0.04926337114861805
13.979991999999998,6.957882395734311,0.04901781379056861
13.984571999999998,6.905738859955886,0.04880175661327059
13.989152,6.862834038082232,0.04857003025456925
13.99376,6.820462096513786,0.04835497067797562
13.998347999999998,6.774903112745817,0.048163184455321126
14.002936,6.721415545111791,0.04800876244479837
14.007532,6.666539804173532,0.04787724921982473
14.012128,6.610275889931044,0.04776942463731298
14.016723999999998,6.557365344050856,0.04767155600061662
14.021316,6.500901201828705,0.04761839979107387
14.025912,6.438307344635792,0.04760360721746963
14.030499999999998,6.376612921890527,0.047587369068090114
14.035099999999998,6.321048214116023,0.04752934618520291
14.039688,6.26433970246558,0.047483216563666664
14.044288,6.201379291130231,0.04748368314652505
14.048875999999998,6.134088033719416,0.047525590114704426
14.053475999999998,6.062588114947282,0.04760224520713225
14.058071999999996,5.995585368413386,0.04767960553646469
14.062668,5.922941645765312,0.04777449452753474
14.067264,5.849931368974802,0.047891528426738376
14.071847999999996,5.782439883584323,0.048001162713579265
14.076447999999996,5.716869451803285,0.048106271268236994
14.08104,5.645902413336363,0.04820784554141969
14.085627999999998,5.573380875402434,0.04829528588742429
14.090223999999996,5.501103706896798,0.04836854225264335
14.094803999999998,5.4309919614288935,0.048422890269474654
14.099392,5.366765561503459,0.04844424713984607
14.103975999999998,5.305604019063406,0.04844126013904654
14.108568,5.23970093495682,0.04845393836264322
14.11316,5.172487720811523,0.048436296331852695
14.11774,5.105641060808662,0.04839455991917068
14.122323999999995,5.037772781644008,0.048359532368501136
14.126912,4.964552037242094,0.04838220283050956
14.131499999999996,4.889532423944885,0.04840512745162354
14.136107999999998,4.818599287294851,0.048395939929206225
14.140699999999995,4.75289643116793,0.04833348505619904
14.145292,4.6910356822598915,0.048254536282319065
14.149883999999998,4.625577195561261,0.048174615703838755
14.154488,4.563061381633866,0.048076489606798
14.159083999999998,4.501445002154119,0.0479795351851211
14.163672,4.432266592950752,0.04791207783524462
14.168264,4.367951910128062,0.04780998560826641
14.172859999999998,4.299672935372342,0.04773424339569794
14.177451999999995,4.232537764492563,0.04763076753657411
14.18204,4.162337736127402,0.047557256154987196
14.18664,4.092259892476386,0.04746952398137953
14.19122,4.012454596064019,0.04744466745679278
14.19582,3.925087269928032,0.047450085688639704
14.200407999999998,3.8369426940585423,0.047446484839043956
14.204996,3.747654314313114,0.04746682792415924
14.209587999999998,3.6591431843011875,0.04749695807872113
14.214183999999998,3.5725531078987025,0.04751189209419987
14.218783999999998,3.4863295856386545,0.04749778438024314
14.223376,3.4012498672545455,0.04744978159450978
14.227963999999998,3.3086081191468173,0.04744444992578312
14.232559999999998,3.209303775763117,0.04746857074821487
14.237139999999998,3.1057466295694685,0.04745135616069423
14.241728,3.003088917823468,0.04743298926755696
14.246307999999996,2.9033738788487016,0.0473715185780557
14.2509,2.7994060370639877,0.047268723882162036
14.255491999999998,2.699524671926448,0.04709131681448563
14.26008,2.5927363420846445,0.04698458125451144
14.26468,2.4868474466904895,0.04688481718597855
14.269268,2.37380721716378,0.04693005405223131
14.273863999999998,2.262032976227155,0.04691666222231654
14.278452,2.1541008425094126,0.046810738339552585
14.283039999999998,2.0533200429242253,0.0465206059940635
14.287635999999996,1.9560147964154833,0.04626849703897794
14.292224,1.8606306035161833,0.045956566944833036
14.296828,1.7689663331216197,0.04561162093421965
14.301424,1.6782014971747043,0.04524592608544899
14.306011999999996,1.5826951195612584,0.04285724602956
14.310608,1.4889876108431082,0.040469002572912104
14.315195999999998,1.393891928820727,0.03811458346097938
14.319791999999998,1.3082793301314077,0.03572751728126083
14.324372,1.226020099804388,0.033341246643257
14.328967999999998,1.145970433963729,0.03099663380394935
14.33356,1.0678418217325119,0.028654004438037863
14.338163999999995,0.9857489175682658,0.026355348003469583
14.342752,0.9117509234328506,0.024087797390247818
14.347352,0.8393074287644399,0.021873575978673385
14.351947999999998,0.7716054757625597,0.01962224365439914
14.356543999999998,0.7104439333225059,0.01735380688633293
14.361128,0.6588876589296588,0.014975995925357527
14.365719999999998,0.6145268601179946,0.012634969073460556
14.370323999999998,0.5657130305167195,0.010400148025916527
14.374919999999998,0.5160439079164245,0.008313121597124735
14.379512,0.4703390772491578,0.006175374272877053
14.384112,0.42631093076304116,0.004097789629369698
14.388699999999998,0.3831822187245725,0.002038588192558394
14.393288,0.34095294113375163,0.0
14.397875999999998,0.3052640741047569,0.0
14.402467999999995,0.2712518912569125,0.0
14.407064,0.24288068452324643,0.0
14.411647999999998,0.2143872930754347,0.0
14.416243999999995,0.1907576280082992,0.0
14.420823999999998,0.17199168932183997,0.0
14.425416,0.15285919649294374,0.0
14.430003999999998,0.1392454950640803,0.0
14.434592,0.12485454390171472,0.0
14.439195999999995,0.11303971136814696,0.0
14.443784,0.10314593244402061,0.0
14.448371999999996,0.0896065917147466,0.0
14.452968,0.07664795530523966,0.0
14.457556,0.061646080572145656,0.0
14.462164,0.05175230164801929,0.0
14.466755999999998,0.04332105672771289,0.0
