Time,Force,Position
6.86964,1.7327604030723138,0.04431092792064923
6.874220000000001,1.6302248760404585,0.04204871841500522
6.878820000000001,1.5310427173709036,0.03982152109164115
6.883412,1.4368464697961707,0.037571740275592166
6.888008000000001,1.3449378299733163,0.0352947947629921
6.892604,1.250863767112729,0.03303889354433739
6.897196000000001,1.165906233442766,0.03077697825469557
6.901784000000001,1.0863453064586897,0.028523420545408528
6.906384000000001,1.0096048675317024,0.02625789938089125
6.910976,0.9362177969670157,0.024003090183360724
6.915568,0.8670835292122769,0.021735687201725418
6.920156,0.7993815762103966,0.019498761155392976
6.924748000000001,0.7391194682179907,0.01724749390486236
6.929336000000001,0.6798789793873782,0.015026635024385565
6.933928,0.6224373594520612,0.012789237155366902
6.938524000000001,0.5682269231648988,0.010658348246068906
6.943112000000001,0.5224779510490041,0.008488625861338332
6.947708,0.4749301100378137,0.006326456700005237
6.952284000000001,0.43098000681721466,0.004185542708209981
6.95688,0.39242651028250275,0.002034648068592039
6.961464000000001,0.35710419739594523,0.0
6.966048000000001,0.32591250260518995,0.0
6.9706600000000005,0.29177813504319966,0.0
6.975248000000001,0.2627960047388052,0.0
6.979844,0.23818886195850436,0.0
6.984440000000001,0.2210215641876777,0.0
6.989028000000001,0.20749614565607055,0.0
6.993632,0.19790111724060247,0.0
6.99822,0.19894321566587356,0.0
7.002816000000001,0.2124213098271795,0.0
7.007404000000001,0.23784666086793765,0.0
7.012004000000001,0.2719100418744761,0.0069247166868385565
7.016592000000001,0.31424489870435784,0.014110039163619442
7.021192000000001,0.36616136139629585,0.021536754671227513
7.0257760000000005,0.434277883777634,0.028775608854451257
7.030376,0.5121762400006915,0.036023549555337445
7.034968000000001,0.5998564300654686,0.043207023521153055
7.039564,0.6989951381531152,0.05050933351706976
7.044144000000001,0.8095923642636313,0.05779842592929313
7.04874,0.934057900863041,0.06492579037253783
7.053336,1.0668729565513115,0.07205890304930584
7.057936,1.2034181743760577,0.0793644888897126
7.062524,1.3525215726509847,0.08662278869799814
7.067120000000001,1.5035562641670914,0.09401810218111341
7.071708000000001,1.6598756172866784,0.1015026539106552
7.076296000000001,1.8211911211328264,0.10900557301361087
7.080884000000001,1.9856156239129834,0.11646951273987441
7.085488,2.152816473301601,0.1238174268942712
7.09008,2.313510813945282,0.13118536276826637
7.094664,2.464956201052454,0.13854816189506303
7.099260000000001,2.605920547849922,0.14585027474114776
7.10384,2.73713696262256,0.14616017522583175
7.108424000000001,2.854763338151485,0.146220688343617
7.113016,2.958388978845632,0.14603569233404848
7.117596000000001,3.043727180078163,0.14615965605853612
7.122204,3.1144978643538166,0.14635848249612005
7.126792,3.1705788469584464,0.1466810396072216
7.131384000000001,3.219898711758109,0.14672753791595436
7.135968,3.253995994581537,0.14685702241347479
7.140556,3.270705272390998,0.14720389735394973
7.145152000000001,3.27337991354879,0.14766196112938607
7.149732,3.2739569353026305,0.14778779676804804
7.154328,3.2651628188058153,0.14795470656201415
7.158916,3.250961855991374,0.147997339641537
7.163516,3.2297995473923025,0.1479444899809885
7.168104,3.2019644038855195,0.14785418461856667
7.172704,3.1682778166531573,0.14780285863283696
7.177300000000001,3.1295611768773446,0.14785491171696782
7.181892000000001,3.093132144853411,0.14777558381653663
7.18648,3.0578910581540435,0.14772655382524327
7.191064000000001,3.0265803615708156,0.14770327874606612
7.195664000000001,2.9978118817994956,0.14780844294866602
7.200256,2.975672095487259,0.14786766191043474
7.204844,2.958239949024663,0.14795518918775896
7.209432,2.953155515400846,0.14769106155646133
7.21402,2.9568651982738445,0.1472783864281979
7.218608,2.9655268904247754,0.14685315673539628
7.2232,2.9758313649399675,0.14659607134767438
7.227788,2.996973194275561,0.1461129494137116
7.232380000000001,3.026298216537242,0.14556351606691556
7.236964,3.0644173552957383,0.1448574677811577
7.241556000000001,3.101192462198632,0.1443542341616287
7.246144000000001,3.142264513360102,0.14384720384549313
7.250736,3.1900433012461717,0.14321954776278056
7.255344000000001,3.2423634028191084,0.14256372115081017
7.259932000000001,3.300368621954853,0.141841696071524
7.264544000000001,3.362137905043962,0.1411020114439619
7.269132000000001,3.42701618706708,0.14034536260499667
7.273720000000001,3.4880965033199436,0.13980122770127126
7.278312,3.552774557363398,0.1391765341616032
7.2829,3.615653742511557,0.13860567699834847
7.287504,3.682741589021036,0.13788403757332296
7.292084000000001,3.7509732394064543,0.13713976974542816
7.296688,3.8211259434013134,0.13634411654056489
7.301272000000001,3.884127313263618,0.13583779642690452
7.305868,3.9468401722490034,0.13531735225169825
7.310448000000001,4.008609455338112,0.13473865508285485
7.315052,4.065837424740354,0.1341821255441914
7.319648000000001,4.115869918561413,0.13381032080086128
7.324248000000001,4.162504902571544,0.13342575521889097
7.32884,4.207541245666042,0.13300140373056699
7.333432,4.251878382292556,0.1324994598636374
7.338024000000001,4.293306747964723,0.13193879574676365
7.34262,4.3274954966070815,0.13147182154588916
7.347211999999999,4.358408920152657,0.13098203553744192
7.351804000000001,4.381549846363209,0.13055547922170124
7.356392,4.402559251352918,0.1300625921830718
7.360976000000001,4.418616647064695,0.1295611715159967
7.365560000000002,4.43867223652639,0.12881633442976193
7.370152000000001,4.454430881729509,0.12807407956462236
7.374744,4.469245951036352,0.1272823257741941
7.37932,4.481074206123331,0.12651106959339328
7.383904000000001,4.485296290038063,0.12583281336918212
7.388484000000002,4.4879197330371605,0.1251031330579092
7.393067999999999,4.490987773444216,0.12426116363510295
7.397663999999999,4.486083088536584,0.12354370955663531
7.402252000000001,4.483588196094977,0.1227426435508553
7.406839999999999,4.483503096119393,0.12185250906170045
7.411432000000001,4.484028919714537,0.12090229246028898
7.416015999999999,4.483899678290326,0.11994374344677
7.420612000000002,4.478007276037792,0.11910567063913542
7.425188000000002,4.47031600488996,0.11829448232633764
7.429788000000002,4.460214941276105,0.11756732787616844
7.434376,4.450891127395751,0.116833180866533
7.438976,4.438746825458309,0.11615025205136079
7.443564000000002,4.429833707169021,0.11544110585321218
7.448164000000002,4.420021154432085,0.1147467252393973
7.452743999999999,4.407143744209768,0.1141212006804473
7.457340000000002,4.39263379125493,0.11357805962813483
7.4619360000000015,4.378778903319449,0.11304132097102122
7.466528,4.365823449831615,0.11248897630652963
7.471116000000002,4.348248639391397,0.1120100017151158
7.475708000000001,4.33451593617006,0.11144955569237756
7.480288000000002,4.317474006035052,0.11098214258031615
7.48488,4.303008194528842,0.1104845502559208
7.489460000000001,4.293283924689162,0.10989468152271395
7.494052,4.2824158509735435,0.1093419588636894
7.498647999999999,4.272202842277281,0.10879934558184946
7.503240000000002,4.263788702476314,0.10823174042509248
7.507832,4.2561518124088495,0.10766208510985532
7.512419999999999,4.25427808316971,0.10698523197739032
7.517012000000001,4.258944764492396,0.1062102463332546
7.521608,4.269374606643405,0.10533877397319809
7.526192000000002,4.2825027521373595,0.10443857775715851
7.530788000000001,4.300783134888909,0.10349686565284723
7.535375999999999,4.316120844869223,0.10261083939698865
7.539968000000002,4.329703827402872,0.10181335333796886
7.544560000000001,4.353058404146499,0.1009120992096189
7.549144000000002,4.375024807585897,0.10007072332351492
7.553740000000001,4.397524091330505,0.0992572258012465
7.558336000000001,4.421577874542116,0.09845333835748882
7.562927999999999,4.453482198354269,0.0975857495460718
7.567516000000001,4.490172205281579,0.096725628682898
7.572108,4.532014449466485,0.09582874185232082
7.576692000000001,4.573245770080663,0.09500091367911637
7.581299999999999,4.616686655181201,0.09419800860590195
7.585884,4.660293866444513,0.09345730773954505
7.590475999999999,4.704556142727183,0.09273932137131605
7.595068000000001,4.74832968015327,0.0920710285820508
7.599664000000001,4.797377639551097,0.09137830145475795
7.604264000000001,4.848879532863577,0.09070222343835312
7.608855999999999,4.894251711205297,0.09014690683488416
7.613444000000001,4.936803401489928,0.08964050195714521
7.618040000000001,4.9798879720797675,0.08916557494815051
7.622627999999999,5.021950923507815,0.08871760623526889
7.627220000000001,5.070432100783543,0.08821620756505162
7.631807999999999,5.12312193942059,0.08764566109020991
7.636407999999999,5.169393552209956,0.08714546986979789
7.640996000000001,5.219629456932351,0.08659926476897811
7.645592000000001,5.271009165530685,0.0860370514361105
7.650188,5.326353166062049,0.08544205409757925
7.654776000000002,5.37642274462167,0.08488807925896337
7.659368000000001,5.421584455351987,0.08434592489056586
7.663948000000001,5.468500893528972,0.08375373933826388
7.66854,5.512308332771948,0.083154214910755
7.673124000000001,5.556848880299797,0.0825177037040255
7.677712,5.600568036645517,0.08183161812769692
7.6823000000000015,5.640933824628936,0.08115394432652974
7.686888,5.681788351468939,0.08044909808880553
7.691488,5.717612825765491,0.07976492602660647
7.696080000000002,5.750206116413887,0.07908930761147306
7.700672000000001,5.784554134508954,0.07835417151813362
7.705276000000001,5.816203849261075,0.07763587949896049
7.709868,5.846010553669272,0.0768841358851424
7.714468,5.873607693591109,0.07611920418743726
7.719048000000001,5.89323210819826,0.07539058568903702
7.723648000000001,5.90566104722423,0.0746974777347131
7.728232000000002,5.91947815955443,0.07396936345375264
7.732824000000001,5.928020849912889,0.07326309300595067
7.7374040000000015,5.934109606356696,0.07255654365924281
7.741996,5.931081833609878,0.07190041987244827
7.746596,5.929975114472501,0.07122981613986185
7.751184000000002,5.929767829782772,0.07055554121900678
7.755772,5.922653580388778,0.06994634766348277
7.760356000000002,5.918237634337729,0.06932626826309918
7.764944,5.909857396353651,0.0687445461791648
7.769528000000001,5.9022544081030786,0.06816819242791936
7.774111999999999,5.897349723195445,0.06758188566532858
7.778704000000001,5.89232285357367,0.06700519108438063
7.783296,5.885252745628305,0.06644798455882668
7.787876000000001,5.8780604529687945,0.0659000482020934
7.792463999999999,5.873322094223938,0.0653615038818903
7.797048,5.873080907717318,0.06481119974614924
7.801636000000002,5.873250416801766,0.06428948237273564
7.806228000000001,5.875751675086718,0.06378393343924936
7.81082,5.884671159219352,0.06325511490671992
7.8154080000000015,5.89964231505723,0.06272366527726894
7.82,5.917966839257407,0.062203560660397915
7.824576,5.942587404591119,0.06167390890247039
7.829180000000001,5.970439153572987,0.06116202826505252
7.833756000000001,6.005242008707746,0.060651245736462925
7.838348,6.040577744147716,0.060164825608441795
7.842932000000001,6.0801662823976335,0.05969037240468403
7.847532000000001,6.126173046495231,0.059200064392037205
7.852119999999999,6.176554798116923,0.05871827804466969
7.856704000000001,6.230656472243352,0.05822932309477029
7.861295999999999,6.28619046112264,0.05776578580303894
7.865888000000002,6.345444372506663,0.057299138425467994
7.870476,6.410339260004866,0.05682288978864955
7.875067999999999,6.48050856947481,0.056350818746448886
7.879656000000001,6.549534075068816,0.05589878097807635
7.884247999999999,6.617293592072735,0.055475120628863166
7.888832000000001,6.686074728238448,0.055053854776844144
7.893423999999999,6.752568256652283,0.05466203733540115
7.898016000000002,6.817385100884969,0.054270578669762114
7.902592000000002,6.8801587067940675,0.05390028578276411
7.907176,6.944853366312607,0.05352862673574536
7.911764000000002,7.007871341649996,0.053160288484648814
7.916356,7.064471091139706,0.0528092616130289
7.920943999999999,7.116573668391176,0.05246439381312581
7.925532,7.164423442832698,0.05211495597696557
7.930119999999999,7.211740336969009,0.051751685066143055
7.934712000000001,7.250062886628841,0.051395630582609285
7.939288000000001,7.280945591279199,0.051057160411988364
7.943888000000001,7.302467397310641,0.05074312974929564
7.94848,7.317326608066113,0.05045072399196084
7.953084,7.323846539364461,0.050172984836961504
7.957671999999999,7.322027191205688,0.04991113650728359
7.962271999999999,7.306227587475615,0.04967712284135638
7.966856,7.284254127326151,0.049438465622361795
7.971451999999999,7.259460179119598,0.04920505155254706
7.976044000000002,7.227470755331863,0.04897150654381262
7.980644000000002,7.185876063496922,0.04876838811402864
7.985236,7.142071807175618,0.048539344819241236
7.989827999999999,7.096224312530729,0.048320724904979274
7.994403999999999,7.045879645647599,0.048100092132430564
7.998999999999999,6.986174080145553,0.047896402022302755
8.003596000000002,6.917640496329805,0.0477276577526881
8.008184,6.846697120048031,0.04758824930202498
8.012764,6.773954874870962,0.04744513577343985
8.017344000000001,6.697003968332575,0.04733042131286355
8.021932,6.613023912375776,0.04725149801116032
8.026524000000002,6.533418843943071,0.047176396054598974
8.031108,6.455612644405663,0.04709925166660912
8.035696000000002,6.378050814296547,0.047006508680659614
8.040284,6.2991008108832,0.046940516129643804
8.044872000000002,6.2237485452604435,0.04687405439043272
8.049451999999999,6.149828594390546,0.04682666287559912
8.054044000000001,6.0811830654923895,0.04678516449476137
8.058632,6.012170982451797,0.04676165174515361
8.063216,5.944835583592353,0.046744391025457695
8.067808,5.880975737809355,0.04673365704542737
8.072396000000001,5.817115892026358,0.04672406493014563
8.076988,5.757386664339162,0.04673441883576138
8.081568,5.694836948594878,0.04675072838212934
8.086168,5.635640601212893,0.04678086000280941
8.090748000000001,5.582862479678591,0.04680453531931226
8.095336,5.531883227039582,0.04683159162572018
8.099920000000001,5.480126724667072,0.04685326613687563
8.104512,5.42788148343798,0.04690590888092494
8.109104000000002,5.3796005341419155,0.04693556671466266
8.113696000000001,5.334262257617086,0.04695164202849004
8.118284,5.287247296911107,0.04695743805460352
8.122876000000002,5.240232336205127,0.04696178875962133
8.127464,5.193750255804357,0.04698968578705557
8.13206,5.152498455926702,0.04697031949075168
8.136648000000001,5.10752673354431,0.0469584248835295
8.14124,5.063043750018499,0.046911800831090575
8.145828000000002,5.018682951206835,0.0468556905702834
8.150416,4.969458426014494,0.04682459894170909
8.155000000000001,4.913693490260328,0.046810181371899996
8.159588,4.854985881734926,0.04681448019217204
8.164172,4.802940868485497,0.046792465524221886
8.168764,4.745377063836035,0.04677882217125626
8.173348,4.689612128081867,0.0467651983700468
8.177948,4.629227835375315,0.04676060538745944
8.182535999999999,4.561403697659291,0.046772885188433894
8.187135999999999,4.495744982980996,0.046758267995076236
8.191732000000002,4.4322516913404355,0.04671307569012453
8.196316,4.36888058441402,0.04666126159510779
8.200924,4.298602512783343,0.046659003847027564
8.205524,4.228568810580955,0.046632566106387864
8.210128000000001,4.1526497628360985,0.04664594576823696
8.21472,4.0737880423200075,0.04668015968580324
8.219316,3.991328584013325,0.04671860786799522
8.223892,3.904005399325966,0.04678282964644051
8.228492,3.8188476376763396,0.04681128177973654
8.233068,3.725761292160657,0.04690961965994167
8.237668,3.626789601102504,0.047065620631439944
8.242252,3.531782201977379,0.047198421950581784
8.246836000000002,3.43971747562349,0.04731643098215994
8.251432000000001,3.3499403570214783,0.0473822854981301
8.256015999999999,3.2506801550864055,0.04750611709400387
8.260604,3.1479444000748873,0.04762551482808178
8.2652,3.0453308297775146,0.047726525998609354
8.269784000000001,2.9429616289084337,0.04779861052161386
8.27438,2.841614047201146,0.04786269674846884
8.278967999999999,2.738345411884416,0.04793936164501196
8.283556,2.633932972691748,0.04803990198636469
8.288148,2.5316859565368124,0.04807996496557676
8.292736000000001,2.4352021012102005,0.04808679937688652
8.297332,2.334876138664707,0.04811557119103228
8.301919999999999,2.2394139024998885,0.048091409246073975
8.306508000000001,2.144196035763362,0.048019963381983874
8.311091999999999,2.0508992226362768,0.04792904620316909
8.31568,1.953760302290309,0.04789961771582037
8.320284000000001,1.8593196852872846,0.04781986114319817
8.324872,1.7725632827220261,0.0476532412183465
8.329456,1.689893356803941,0.04738316528637839
8.334052,1.6102882883712366,0.046977572597855184
8.338648,1.5324820888338277,0.046548725290714174
8.343252,1.453654270134626,0.04607134727823839
8.347844000000002,1.3796901778161001,0.04361961942103602
8.352444000000002,1.313943180240551,0.0411637868133888
8.357036,1.2481961826650014,0.03872716929258454
8.361632,1.1811831964993673,0.036310447600681264
8.366220000000002,1.1168685136766765,0.03389268407060449
8.370820000000002,1.0524316461398402,0.03147395365477853
8.375408,0.9878725938888581,0.029054374690867014
8.380008,0.919227064990702,0.026685523156790254
8.384588,0.8505815360925457,0.024317349905499542
8.389184,0.7863109947184832,0.021951811064450082
8.393768000000001,0.7226955183637771,0.019616872636234378
8.39836,0.6615339759237231,0.017317442240235018
8.402964,0.6048696057219085,0.01502519779097843
8.407556,0.5565445149772158,0.012671937394988037
8.412144000000001,0.5059318164806446,0.010397699270941509
8.416736,0.45813960604116283,0.008168013914827098
8.421327999999999,0.41496675255406595,0.0059939649533425
8.425920000000001,0.36938410660094506,0.003954158550949839
8.430508,0.32662194870491335,0.001935909004453645
8.435100000000002,0.28643590943767955,0.0
8.439692,0.2516464768563328,0.0
8.44428,0.21673485956084046,0.0
8.448872000000001,0.1834999264464981,0.0
8.453451999999999,0.15782702305577556,0.0
8.458044000000001,0.13599622688393578,0.0
8.46264,0.12467013320695074,0.0
8.467227999999999,0.11514290842526138,0.0
8.471824000000002,0.112278278919544,0.0
8.476412,0.10749259580438526,0.0
8.481000000000002,0.10654901990810925,0.0
8.485596000000001,0.10956973594486168,0.0
8.490196000000001,0.10976996392452484,0.0
8.494788,0.1071497038470988,0.0
8.499368,0.10645049737911415,0.0
8.503972000000001,0.1075501598064252,0.0
8.50856,0.10444116087241648,0.0
8.513155999999999,0.09941578148068625,0.0
8.517744,0.09733307486019092,0.0
8.522344,0.09512818352554993,0.0
8.526928000000002,0.09382272663855679,0.0
