Time,Force,Position
4.177584,1.1183360596946428,0.02742840782129579
4.182176,1.0439273699681624,0.0253505188680761
4.186767999999999,0.9770807099653018,0.02327554898871026
4.191364,0.916652275810122,0.02120402694840629
4.195943999999999,0.8580227105502376,0.019124891298785047
4.200536,0.795062299214888,0.017108515170744104
4.205128,0.733123507041332,0.015058203298507317
4.209724,0.6759262565343064,0.012973353686227549
4.214312,0.6225711132461635,0.010873233768279903
4.218912,0.5687272311014384,0.008851984877764157
4.223495999999999,0.5191361517666611,0.006899354222107438
4.228092,0.46995576802294875,0.005038735736787187
4.232683999999999,0.42425093735568215,0.0032581082683058706
4.23728,0.3836983439460113,0.0015983974411565886
4.241868,0.3401908581387175,0.0
4.246464,0.30064766426445216,0.0
4.251059999999999,0.2625367851430454,0.0
4.255659999999999,0.22892307825987798,0.0
4.260247999999999,0.19416556750077138,0.0
4.264844,0.16198417537046264,0.0
4.269435999999999,0.13556594406847808,0.0
4.27402,0.11803209215521439,0.0
4.278608,0.10115330526130717,0.0
4.283192,0.0870950064244892,0.0
4.287787999999999,0.07585719564476043,0.0
4.292375999999999,0.07013817626506447,0.0
4.296975999999999,0.07141440448688811,0.0
4.301563999999999,0.07817552229185518,0.0
4.306156,0.08613482505312836,0.0
4.310744,0.10526413496035153,0.0
4.315332,0.13327584426164638,0.0
4.319924,0.1722131912805999,0.007992212199493517
4.324503999999999,0.22285342575071423,0.015628215171122367
4.329091999999999,0.28531873238613514,0.023033955656957115
4.333688,0.36244181887033977,0.030300314475242732
4.338279999999999,0.4503683583580575,0.03749230371180423
4.342884,0.5501199700110817,0.044556724980957266
4.347472,0.6568329274487361,0.05178751123621349
4.352067999999999,0.7724282842804622,0.059063456840086015
4.356643999999999,0.8958844213444663,0.06643574725130844
4.361243999999999,1.0282229578025424,0.07383798596553051
4.365831999999999,1.1633800023230583,0.08134475919928605
4.370428,1.303821708447054,0.08896581190078919
4.375019999999999,1.452124194803328,0.09656782879399038
4.379616,1.6122517533249088,0.10406425713630334
4.384204,1.7839158731348765,0.11146400007682347
4.3888,1.9600771651830833,0.11876697619352465
4.393395999999999,2.1372159349444555,0.12599284707184805
4.397995999999999,2.3178980614160523,0.13306675472700175
4.402583999999999,2.4893312343511407,0.14015427694749039
4.40718,2.651593497015237,0.147208787665441
4.411768,2.800720557475315,0.14633061968661795
4.416356,2.9337697429601373,0.14590749174773426
4.420944,3.053805910955087,0.14570353794420274
4.42554,3.162505745641312,0.1456045281965282
4.430128,3.258969812571166,0.1455828756275501
4.434716,3.3430759270305024,0.14566846935840214
4.439311999999999,3.4236521073330257,0.14543360397111835
4.443887999999999,3.495956811812206,0.14508294042248301
4.44848,3.5590906060203955,0.1446228455736263
4.453068,3.6130534899575935,0.14408362078442258
4.457656,3.660177212824307,0.1434188672759855
4.462263999999999,3.6976412865634467,0.1427130616752488
4.466856,3.724013396422154,0.14201272731133027
4.471444,3.7344298160197518,0.14148764324075155
4.476035999999999,3.7324882831468327,0.14103059296170076
4.480635999999999,3.7222413726336816,0.1406482826037697
4.485232,3.7078197025760997,0.14026009209456333
4.4898240000000005,3.684814383633104,0.14013152879733423
4.494415999999999,3.6631972379943396,0.13992021393451032
4.498996,3.6437896568419355,0.1396961149865767
4.503596,3.629778682375419,0.13933806077716251
4.508175999999999,3.621164314594789,0.13884460225648668
4.512772,3.6115724691009943,0.13846557720205518
4.517367999999999,3.602924199503475,0.13814312335150966
4.52196,3.5973849288399644,0.1377877053973367
4.526539999999999,3.5939330379486694,0.13743776155680087
4.531136,3.587704800448913,0.13724910790873301
4.535724,3.583197388578935,0.13710928174833942
4.540315999999999,3.5864183325953505,0.1368231946053762
4.544903999999999,3.5903384830797513,0.13662117329347462
4.549488,3.5972454477840143,0.13640759069200248
4.554076,3.6131467569647566,0.13599245186873982
4.558676,3.632934314813009,0.13554868079957563
4.563264,3.6576297404905667,0.13502997971112465
4.56786,3.68494542624555,0.13454225952162274
4.572455999999999,3.715370110934542,0.13403591749014643
4.577043999999999,3.7412195801197767,0.1337171648210872
4.581636,3.7775737517998667,0.13311707588014837
4.586224,3.8126619348898716,0.1325861239394694
4.590819999999999,3.8452961840652238,0.1320932895600483
4.595412,3.8751099451834876,0.13167953836909616
4.6,3.904923706301751,0.1312730357502979
4.604595999999999,3.9420109862667148,0.13063271470085544
4.609183999999999,3.977910320907111,0.12996224634811593
4.613771999999999,4.012255156080503,0.1293097738298271
4.618368,4.042469373158093,0.1287082423659179
4.622952,4.072272894644617,0.12807526058723098
4.627556,4.099989036358927,0.12743989203038966
4.632144,4.115768160825524,0.12707474274589167
4.636744,4.134445816614727,0.12656343727066394
4.641323999999999,4.153856580688804,0.1259888527013305
4.645923999999999,4.166971303629346,0.12554613565462883
4.650511999999999,4.178775896531175,0.12509429124256383
4.655111999999999,4.194666966080178,0.12453815613497542
4.659696,4.207693406123464,0.12397381524905077
4.664287999999999,4.217488662518595,0.12344130650556262
4.668875999999999,4.232758568865131,0.122729120096615
4.673468,4.238545391878605,0.12223338514921749
4.678056,4.246375453215668,0.1216858674942485
4.682651999999999,4.256781633181528,0.12110664090131885
4.687239999999999,4.270008301204476,0.12047274236548361
4.691836,4.285278207551013,0.11979486354680735
4.696427999999999,4.2947849530692235,0.11924934944411543
4.701015999999999,4.308133805806317,0.11862929991819511
4.705603999999999,4.320461039381619,0.11803381516904585
4.7102,4.33560876101401,0.11738026734951383
4.714791999999999,4.3503899285039624,0.11676195262115074
4.719379999999999,4.36504891127977,0.11615685715917644
4.723972,4.385471054883902,0.11541896783834502
4.728551999999999,4.401806721840859,0.11479383875405859
4.733143999999999,4.414833161884144,0.11427553798786835
4.737739999999999,4.431701709146313,0.11368405212255174
4.742327999999999,4.44832588698019,0.11312108888294108
4.746932000000001,4.4593090886998885,0.11266887999088189
4.751519999999999,4.476221777410686,0.11216375030816132
4.7561040000000006,4.494811150302632,0.11164544893753688
4.760708000000001,4.514832837947437,0.11114701432897024
4.765295999999999,4.54049550170642,0.11055282176140273
4.769887999999998,4.566158165465404,0.10996910928978193
4.774467999999999,4.588100906719651,0.10944580856979665
4.779071999999999,4.608899844097959,0.10896196685738536
4.783660000000001,4.627655543152681,0.10853091917872203
4.788260000000001,4.648987360836197,0.10807734893462045
4.792839999999998,4.669053189929631,0.10767613681570211
4.797439999999998,4.69627035315562,0.10713624673617854
4.802019999999999,4.727207438886345,0.10655328240852638
4.806615999999998,4.76067650179724,0.10589511692265807
4.811212000000001,4.794512118850571,0.10521097775493242
4.815804,4.831168223960993,0.10449613192518756
4.820391999999998,4.868723763519062,0.10377071341436216
4.824984000000001,4.904846988324272,0.10303255966920696
4.829571999999999,4.938149725072393,0.10234580254728898
4.834156,4.97157464653466,0.10165554229216225
4.838732,5.006143371872866,0.10093693127528554
4.843323999999999,5.038746902153003,0.10020763707771649
4.847908,5.073638040185017,0.09943361977991746
4.852488000000001,5.1036213103877275,0.0986854324329916
4.857071999999999,5.132050081123433,0.0979479549350024
4.861656,5.157003298782693,0.0972396573509708
4.866247999999999,5.185021373927334,0.09647706242761446
4.870840000000001,5.211729319033262,0.09569700604672038
4.875423999999999,5.23508389577689,0.09493178873975563
4.880016000000001,5.256473277462449,0.09414126140382006
4.884599999999999,5.274631475499852,0.09335916154419112
4.889192000000001,5.281141167166463,0.09274420541772226
4.893792000000001,5.2841753057566265,0.09215827378358078
4.898375999999999,5.28246790268026,0.09163008118388305
4.902975999999999,5.280638314889748,0.0911116810963261
4.907556,5.279053096527527,0.09058119522131472
4.912156,5.278733866755391,0.09001796175096474
4.916744000000001,5.283522732792223,0.08937686056442973
4.921344000000001,5.2875343490955515,0.08873388646318683
4.925936,5.288070412322436,0.08810874965207437
4.930532,5.286685421939879,0.08750503943653859
4.935108,5.280314520462499,0.0869709720237351
4.939703999999999,5.268835523176152,0.08651566021730916
4.944299999999998,5.259688275090314,0.08606585454649278
4.948896000000001,5.249519407842679,0.08563163927443446
4.953484,5.243969897547429,0.08515711170586264
4.958068000000001,5.237765322232823,0.08467221941123702
4.962655999999999,5.234136865547015,0.08417864202116915
4.9672519999999984,5.23602720026124,0.0836410472518389
4.97184,5.237306611404736,0.08314593077339251
4.976420000000001,5.242838825358182,0.08264076206589012
4.981012,5.253889830711659,0.08208613742982883
4.985599999999998,5.2635526627609055,0.08157240132072653
4.990192,5.280410970391336,0.08101630547594697
4.994775999999998,5.299845396650563,0.08045725439511911
4.999364,5.314948976834326,0.07997561655920281
5.003972000000001,5.332750860361031,0.0794855712817651
5.008559999999999,5.345078093936332,0.07909194930902524
5.013168,5.3616581303215805,0.07869304689072147
5.017759999999999,5.383634773392717,0.07826620731630275
5.022364,5.412806892045035,0.07780544632518334
5.026955999999998,5.449296670992683,0.07730252058616688
5.031544,5.487707503549772,0.07677997016894017
5.03614,5.528694454735658,0.07625924044541066
5.040716,5.571235905388549,0.07575065723194957
5.045307999999999,5.611611933003707,0.07528361589181368
5.049896,5.655996394000523,0.07483586693690782
5.054492,5.700258670283192,0.07440373235591739
5.059076000000001,5.743254957975776,0.07400764169328919
5.063676000000001,5.792014406496685,0.0735710692084636
5.068259999999999,5.841018224445883,0.07312947878958329
5.072855999999998,5.896929007099347,0.07263570708328956
5.077444,5.95986893917122,0.07208148849025002
5.082039999999999,6.01614627596712,0.07158106034401567
5.086628000000001,6.069725309420076,0.07109741789662956
5.091224,6.125714135339057,0.07057210979150463
5.095811999999999,6.177860854039154,0.07008380817670669
5.100396,6.233316799652924,0.06955004270873423
5.104976000000001,6.283742692723243,0.0690197718780416
5.109567999999999,6.333391336060061,0.06849537848567466
5.114163999999999,6.376988307691635,0.06798655311296543
5.118756000000001,6.413267619027879,0.06751268861865926
5.123352000000001,6.453100526706087,0.06698833857542512
5.127932000000001,6.484183459336109,0.06647751704967336
5.132528000000001,6.51305682747977,0.06595013678477302
5.137108000000001,6.537677392813483,0.06542085941063117
5.141696,6.553547983099008,0.06490461612172924
5.1463,6.564021966698647,0.06440291122492202
5.150880000000001,6.570365332202483,0.0638927745917781
5.155463999999999,6.56939103741099,0.0634110620454163
5.160056000000001,6.563020135933612,0.06294351980868718
5.164635999999998,6.546266716675523,0.06252908197286809
5.169228,6.518109160474932,0.062172882087939356
5.173811999999998,6.49248358145451,0.06176922171324381
5.1784,6.465303502967084,0.06135351895801905
5.182984000000001,6.4374683594603015,0.06092435298208237
5.187584000000001,6.408978150934163,0.060481472976334286
5.192163999999998,6.378689073512729,0.06004022279220271
5.196756000000001,6.347256192215355,0.05961014504654196
5.2013560000000005,6.313780072594395,0.05919639565257067
5.205947999999999,6.2812033874210815,0.058778399895622904
5.210532000000001,6.251569375019003,0.0583392087189328
5.215128,6.221324439046198,0.05793443847164497
5.219712000000001,6.198274978654574,0.05751577601615459
5.224304,6.176535648301663,0.057120556550585476
5.228884000000001,6.160192924634639,0.05671615289507886
5.233476,6.150146242101151,0.056301389804501625
5.238063999999998,6.1484388390247835,0.0558635434690303
5.242664000000001,6.151883673206013,0.05543307378418257
5.247252,6.161502363806633,0.055003272994061755
5.251839999999998,6.175251672503053,0.05458884077066333
5.256432,6.196318641494802,0.054161176505376996
5.261019999999999,6.225724889943675,0.0537109039517632
5.265595999999999,6.253498595660025,0.05330342189490688
5.270195999999999,6.28474785445282,0.0529018955789661
5.274784,6.315264004960742,0.0525427994079931
5.279388000000001,6.34811190466917,0.052203959458429844
5.28398,6.382514303844602,0.05187949238844537
5.288575999999999,6.422435494420068,0.05154677116876537
5.293175999999999,6.459658381652589,0.05121621121916215
5.297751999999999,6.496392530028527,0.05091397982055893
5.302347999999999,6.531860689814381,0.05063386495061654
5.306936,6.558867385428967,0.050377833472628426
5.311532,6.584974646595906,0.05012529171000498
5.316112,6.611204092476989,0.049867864831244314
5.320708,6.634490865586837,0.04962613654817917
5.325299999999999,6.656878204249039,0.04938738901933419
5.329895999999998,6.67170351318762,0.04917175440726512
5.334475999999999,6.679211161830873,0.048963972326163896
5.33906,6.680300584626445,0.04876428163274407
5.343640000000001,6.676770650469632,0.04857147550547486
5.348236,6.664779252141551,0.04839868515670241
5.352820000000001,6.644204204928058,0.0482516437171964
5.357408,6.624772961590502,0.04809099717102634
5.361992000000001,6.602276860767567,0.047949600517428415
5.366584,6.573240349382807,0.04782065263267209
5.371179999999999,6.5368861777027165,0.04769757878965888
5.375755999999999,6.497467148537247,0.04759386560976507
5.380355999999999,6.449342285772219,0.04752267350946987
5.384931999999999,6.399051999969456,0.04747036263963195
5.389520000000001,6.341566238585511,0.047417560294116236
5.394123999999998,6.28228160830627,0.04736318038976103
5.398712,6.226839085245913,0.04729309236803638
5.403296000000001,6.164611782195437,0.04724877280654411
5.407888,6.092001961364252,0.04723169109832003
5.412483999999999,6.0164494677618325,0.047228679821563875
5.417088,5.934234378883442,0.047244074133539586
5.421675999999998,5.850098236395609,0.04726573806547961
5.426272000000001,5.768538212536574,0.047294149204150794
5.430859999999999,5.681337212563361,0.047337614763516
5.435455999999999,5.590538474799556,0.047381337439244
5.440044,5.499617552321605,0.0474348367309455
5.44464,5.4077971953960065,0.04749209215187461
5.449227999999998,5.310213677642084,0.047572707698796485
5.453824000000001,5.20735573791642,0.047644173301579766
5.458416,5.107684840390281,0.047683105416150964
5.463007999999999,5.00813612757829,0.04771226353749347
5.467596,4.905356231118144,0.04771287039222584
5.472187999999999,4.8039645079622275,0.04767721909759681
5.476779999999998,4.702572784806312,0.04764440008206508
5.481376000000001,4.607843656926368,0.04757822417110785
5.485952000000001,4.510171856275189,0.047528701373907155
5.490544,4.409313013424484,0.04751615280002427
5.495131999999998,4.309475789735572,0.047495312798182684
5.499731999999998,4.2143801077131915,0.04745824282881794
5.504315999999999,4.116708307062012,0.04741109991359798
5.508907999999998,4.019813756144336,0.047375856076201664
5.5135000000000005,3.919077098007776,0.04736642244598586
5.518087999999999,3.8118000293093903,0.04738571106456849
5.522672,3.708242883115742,0.04739688374393976
5.527256000000001,3.6084056594268303,0.04739250879509681
5.531844,3.5086906204520645,0.04737869860001085
5.536439999999999,3.415638176753271,0.04732268568320066
5.541028000000001,3.323729536930416,0.04723820372658728
5.545611999999998,3.2342748310222134,0.04717856292213398
5.550204000000001,3.145475190133368,0.0471379470126594
5.554791999999999,3.057452798978024,0.04710604285288318
5.559391999999999,2.9689416689660977,0.047132439880145954
5.563967999999999,2.8810856039735278,0.047181127846448186
5.568563999999999,2.794373342856897,0.04719878791064091
5.573143999999999,2.702552985931299,0.047292541953597465
5.577743999999999,2.609955379272199,0.04737790408737295
5.582328,2.5149038386984457,0.047442312699514606
5.586919999999999,2.4190750483911905,0.04748117296791679
5.591508000000001,2.3252894964075224,0.047463838459216125
5.5961,2.2324033788715023,0.04744277905545622
5.600695999999999,2.135919523544891,0.047433957134173504
5.605291999999999,2.0431555907230172,0.04743275499948032
5.609884000000001,1.956032634015321,0.04740166977017589
5.614476,1.8707085462029207,0.04736900750665794
5.619063999999998,1.7815423511716377,0.04739643176740997
5.623647999999999,1.6933977753021483,0.04500791622304739
5.628236000000001,1.601411092213776,0.04265204638488448
5.632828,1.5082806052494648,0.04031461313602328
5.637412000000001,1.4114301957804163,0.03796165496992534
5.641991999999998,1.3127809174160723,0.03560975662821917
5.64658,1.2136429001951456,0.03325973728478581
5.651167999999998,1.1174475557454535,0.030873254420880313
5.655752,1.0212522112957616,0.0284872079215149
5.660343999999999,0.9278773549031587,0.026122513310848347
5.664932,0.8333803768251181,0.023715573092521237
5.669532,0.7451794398806123,0.021308069647307193
5.674123999999999,0.6641739785172895,0.01889981530755356
5.678699999999999,0.5884429391257081,0.016518556405079023
5.683295999999999,0.515165833648779,0.014195017282086561
5.687871999999999,0.4472853348577369,0.011877481392879561
5.692471999999999,0.3876219308096712,0.009536092843113898
5.697051999999999,0.33257788371399033,0.00716152030032518
5.701647999999999,0.2802321399612531,0.0047882095144604255
5.706243999999998,0.23058469955145944,0.0024162976367160605
5.7108360000000005,0.1873554849893464,0.0
5.715416000000001,0.147601823503679,0.0
5.7200120000000005,0.11144589980860309,0.0
5.724608,0.08080876751355995,0.0
5.729203999999999,0.05761148022799094,0.0
5.733799999999999,0.0389113651806612,0.0
5.738392000000001,0.025197161228153405,0.0
5.742979999999999,0.014181260618589164,0.0
5.747568000000001,0.006763097799616328,0.0
5.752151999999999,0.0,0.0
5.756751999999999,0.0,0.0
5.761340000000001,0.0,0.0
