Time,Force,Position
4.841396,1.124563843886001,0.03323752118073097
4.845992000000001,1.048067774387305,0.030655909576779508
4.850580000000001,0.971449520174464,0.02809047615521263
4.855176,0.8987955578946513,0.025487292593781123
4.859764,0.8284733448153451,0.022899229128298927
4.864352,0.7600721853454802,0.020299810487158926
4.868956000000001,0.6908937761421132,0.017692899365382656
4.873532000000001,0.6215931822246005,0.015142623956601948
4.878128,0.559732433316562,0.012550612860981272
4.882704,0.49636132639014724,0.010018082466745301
4.887304,0.4364657725401782,0.00751188810341988
4.8918800000000005,0.3769809142812743,0.0050723483668453796
4.896476,0.3221989504020919,0.002590524740797441
4.901059999999999,0.27665570042767945,0.0
4.9056560000000005,0.23744713887361096,0.0
4.910247999999999,0.20077604866153134,0.0
4.91484,0.1674583268117518,0.0
4.919428,0.1403531086681706,0.0
4.924023999999999,0.11708999774347216,0.0
4.9286080000000005,0.09550357099992374,0.0
4.933199999999999,0.07579955057900763,0.0
4.937792,0.05867164878688937,0.0
4.942387999999999,0.045141484785362555,0.0
4.946975999999999,0.03795624883591853,0.0
4.951568,0.03895420581256147,0.0
4.956160000000001,0.05141068081207391,0.0
4.96074,0.07393750053022534,0.0
4.965332,0.10305911189056997,0.0
4.96992,0.13746538485439488,0.0
4.974496,0.18238659994481324,0.009326268242564315
4.979092,0.23181522690520967,0.01894094548759051
4.98368,0.29151442656390825,0.02819366974957998
4.988268,0.36217791122707454,0.03705446678432407
4.992864000000001,0.44209034942674946,0.04569119862250747
4.99746,0.5282704211048891,0.05434053085624587
5.002068,0.626802951091727,0.06262690586674828
5.006648,0.7339293695957171,0.0707926561680482
5.011252000000001,0.8448694876635197,0.07911279857058584
5.015836,0.9633818750866806,0.08736691652078199
5.020436,1.0906103357411396,0.0955004630713651
5.025024,1.229291820256649,0.10345577445369816
5.029624,1.3786104316128975,0.11123953578397422
5.034212,1.5354571708758766,0.11892497492688506
5.038812,1.6931985991165834,0.1265186361791717
5.043396,1.8427568344312035,0.13420503372224207
5.047988,1.9802014867035977,0.1419605391498324
5.052576,2.1111293905993165,0.14960634124028369
5.057168000000001,2.2332529383664808,0.15728607229402405
5.061768000000001,2.3454283261291518,0.16493336252248308
5.06636,2.453829410306719,0.16302232346628642
5.07094,2.5600106903661866,0.16069691957745696
5.075532000000001,2.6538340179551367,0.15879516678412137
5.080112,2.735055023645278,0.1573377877043345
5.084692,2.8039180768649015,0.15615278026046572
5.089283999999999,2.8649203498522473,0.15494925797721412
5.093871999999999,2.912587192655911,0.15418932278783115
5.098471999999999,2.9499834627612715,0.15359501612933735
5.1030560000000005,2.9837717554443026,0.15279563069785193
5.107647999999999,3.009743409343683,0.15208096518498823
5.112235999999999,3.026754620583475,0.15152435641133255
5.116820000000001,3.032107085820734,0.1512161632621138
5.121432,3.028376923684258,0.15105223613863783
5.1260200000000005,3.020472002003351,0.15089719136212418
5.1306080000000005,3.009458081388436,0.15079069802161496
5.135192,3.0026969635834684,0.15057268411641536
5.139784000000001,3.006362505007839,0.15005761920041047
5.144375999999999,3.015224425138433,0.1495104373846039
5.148963999999999,3.0313259622988378,0.14883613643129895
5.153563999999999,3.0514800742895276,0.14818375971026568
5.158151999999999,3.0680025466727368,0.14784753795730557
5.162751999999999,3.081626487733339,0.14771510088300252
5.167336000000001,3.1027344152520433,0.14742949587362295
5.1719360000000005,3.1304268947812033,0.14701907456944782
5.176527999999999,3.1669134908071777,0.14647585880937744
5.18112,3.2079414005200193,0.14590123135390165
5.185703999999999,3.25207830916687,0.14527304218081083
5.190296,3.3020225200906723,0.14453657024573288
5.194884,3.3531546763390425,0.14384351571054363
5.199479999999999,3.405596962626125,0.14315806504982462
5.204064000000001,3.459593748380213,0.14244785755510941
5.208652000000001,3.519886575267835,0.14157530024234946
5.213240000000001,3.5800572174413117,0.1407300838741416
5.217836,3.637529556271845,0.13998070031270907
5.222424,3.692836472064645,0.13932559758772745
5.227016000000001,3.751574799485263,0.13855129685852358
5.231608,3.802096032162905,0.13803572048981508
5.236196,3.8463212237070117,0.1376930457662274
5.240788,3.8873152316029644,0.1374124798086689
5.245376,3.9259774902984104,0.13715488865244674
5.249964,3.965739411421167,0.13676996412770606
5.254572,4.006356625542943,0.13628249314876645
5.25916,4.0393676684924715,0.13593510653094792
5.26376,4.067593028326842,0.13565356091930597
5.268348,4.086002652502603,0.13551313397452347
5.27294,4.100359701848079,0.1353518973301007
5.277536,4.114139729439716,0.135099421627222
5.282132000000001,4.124522247220425,0.1348337250140646
5.28674,4.130607820742558,0.13456661825234253
5.29134,4.136238557224998,0.13419651005398925
5.2959320000000005,4.143091140848894,0.13370252113393397
5.300523999999999,4.143847911318919,0.13324754713484804
5.3051200000000005,4.144027660035104,0.13270509323096064
5.309696000000001,4.143508202283305,0.13208591243970616
5.314292,4.144210591672963,0.13134155284937266
5.31888,4.136040821300289,0.13076290413594271
5.32348,4.127460355336548,0.1301487417264921
5.328060000000001,4.118713563210034,0.12947333767954558
5.332652,4.10661340272122,0.12884063286470132
5.337244,4.0921814930319,0.1282203524840945
5.341836000000001,4.075051279999634,0.12765150825272667
5.34642,4.060086490005103,0.12700860367609826
5.351016,4.05129555642996,0.1262553615822771
5.355604,4.044547861178406,0.12544238991796075
5.360196,4.047938314279269,0.12442071912489523
5.364784,4.050595659095257,0.12347178783691842
5.369376000000001,4.054685318664104,0.12253393015316938
5.37396,4.058819119681579,0.12167028086279466
5.378548,4.067494234385921,0.12079673224132041
5.383144,4.080177782471921,0.11990840558482986
5.38772,4.088286115054163,0.11918127949369277
5.392308,4.0991368924279765,0.11848026191039703
5.396903999999999,4.1090101920886255,0.11787818805642042
5.401491999999999,4.1216259365408465,0.1173065492237483
5.406088,4.1331420185657555,0.1168431799147563
5.4106760000000005,4.148666533972321,0.11635019131331771
5.415272,4.16832166747469,0.11582268907223747
5.419867999999999,4.191618680216278,0.11530915677360196
5.424464,4.220722995234818,0.11474481740807793
5.429067999999999,4.258943839443983,0.11403978321551811
5.43366,4.303338540072537,0.11325951380151235
5.43826,4.345978513254423,0.11258744298118319
5.442852,4.388618486436308,0.11193405690560966
5.44744,4.429748101599818,0.11135704042538452
5.452028,4.464625817078421,0.11095234550693908
5.456632000000001,4.5051445086712025,0.11045951623885912
5.461216,4.548239318892782,0.10995871601649916
5.465816,4.593499552152093,0.1094112419681505
5.4704,4.641413947305721,0.10878765490318554
5.474996000000001,4.683565181631025,0.1082741867401921
5.479583999999999,4.730702327051151,0.10766443034412096
5.484168,4.778738906918924,0.10705476649311112
5.488759999999999,4.829718159557931,0.10639814594977431
5.493352,4.877099674406348,0.1057901328117642
5.49794,4.930733088939672,0.10506123310218496
5.502532,4.9866541112248735,0.10428354085293765
5.5071200000000005,5.039099580433629,0.10354439407614877
5.511716,5.094077026822554,0.10274775091375885
5.516299999999999,5.148765962334561,0.10193385791694107
5.520887999999999,5.196914487284741,0.10122736308610204
5.5254840000000005,5.24170964387262,0.10055547400702194
5.530060000000001,5.288015158478877,0.09983496417197482
5.534656,5.332766173618129,0.09912576341812923
5.53924,5.381848034832847,0.09833868933193007
5.54382,5.435138557408883,0.0974814217546119
5.548428,5.484953526908474,0.09666760385086579
5.55302,5.528716824702822,0.09590355171230014
5.557608,5.56798295025893,0.09518502898908303
5.562204,5.5986654269296245,0.09457843463463052
5.566788000000001,5.630980446332841,0.09391287096612055
5.571392,5.662762585430847,0.09324124834865251
5.575988000000001,5.692335160042492,0.09256478749736141
5.580591999999999,5.715733878234749,0.09193167983378173
5.585179999999999,5.742319638626531,0.09124605615489699
5.5897760000000005,5.760810488989483,0.09063277655696551
5.594364000000001,5.775947970990135,0.09003596605399301
5.598967999999999,5.797215167961547,0.08935674054629622
5.603555999999999,5.810143085475838,0.0887571453672188
5.608140000000001,5.8194732651995364,0.0881877719808027
5.612736,5.827371130170379,0.0876058487617218
5.6173280000000005,5.831671257350627,0.08704851731571465
5.6219280000000005,5.8333952659020785,0.08650372056634142
5.626524,5.834464209434174,0.08595074971214134
5.631107999999999,5.830791611299738,0.08544676621020292
5.635695999999999,5.820045722298264,0.08498112361477678
5.640276,5.807867518543932,0.08450234202660042
5.644868000000001,5.797610368399043,0.08400276302582063
5.649444000000001,5.790418075739533,0.08346192349376007
5.654032000000001,5.791032182231934,0.08283829462049282
5.658616,5.791524104010191,0.08222383327331363
5.663195999999999,5.789439907159647,0.08161931499025199
5.667788,5.787600079737396,0.08100011939565467
5.672371999999999,5.791523413143469,0.08032665829933126
5.676952,5.7926262584924535,0.07967791895472463
5.681559999999999,5.796305222470236,0.07902065940175079
5.686147999999999,5.799495447591434,0.07839372494318074
5.690735999999999,5.795778708008372,0.07784206583697756
5.695328,5.797702944539486,0.07724652815303829
5.699916,5.800404430804103,0.07665440568155477
5.704516,5.804660416535723,0.07606807721262739
5.709096000000001,5.81353575921973,0.07545261033493006
5.713692,5.824987220532533,0.07483483090928934
5.71828,5.835050508541104,0.07425273081556374
5.72288,5.845891046283181,0.073674504786733
5.727464,5.862905440444645,0.07307634742708155
5.732063999999999,5.880086160768884,0.07252141007002767
5.736648000000001,5.898044130826625,0.07197356260861763
5.74124,5.916657165903722,0.07144274340279512
5.745832,5.934781462124237,0.07095186397744942
5.750424000000001,5.955481876973549,0.07046274145467037
5.755016,5.979169106042724,0.07000113131201527
5.759608,6.002123226827025,0.06958599010270479
5.764196,6.026631847078331,0.06918630492100138
5.768788000000001,6.055637639567877,0.06877557253604799
5.773376000000001,6.089140604295661,0.06835613526965259
5.777956,6.1255862417946805,0.06791624037879665
5.782552000000001,6.165751801798436,0.067460156905961
5.787144,6.204773557926252,0.06702683098083786
5.791727999999999,6.246493617397014,0.06659084332744518
5.796315999999999,6.2914007190673,0.06612577571859485
5.800908,6.3370850704710895,0.0656733305622313
5.805496,6.380848368265436,0.06523718744207035
5.810084,6.428453773278668,0.0647814726255455
5.814696,6.4770807974536915,0.06432033353641779
5.819279999999999,6.521987899123978,0.06387976101193936
5.823867999999999,6.569182608546143,0.06341136773221509
5.82846,6.61829837157775,0.06293918251138275
5.833048,6.666514700161708,0.062475005871089034
5.837643999999999,6.706513934002691,0.062036772800036374
5.842236,6.74381486450073,0.061609431807673344
5.846828,6.7795612955317655,0.06117725749929907
5.851407999999999,6.818616953476472,0.06071112993110367
5.856007999999999,6.854319243058878,0.06024561390362824
5.8605920000000005,6.885768729831336,0.059781000656556005
5.865195999999999,6.910022741022613,0.05933263303678924
5.869788,6.9363199905374735,0.058874975807709756
5.874383999999999,6.958897317547598,0.05843095798222722
5.878976,6.979797960376573,0.05798484492287952
5.883568,6.994158192643724,0.05756116557864297
5.888168,7.004309763549553,0.057176401950415116
5.892764,7.007021489445909,0.05681358713711704
5.897352,7.01292025754179,0.05642461347947554
5.901944,7.014321853399433,0.0560423706432389
5.906532,7.0157234492570755,0.055661598272850776
5.911116,7.020189902600099,0.05526051472725763
5.915704,7.020936433438385,0.054870021271803814
5.920296,7.017063607324287,0.05449095726525167
5.924887999999999,7.008449239543657,0.05412694423770059
5.92948,7.005720217305497,0.05373174528746736
5.9340720000000005,6.999026903134308,0.053356214726657525
5.9386600000000005,6.9886136664583836,0.0529888505036303
5.9432480000000005,6.972192899525842,0.05265623568362578
5.947828,6.951563471231982,0.05235498311162405
5.952404,6.926603196862654,0.05209074412721274
5.957012000000001,6.904341225836272,0.05182270156178901
5.961604,6.87451722508627,0.051576384169947316
5.966203999999999,6.844693224336267,0.05132793216365815
5.9708000000000006,6.8158908427480585,0.051070896734588235
5.975388000000001,6.7910527530928775,0.050791113003389274
5.979991999999999,6.763271990666462,0.05052332841497048
5.9845880000000005,6.741132204354225,0.05023843565486122
5.989191999999999,6.710042215014138,0.049998987550173256
5.993772,6.6797294754075525,0.04976341063533873
5.9983640000000005,6.645696813296231,0.04953333266224899
6.002943999999999,6.605534436214148,0.049341040322070234
6.0075400000000005,6.562307201646685,0.049165797270198076
6.012128000000001,6.516792359327343,0.049014691583556286
6.0167280000000005,6.474098005065089,0.048854313993254454
6.021319999999999,6.4289938583368125,0.04872473299634711
6.025912,6.387854003541564,0.04857318286948407
6.0305040000000005,6.347369213765671,0.04843289973880492
6.035095999999999,6.306229358970423,0.048277224701501274
6.0396920000000005,6.26688837307047,0.04812012979544102
6.044276,6.2304900599417525,0.047947781384181216
6.048864,6.188206401270565,0.04780068784819602
6.053456000000001,6.144534569295145,0.04767936849746497
6.058044000000001,6.100862737319726,0.04755543028401219
6.06264,6.0541260478589285,0.04744928691766527
6.067232000000001,6.003302881750956,0.04736805181067425
6.071823999999999,5.95284626978542,0.04726389287468725
6.076408000000001,5.8975259314392074,0.04717812735220321
6.080988,5.847069319473671,0.04706987162184477
6.08558,5.789827927518019,0.04698804954860244
6.090164,5.728622243629336,0.04692563481263117
6.094752,5.661897768340621,0.046870788604868284
6.099356,5.597627226966559,0.04683285743803827
6.103944,5.530658382249552,0.04679567256873604
6.108528,5.458825811151869,0.046780437132191835
6.113123999999999,5.382618252530094,0.04675512863482731
6.117708,5.298726479470552,0.04675874638534429
6.122304,5.2085386652774766,0.046761180378380604
6.126892,5.116307612760814,0.04677719577001597
6.131484,5.020601007167704,0.046781968864056694
6.136063999999999,4.922196098231651,0.0467822920093621
6.140663999999999,4.8257122429050385,0.04677535492079677
6.145251999999999,4.728695507273216,0.04674144438269931
6.149851999999999,4.623994557203629,0.04674239276334416
6.154448,4.51148720798213,0.046798305409431334
6.159039999999999,4.394116132379955,0.04689443402580166
6.163624,4.275723437615985,0.04699396144683944
6.168208,4.155531873956722,0.04709519565015536
6.172796,4.030476583916781,0.04722768938397657
6.177391999999999,3.9093855858098685,0.04733263809958565
6.181972,3.791115075760046,0.04743200482222081
6.18656,3.6805287801479882,0.047486125076743775
6.191144,3.568632354497218,0.047490986789030624
6.195740000000001,3.455958679112945,0.04748566645357203
6.200332,3.3426299387093152,0.04745178495588482
6.20492,3.2262363408203054,0.047461379596666124
6.209516000000001,3.1116416118265913,0.0474813172873935
6.214096,3.0007668053376144,0.04748066784824224
6.218688,2.8888703796868436,0.047501057285522445
6.223272,2.7767295846077813,0.04755601210410825
6.22786,2.661646116757485,0.047649689095630623
6.232455999999999,2.5478286374972727,0.047663792579703504
6.237043999999999,2.432989539075267,0.047686551519573586
6.241631999999999,2.324690851215088,0.047687432182878235
6.246228,2.2213780744497313,0.04763652475683522
6.250819999999999,2.123173393493342,0.04747197497779856
6.255412,2.0228032894992194,0.04738302107504738
6.260004,1.9203899471815102,0.04737419765677763
6.264604,1.8162999206826502,0.044943220639869864
6.269183999999999,1.7092672214125562,0.0425265485948094
6.27378,1.6004356532471662,0.04010940676312063
6.278371999999999,1.4895608467581891,0.03772343268105581
6.282971999999999,1.3768871713739161,0.03536998347709416
6.287556,1.2705095371231783,0.0330192051575959
6.292152,1.1674852712347406,0.03068891905522668
6.296744,1.0690803622986877,0.028325288595366923
6.301335999999999,0.9743953758673718,0.025943203613850465
6.305923999999999,0.8812648889030604,0.023583132890282115
6.31052,0.791854324443486,0.02120303765510618
6.315108,0.7053477854683378,0.018799957652232167
6.319692,0.6261589067885176,0.01637007552356457
6.32428,0.5493017773092044,0.014020952688642457
6.32888,0.47874068896342603,0.011676284766369519
6.333468,0.4108779039605911,0.00933377913882293
6.338063999999999,0.3484117256436433,0.006996158518597953
6.34266,0.2892989156889955,0.004732834409292342
6.3472360000000005,0.23672651629617406,0.0024067743932999976
6.351827999999999,0.19159396191282677,0.0
6.35642,0.15365688311066228,0.0
6.3610120000000006,0.12213803015617841,0.0
6.365608,0.09601578388758165,0.0
6.370196,0.07349127540957634,0.0
6.374791999999999,0.05611900418916676,0.0
6.379379999999999,0.03964616741640504,0.0
6.383967999999999,0.025993818700732547,0.0
6.388564000000001,0.01606139248979713,0.0
6.3931640000000005,0.007927835174157417,0.0
6.397755999999999,0.0026147659156069317,0.0
