Time,Force,Position
6.204051999999999,0.003061088702342039,0.0
6.208648,0.003061088702342039,0.0
6.213239999999999,0.003061088702342039,0.0
6.217815999999999,0.003061088702342039,0.0
6.222415999999999,0.003061088702342039,0.0
6.227003999999999,0.003061088702342039,0.0
6.231591999999999,0.003061088702342039,0.0
6.236184,0.0030610887023420396,0.0
6.240772,0.0030610887023420396,0.0
6.245384,0.0030610887023420396,0.0
6.249967999999999,0.0030610887023420396,0.0
6.254555999999999,0.0019802615749949454,0.0
6.259151999999999,0.0,0.0
6.263739999999999,0.0,0.0
6.268336,0.0,0.0
6.272924,0.0,0.0
6.277515999999999,0.0,0.0
6.282103999999999,0.0,0.0
6.286703999999999,0.0,0.0
6.291283999999999,0.0,0.0
6.295883999999999,0.0,0.0
6.300476,0.0,0.0
6.305067999999999,0.0,0.0
6.309655999999999,0.0,0.0
6.314243999999999,0.0,0.0
6.318831999999999,0.0,0.0
6.323423999999999,0.005309967752144428,0.0
6.328011999999999,0.01737081367751713,0.0
6.332604,0.031563180823733175,0.0
6.337192,0.05070755724788179,0.0
6.341792,0.0766028118452587,0.0
6.346375999999999,0.1084716948823617,0.0
6.350968,0.14631420635919082,0.0
6.355559999999999,0.18820929266630462,0.007814850107211462
6.360147999999999,0.23313533464190964,0.01582335696077187
6.364744,0.2840350050572408,0.023584722527736184
6.369332,0.33910943501700225,0.03131963340172567
6.373911999999999,0.39799207037875717,0.03917152557246891
6.378508,0.4617045303042989,0.04700425367529771
6.383092,0.5321678684030691,0.054643125537144885
6.387684,0.6073388463514803,0.06231580069799131
6.392275999999999,0.6842747913782978,0.0702755500819031
6.396863999999999,0.7686166795977005,0.07806961663848204
6.40146,0.855989523485594,0.08596398009219729
6.406039999999999,0.949213811099068,0.09376037362188572
6.4106359999999984,1.047223781827701,0.1013999945782995
6.415223999999999,1.140212295681109,0.10913069261556559
6.419823999999998,1.229314560867006,0.1168345473136246
6.424411999999999,1.3201715534995704,0.12444177039268495
6.429012,1.4068979280363325,0.1321667367881115
6.433608,1.4885942500296447,0.13996214129376292
6.438208,1.5647717806229244,0.14794790731586194
6.442791999999999,1.639028257606762,0.1559370788666283
6.447384,1.7141841690382482,0.1560715886655129
6.451976,1.7922827532409689,0.15591306252441828
6.456567999999999,1.8685824685483938,0.15598731499002602
6.46116,1.9474583024846173,0.15598590015932243
6.465752,2.0284995594585733,0.15578934298693048
6.470339999999998,2.114282358099059,0.15541541904894107
6.474927999999999,2.1987991681494607,0.15524534597671472
6.479515999999999,2.2870800421532276,0.15502199262653207
6.4841,2.3835780108999707,0.15438984166234979
6.488695999999999,2.4780327413231262,0.15395113552048237
6.493283999999999,2.5723652870321363,0.15348252912463187
6.497879999999999,2.6657983982934987,0.15310187451827204
6.502459999999999,2.7602972701652826,0.1528450977267738
6.507052,2.8575385868286385,0.15254843354605419
6.511647999999999,2.9550684143689137,0.15231457940863483
6.516231999999999,3.0525201986436707,0.152216354200398
6.520843999999999,3.153325351280729,0.15199843381454672
6.525431999999999,3.2554406339564994,0.15175601168756958
6.53004,3.362297458298801,0.15128625641133675
6.534635999999999,3.4697652062118305,0.15076160648805617
6.539223999999999,3.577599508267298,0.15023142282071777
6.543816,3.6831020611222582,0.14978472477639848
6.548416,3.7869279297960685,0.14937981286634117
6.553008,3.883924877031133,0.14915122261898153
6.557604,3.977035575598687,0.14899996452832806
6.562199999999999,4.061762853260491,0.1490640237112239
6.56678,4.142437556092009,0.14911358977012637
6.57138,4.213086055653517,0.14919874594915566
6.575968,4.2726086895177025,0.14944880869097177
6.580563999999999,4.327668052960539,0.1496511919602707
6.58516,4.3841936329731235,0.1496972272071901
6.589756,4.433479595955896,0.14983794584409366
6.594339999999999,4.478468614680093,0.14999542727472426
6.598936,4.5230027963645965,0.15005526834987518
6.603524,4.565161087399965,0.15007139100122177
6.60812,4.60633166109043,0.1499810445426699
6.612712,4.646925213027058,0.14981961541040684
6.617303999999999,4.683466190133398,0.14964127127105165
6.621896,4.718408526324106,0.14942825106012161
6.626479999999999,4.750364048294955,0.1492423506753083
6.631067999999999,4.775079953235989,0.14914773639515932
6.63566,4.796931228671306,0.14906208452708763
6.640255999999999,4.818083297638638,0.14891392325047773
6.644848,4.83841397542384,0.14870904248348496
6.649439999999999,4.85935557677977,0.1484529214828608
6.654027999999999,4.880008667258782,0.14816090266492646
6.658624,4.901028311880231,0.14783951936005993
6.663212,4.923358086540392,0.14752291885187568
6.667803999999999,4.946831665076493,0.1471631351718388
6.672395999999999,4.974269535545622,0.1467095415381609
6.676988,5.002196144871333,0.14623232833088273
6.681576,5.039317326653185,0.14551588619910455
6.686164,5.075783443415681,0.14480099616894035
6.690755999999999,5.112616114320617,0.1440704012551995
6.695364,5.148793720206194,0.14333807824551226
6.699955999999999,5.180351969139387,0.1427016891422655
6.704559999999999,5.2044703730631054,0.14221581280711643
6.70914,5.234474122529295,0.14159965090013382
6.713735999999999,5.258304015576095,0.14108852463465144
6.718323999999999,5.280335039727598,0.14061138068755924
6.722916,5.304409302202689,0.1400786829984044
6.727507999999999,5.330771172429659,0.13948157821953652
6.732107999999998,5.352635870418387,0.13896210999761446
6.736692,5.380019359807152,0.1383453086293394
6.741283999999999,5.4038051114053225,0.13779444917383502
6.745871999999999,5.4268136132699905,0.13725127955833777
6.750463999999999,5.448267615667656,0.13672315468832347
6.755068,5.47225359524549,0.13610944642899903
6.7596599999999984,5.497261193985116,0.13547303698250157
6.764239999999999,5.515606197448773,0.13497725974649968
6.768823999999999,5.5274107903506025,0.13460891476023232
6.773411999999999,5.533207852995816,0.1343814991709605
6.778008,5.537450416174026,0.13416353872311257
6.782587999999999,5.538994676009291,0.13398900775489378
6.787184,5.542459989453998,0.13377851382251332
6.791775999999999,5.549767410117585,0.13349477226477477
6.796363999999999,5.564103980199587,0.1330585258242768
6.800955999999999,5.57406556275749,0.13268742134720526
6.805543999999999,5.589668121429574,0.13221896811773068
6.810131999999999,5.605881603672384,0.1317053914124754
6.814727999999999,5.624138324238785,0.13115107416645153
6.819315999999999,5.639574556748092,0.13065055819868715
6.8239,5.660896134799872,0.1300379186633073
6.828496,5.677065475594054,0.12949061603266818
6.833095999999999,5.697199108321267,0.12886991707727136
6.837688,5.7182321754961265,0.12823906972858515
6.842267999999999,5.743884599623371,0.1275478083588386
6.846864,5.768393219874677,0.12689408336530295
6.851452,5.791347340658978,0.12624864934293445
6.856052,5.816100330338574,0.12557631054124654
6.860631999999999,5.843551623361115,0.12486742629347382
6.865231999999999,5.869326232202504,0.12417428262522724
6.869812,5.895755906063251,0.12348626367862875
6.874407999999999,5.921041776048059,0.12282739553196727
6.879,5.946205461318721,0.12218493163068925
6.883583999999999,5.971491331303527,0.12154222194574281
6.888183999999999,5.99857607018363,0.1208926779347135
6.89278,6.026071504654799,0.12026957998852261
6.897368,6.053566939125966,0.11965806235845364
6.901964,6.0806958194547,0.11907417334387757
6.906552,6.106803080621635,0.11851559034917603
6.91114,6.134831395398015,0.11793275476141053
6.915728,6.165680198231485,0.11732777940476867
6.920323999999999,6.199105119693751,0.1167049832694637
6.924916,6.226889065041839,0.11615991656015617
6.929504,6.254917379818219,0.1156030865723679
6.934104,6.275750219013416,0.11512842098246227
6.938692,6.297726862084551,0.1146335765354708
6.943283999999999,6.326243915717514,0.11406655100028415
6.947868,6.357292946530646,0.11343967137732305
6.952456,6.388708531486214,0.11279462786559107
6.957063999999999,6.416526378651193,0.1121789937406912
6.961651999999999,6.446754018282195,0.11151120529091275
6.96626,6.477470396769779,0.11081146382419547
6.970848,6.504955591609209,0.11012676490621787
6.975435999999998,6.529864667819842,0.10946541381768236
6.980032,6.546434464573352,0.10890167504217403
6.98462,6.564636804059384,0.10828833318272649
6.989224,6.579485775183115,0.10769820988507721
6.993799999999999,6.594046235429928,0.10707944840946033
6.998399999999998,6.608073815371529,0.10644927869819701
7.002987999999998,6.619403091970186,0.10584621884429665
7.007588,6.619450416340488,0.10537105609388486
7.012175999999998,6.6179432412437835,0.10489861319830378
7.016767999999999,6.6206447275084015,0.10435659049650316
7.021351999999999,6.622568964039516,0.1038165954192499
7.025948,6.62616988475178,0.10326602598283463
7.030543999999999,6.62989299017819,0.10271252508060735
7.035136,6.622334143376244,0.10227976084639427
7.039736,6.609789385479475,0.10191316922375421
7.044331999999999,6.59352470507797,0.1015823400960023
7.048919999999999,6.585066423828375,0.10115430998988194
7.053507999999999,6.574809273683485,0.10074153478438751
7.058095999999999,6.567372611595683,0.10030030807754095
7.062691999999998,6.565699110336206,0.09979677256556745
7.067271999999999,6.564925043524378,0.09928629498222806
7.071859999999999,6.568892518379078,0.09872543649559738
7.076452,6.566852462977164,0.0982412219678957
7.08104,6.563546418985166,0.09778415670849201
7.085631999999999,6.564248808374823,0.09732480237078955
7.090211999999999,6.565606262783838,0.09687461733239612
7.094799999999999,6.56925132494473,0.09638388719124515
7.099407999999999,6.583523274314623,0.0957802454381151
7.103995999999999,6.59599635478922,0.09518952678072784
7.108587999999999,6.608102881121381,0.09462411572872789
7.11318,6.620087222739396,0.09406741189790335
7.117768,6.634236987395144,0.09347894247872936
7.122363999999999,6.642501406508421,0.0929547094468003
7.126951999999999,6.659227289792966,0.09235342148491342
7.131547999999999,6.681594149191691,0.0917036976095213
7.136135999999999,6.708458180828653,0.09102518355502388
7.140735999999999,6.733156789427882,0.09038758090422813
7.145323999999999,6.760309331941763,0.08975300359988411
7.149927999999999,6.7852964514179135,0.08915526123998528
7.154515999999999,6.803254421475655,0.0886410462695554
7.159115999999999,6.821745271838607,0.08814423928519644
7.163708,6.841135556649206,0.08764673157921385
7.168296,6.865389567840482,0.08710134750486401
7.172887999999999,6.8952845551459365,0.08651495727729948
7.177472,6.922725608536736,0.08593761283605528
7.182067999999999,6.9463245547086565,0.08539359473664317
7.186663999999999,6.963427231767379,0.08493896640871498
7.191251999999999,6.973378574693545,0.08456973781112631
7.195839999999999,6.985906036248509,0.08419324013776856
7.200424,6.994591390584589,0.08384916823962245
7.205024,7.004053994654172,0.08350825803268068
7.209612,7.013027859867173,0.08319596194219891
7.214191999999999,7.02662108203256,0.08285245291768235
7.218783999999999,7.040214304197947,0.08251366192110002
7.223371999999999,7.049965419144448,0.08220814453619142
7.227964,7.056773861319717,0.08193007947648363
7.232555999999999,7.0655033571044275,0.08163922526406275
7.23714,7.066015758146161,0.08139300742577192
7.241752,7.069470831959129,0.08112240401984842
7.24634,7.075624209115041,0.0808381692166883
7.250935999999999,7.083943009308684,0.08052835806284428
7.255523999999999,7.086498648674004,0.08026244765819567
7.260111999999999,7.091630406668122,0.07999316433603187
7.264707999999999,7.088955765510329,0.07978798904368473
7.269299999999999,7.0844822554572415,0.07959070775395356
7.273895999999999,7.08397303733718,0.079358249777167
7.278475999999999,7.090370783921384,0.07906553001850403
7.283075999999999,7.09893395354332,0.07874522407299617
7.287668,7.106353319289317,0.07844258510264047
7.292268,7.117614792254196,0.0781113482923252
7.296856,7.125156342714339,0.0778014145753867
7.301456,7.132942262602772,0.0774800198165484
7.306051999999999,7.140073117471848,0.07715077396011033
7.310644,7.142462430674396,0.0768536993706457
7.315223999999999,7.14575117832459,0.07655289938620541
7.31982,7.15222696817431,0.07621691047687064
7.324408,7.1528174124815616,0.07592790461254835
7.328999999999999,7.161747136245934,0.07559384772174123
7.333587999999999,7.16695693750557,0.07528172229798548
7.338172,7.17343272735529,0.07494824591473048
7.342752000000001,7.172346487481391,0.07466016517868028
7.347344,7.177800658169319,0.07433599683133524
7.351928000000001,7.1787576566190054,0.0740300023126773
7.356503999999997,7.186988173915394,0.07365143903314084
7.361096,7.191909464298111,0.07331187672537752
7.365683999999998,7.19670856996668,0.0729801748860164
7.370259999999998,7.203550913958838,0.07263337410724946
7.374859999999998,7.208472204341555,0.0722984716552836
7.379448,7.214781668028501,0.07193692130239088
7.384039999999999,7.223012185324889,0.07156616777524442
7.388631999999998,7.238027482611395,0.07115243517159008
7.393219999999999,7.2521433454502535,0.07074321199520799
7.397819999999999,7.267935892470261,0.07033703454686308
7.402407999999998,7.286671112261504,0.0699113436230641
7.407004000000001,7.305528516766893,0.06948072449044836
7.411583999999998,7.3222204982345485,0.06907607164106094
7.416180000000001,7.34492000995882,0.06862716505782139
7.420763999999998,7.365576283359504,0.06819915795455946
7.425363999999998,7.3870098064936895,0.06777528521502874
7.429943999999999,7.409342764075523,0.06735271803533513
7.434539999999998,7.439237751380979,0.06689370706101817
7.439128,7.467456054505284,0.06643808040204992
7.443719999999999,7.494652738467794,0.06599019696105918
7.448315999999998,7.516496957193046,0.06559705446270449
7.452908000000001,7.547169194232,0.06515081449093184
7.457495999999999,7.578740865718605,0.06470619653553232
7.462087999999998,7.602628322767443,0.06430317217274593
7.4666679999999985,7.631257321482813,0.06388058553492844
7.471256,7.659764135484038,0.06346750725822849
7.475847999999999,7.684428842266378,0.06307622287107348
7.480432,7.705373626543981,0.06270206411083201
7.485023999999999,7.725541161088082,0.06232496090747791
7.489604,7.742110957841592,0.06195587344810065
7.494195999999999,7.759580189042751,0.061588005976694296
7.498787999999998,7.781013712176938,0.061200627939093054
7.503375999999999,7.804612658348857,0.060795978400798985
7.507984,7.8253911164636865,0.060404774683271614
7.512571999999999,7.846413944006807,0.060004736156730826
7.517163999999997,7.866781706530572,0.05959576629991983
7.521756,7.884328980997249,0.0591981284547271
7.526356,7.899177952120979,0.05880709047115387
7.530947999999999,7.91492635769236,0.05841757679756657
7.535547999999999,7.93541630493027,0.05801302532031308
7.540140000000001,7.960237098243647,0.057572799098297205
7.544727999999999,7.981460153766431,0.05714217420204664
7.549332,7.999329840926915,0.05670640882178371
7.553912,8.02026438557278,0.05625005497483884
7.558512,8.038622811589846,0.055794530769104095
7.563091999999997,8.056859052892767,0.05534670348111184
7.567692000000001,8.075461848338128,0.05488322450534249
7.572284,8.090222536564603,0.05443250547937369
7.576875999999999,8.105882659238725,0.05398187359239144
7.581455999999999,8.125384889131732,0.05351928563920928
7.586047999999998,8.139246142910562,0.05307131549062049
7.590651999999999,8.146200431985124,0.05265556420077579
7.595244000000001,8.148290994679012,0.05225867312837387
7.599823999999998,8.146539450154018,0.051873064775631327
7.604416,8.140701428981847,0.05150990855987849
7.609003999999999,8.133719603933741,0.05115669697181699
7.613595999999998,8.125716159723842,0.05080807380572571
7.618183999999999,8.116691096352145,0.050464749803312156
7.622768000000001,8.099981818542686,0.0501439906599195
7.627364,8.077753749333192,0.049829937422515805
7.631951999999998,8.049395965152938,0.04954811408655376
7.636544000000001,8.013231781820773,0.04929232573070851
7.641131999999999,7.974779990736729,0.0490555239331044
7.645720000000001,7.937105449386186,0.04882208991850683
7.650327999999998,7.895222246674326,0.048613988382257306
7.654916,7.8456548295246975,0.048426634881728416
7.659516,7.796498107966137,0.0482588242960471
7.664107999999999,7.751061308912313,0.048082994737751426
7.668699999999998,7.701660217925458,0.04792135888331813
7.673287999999999,7.64228730474896,0.04780209044871162
7.677883999999999,7.580871153248878,0.04769172320003154
7.682487999999999,7.515857263958201,0.04757905886177434
7.687068,7.448800136343938,0.04747566303620825
7.691663999999999,7.381498639301384,0.047381725978752745
7.696239999999999,7.31252045807768,0.04728037601194016
7.700839999999999,7.239577984920949,0.04719481016556511
7.705424000000001,7.162793404545334,0.0471187192035651
7.710024000000001,7.080123478627249,0.04706399959918984
7.714615999999999,6.998352987156811,0.04700847397482727
7.719215999999999,6.913395453486848,0.046975130243187814
7.723800000000001,6.828437919816885,0.04694133030126668
7.728383999999998,6.7491213622611,0.04689362226267889
7.732968,6.67135930417232,0.04685838669024731
7.737552000000001,6.5914318230458075,0.0468395988867103
7.742135999999999,6.5107270921857925,0.046813036950597284
7.74672,6.432842849382866,0.04678058621910943
7.751307999999998,6.349195445751617,0.04676746376117136
7.755896,6.261583750187338,0.04677084423144105
7.760487999999999,6.170785012423534,0.046802557722313363
7.765072,6.084972185754551,0.046809682196654996
7.769663999999999,6.002634912162013,0.04682519886424189
7.774243999999999,5.926715864417156,0.04683201651977604
7.778828000000001,5.8516962511199475,0.04683890453763811
7.783415999999999,5.7755328339468015,0.04686179479530173
7.788004000000001,5.701168285668948,0.0468832395672327
7.792583999999998,5.6325668982194195,0.046882912406168875
7.7971879999999985,5.5656421949510415,0.04689107841091911
7.801780000000001,5.502315229473255,0.0469016473020713
7.806376,5.43976551372897,0.04692093273188757
7.810959999999998,5.380935720489423,0.04693404252609724
7.815559999999998,5.3221059272498765,0.04694719233204424
7.820135999999998,5.259189657363154,0.0469916843974014
7.824735999999998,5.193941638275926,0.04701082614139647
7.829328,5.124074262236313,0.047038527083684605
7.833919999999999,5.05588357037785,0.04707400452063887
7.838508000000001,4.986915628785885,0.04709997100995037
7.8431,4.918192056622212,0.04711122385455601
7.847687999999998,4.846525811687303,0.04714228767081787
7.85228,4.77894604339957,0.04714068933033994
7.856871999999999,4.712265709559483,0.04713649760049916
7.861463999999998,4.640066584319363,0.04714462719485752
7.866052,4.5591616254796845,0.04720142057644597
7.870643999999999,4.479278285801799,0.0472474441710726
7.875219999999999,4.401560369161647,0.04726629221579151
7.879811999999998,4.322043583626199,0.04728128668004886
7.884395999999999,4.235864202814778,0.04732400503954293
7.888984000000001,4.148130322536354,0.04734576479545997
7.893563999999998,4.060885181114513,0.047320003845572875
7.898147999999999,3.972984974673315,0.04727088956942718
7.902723999999999,3.8808319654221686,0.047190534243084045
7.907319999999999,3.78790170643752,0.04709276598851303
7.911904,3.69419419771937,0.04698741036823308
7.916491999999998,3.598076896535196,0.04694145579044422
7.921087999999997,3.5020817800651676,0.046882957674490765
7.925671999999999,3.403266175538049,0.04683792508653852
7.930267999999998,3.3051056360302877,0.0468185706628901
7.934856,3.2079667156843197,0.04677941281904608
7.939451999999999,3.109928360890704,0.04675477868719347
7.944027999999999,3.011890006097088,0.04671933387288571
7.948627999999999,2.910131728798735,0.04669067420533384
7.953219999999998,2.8161798506522935,0.04657845610545074
7.957812,2.72901275249597,0.046409241760216234
7.962403999999999,2.6362046782254676,0.04625990346125382
7.966995999999998,2.5405761158978755,0.0461122230244166
7.971595999999998,2.4476458569132276,0.04594783601451327
7.976184,2.3547155979285788,0.04578336383760974
7.980764000000001,2.264239272858583,0.04565426031777657
7.985343999999998,2.168654851979619,0.04561095090440959
7.989932,2.0728260616723646,0.04560907134672921
7.994523999999998,1.9772857822420293,0.045744973704181964
