Time,Force,Position
8.488555999999999,0.04052379140766765,0.0
8.49316,0.04550970250248959,0.0
8.497751999999998,0.05037342888316585,0.0
8.502347999999998,0.05728039358742917,0.0
8.506936,0.0593236319110162,0.0
8.511536,0.06623059661527951,0.0
8.516123999999998,0.07542516907142123,0.0
8.52072,0.08486411095585426,0.0
8.525312,0.09238199923084593,0.0
8.529907999999999,0.10848353639125097,0.0
8.534492,0.11780029356153833,0.0
8.539075999999998,0.1310813426648541,0.0
8.543679999999998,0.14903810979557103,0.0
8.548268,0.16616126611776957,0.0
8.552855999999998,0.18532766076355517,0.0
8.557451999999998,0.19963032902866448,0.0
8.56204,0.2186745389603044,0.0
8.566627999999998,0.23694149915844212,0.0
8.571216,0.2568851435377299,0.0
8.57582,0.27364174571749145,0.0
8.580411999999999,0.29015397846896157,0.0
8.585,0.3019246695539012,0.0
8.589588,0.31177430702939946,0.0
8.594168,0.31765965257186923,0.0
8.598759999999999,0.3317179514086872,0.0
8.603348,0.3419341430266224,0.0
8.607931999999998,0.3479416732832379,0.0
8.612528000000001,0.353704834111562,0.0
8.61712,0.3574247566162991,0.0
8.621704000000001,0.3534604646832707,0.0
8.6263,0.35129504164553793,0.0
8.630887999999999,0.3451653266747768,0.0
8.635483999999998,0.33597075421863515,0.0
8.640072,0.3247329434389064,0.0
8.644668,0.3065881679549144,0.0
8.649248,0.29150824995630287,0.0
8.653848,0.2715646055770151,0.0
8.658435999999998,0.2517092440949836,0.0
8.663039999999999,0.2370163595022867,0.0
8.66762,0.23324911262724843,0.0
8.672215999999999,0.2347665273556904,0.0
8.676811999999998,0.24684302565935407,0.0
8.681408000000001,0.2697229769665307,0.009223333422707446
8.686008000000001,0.30749285792439446,0.01769156667894462
8.690604,0.34699380414377523,0.026438089928077176
8.695196,0.39562151918551886,0.035103475074657484
8.699791999999999,0.4551748719449211,0.043669181141497204
8.70438,0.5254094929936909,0.052061873462248935
8.708963999999998,0.6082464359412693,0.060236619936806526
8.713556,0.6998435935687737,0.06853413420439594
8.718148,0.8023663889139366,0.07672343829313945
8.722739999999998,0.9156926372626126,0.08488601457898506
8.727332,1.0392894583095909,0.09298323354894712
8.731924,1.1758551553978147,0.10095270410085824
8.736504,1.3269442279942885,0.10889878217809039
8.7411,1.4848724616612472,0.11688606911219854
8.745687999999998,1.65720188612231,0.12474868100849038
8.750263999999998,1.8381149594687862,0.13249234674971355
8.754876,2.0168082286971627,0.14010231595025616
8.75946,2.1889067062833463,0.14757947853751946
8.764052,2.3560870764084867,0.15500382598113288
8.768639999999998,2.5137299821201986,0.16243779368525715
8.773228,2.6578711314854537,0.1607611440899329
8.777819999999998,2.7937849464759945,0.15972687853781997
8.782399999999999,2.925557903738994,0.15836671695948065
8.786999999999999,3.0510245802367195,0.15704097926495178
8.791576,3.1667094228927253,0.15583816785632087
8.796175999999999,3.2741227897253884,0.15470638943474038
8.800767999999998,3.3701998232493278,0.15376481074001527
8.805364,3.459804249845219,0.15265897610187154
8.809956,3.5424473306564805,0.15156851064030472
8.814543999999998,3.6171074465213175,0.15048341211793745
8.819132,3.6845618471732333,0.14940821692423678
8.823723999999999,3.7394139259263404,0.14848932783621072
8.828316000000001,3.784850724980165,0.14756700118596672
8.832908,3.822793297944149,0.14656334433139032
8.837495999999998,3.8459239845229627,0.14570682134052107
8.842088,3.8624259776426944,0.14492138338401298
8.846675999999999,3.873531364076538,0.14428444442792776
8.851268000000001,3.8777297858061193,0.14387968418111402
8.85586,3.8818060228215545,0.14349221356838157
8.86044,3.886781694284638,0.14308137289354858
8.86504,3.896865461556689,0.14248189479236842
8.869627999999999,3.901430437428707,0.14203752015163634
8.874220000000001,3.9044409138337204,0.14161328806184562
8.878808,3.9039758371622884,0.14126478014390498
8.883395999999998,3.9065756179762365,0.14080929593211367
8.887999999999998,3.90316786853357,0.14055505856623127
8.892588,3.896817446319668,0.14039493446028134
8.897179999999999,3.888179416353888,0.14033601372834448
8.901768,3.8759436485975156,0.14036406146265293
8.906355999999999,3.8638300655552897,0.14037620537237344
8.910947999999998,3.8526159169607115,0.14036255883150675
8.915536,3.8449995061567246,0.14026289246596618
8.920131999999999,3.840858648429183,0.14009210771462513
8.924707999999999,3.8382722901686464,0.13990715657438638
8.929307999999999,3.8386727461279735,0.13970637124636426
8.933896,3.8415271360019516,0.1394743480884987
8.938496,3.845447286486352,0.1392799750907657
8.943088,3.855785662818433,0.13892790754548318
8.947683999999999,3.869843961655252,0.13849237046464347
8.952275999999998,3.887133444140224,0.13802357287643768
8.956872,3.9102302289021487,0.13749349014825124
8.961459999999999,3.933859893969284,0.13697348145622754
8.966059999999999,3.957900254627484,0.13648792839409252
8.970651999999998,3.9863156028097784,0.13592335477924652
8.975244,4.013875657993053,0.1354564959236645
8.979831999999998,4.046710135148069,0.13488096339407027
8.98442,4.084819034274826,0.1342022728605126
8.989007999999998,4.129346159249264,0.1333857266444522
8.9936,4.176860098443565,0.1325627612041995
8.998196,4.224251852923721,0.13176199776246308
9.002787999999999,4.268578749918495,0.13106453051218556
9.007379999999998,4.311639658323186,0.13043147526199378
9.011968,4.35175789395664,0.1298923022116076
9.016552,4.391387390733514,0.129410265504288
9.021144,4.43228287610047,0.12888113985353167
9.025731999999998,4.469580623676837,0.12843111315332634
9.030324,4.513008086223964,0.12782156021976246
9.034911999999998,4.553737245428148,0.127270329737756
9.039511999999998,4.5885810590898615,0.12687318004179052
9.044107999999998,4.621215308265213,0.12648795491386564
9.048696,4.641013105745205,0.12634700984249317
9.0533,4.665141749300662,0.12607817390467493
9.057887999999998,4.689881316426847,0.1257565203207832
9.062492,4.713965818533676,0.12543628779427954
9.067072,4.738006179191877,0.1250573493481485
9.071659999999998,4.760614225097218,0.12467746933513832
9.076248,4.781789956249701,0.12430046822538124
9.080848,4.797813450144588,0.12399422573963038
9.085444,4.809950695371965,0.12370611480376434
9.090044,4.822332310027633,0.12339917255869516
9.094628,4.8323821754827945,0.12309955161257044
9.099224,4.842143530061036,0.12276173719066441
9.103811999999998,4.850594754600565,0.12240998897650018
9.108404,4.857980218529673,0.1220242014009392
9.113004,4.863688998277631,0.12165813648146699
9.1176,4.8697643321680255,0.12126103705508658
9.122187999999998,4.8695436249248845,0.12096317091537427
9.126776,4.870344536843536,0.12064220378134022
9.131363999999998,4.86946876458104,0.12033513317218728
9.135944,4.865772504261454,0.12007888840114983
9.140539999999998,4.87065989282728,0.11965569401674192
9.145132,4.874525662231314,0.11926197189914309
9.149728,4.876103823883469,0.1189369575329088
9.154315999999998,4.874739312764389,0.11867324618249546
9.158908,4.871209378607576,0.11846706312691675
9.163488,4.86972268277435,0.11821481916152247
9.168076,4.866969998351039,0.11800677301992618
9.172684,4.867037801984818,0.11775057308355211
9.177272,4.870703343409187,0.11744402898282343
9.181867999999998,4.8724478312241155,0.11717331956382365
9.186456,4.8767684376678435,0.11687323709222479
9.191048,4.880844674683279,0.11659430346780288
9.195643999999998,4.8865975958798655,0.1163013345061897
9.200232,4.893005582095807,0.11601778544674292
9.204828,4.9010902524928985,0.11572184548107999
9.209408,4.908930553461699,0.11544706121672572
9.214008,4.920490776935237,0.11511689418790128
9.2186,4.931273750675272,0.11479039707927438
9.223192,4.948064254671923,0.11434393010073639
9.22778,4.968696865887456,0.11383221335724057
9.232371999999998,4.985609554598252,0.11338129910566758
9.236956,4.997003451909016,0.11300893203144911
9.241544,5.01068495697166,0.11257434428980388
9.24614,5.024488646748447,0.11212796271397936
9.250732,5.0376372715058775,0.11167062919074604
9.255308,5.052584765158606,0.11119954170109976
9.259892,5.066222128772621,0.11071007624029819
9.26448,5.0778162540630465,0.11026663716821535
9.269071999999998,5.089410379353475,0.10982867447727414
9.273656,5.102681188825051,0.10937885657471708
9.278244,5.120038474943802,0.1088532089233253
9.282828,5.141115683567289,0.10828219173058981
9.287416,5.1628479572101345,0.10772503421903463
9.292008,5.182903546671829,0.10718071425584293
9.296592,5.200383017504724,0.10666055003297624
9.30118,5.21990572666121,0.10610558625456187
9.305772,5.234442524722872,0.10564053016398238
9.31036,5.250900376393974,0.10515041058570772
9.314948,5.267358228065079,0.10467023462784557
9.319551999999998,5.281772841412594,0.10423080570245272
9.32414,5.296065270045964,0.10379886851553555
9.328732,5.316653739812869,0.10330056044015863
9.333312,5.336098405703837,0.10283290790559217
9.337908,5.357464125204243,0.1023388648530381
9.342492,5.38729130887592,0.10174551462603813
9.347088,5.40967864753812,0.10124460958690017
9.351679999999998,5.440160896229152,0.10067382223167803
9.356264,5.469743710472536,0.10011161656238622
9.360844,5.49764984053477,0.09956361091147449
9.36544,5.526044709453586,0.09898538231069298
9.370027999999998,5.549942406134165,0.09845722139071823
9.37462,5.5712639841859435,0.09795299507473713
9.379207999999998,5.591397616913157,0.09742622833292891
9.383796,5.613574487963956,0.09686930717720002
9.388384,5.636650793462403,0.096305234206992
9.392979999999998,5.654985557294318,0.09579757241708776
9.397564,5.674952863858757,0.09522917813044952
9.402148,5.69618615901328,0.09463763954492271
9.40674,5.71190066276777,0.09410190932709248
9.41132,5.727981720664697,0.0935427300100501
9.415896,5.749537428513029,0.09288740938231743
9.420483999999998,5.768106322141498,0.09222440878732613
9.425068,5.792027681007227,0.09148027563625068
9.429655999999998,5.815416159567743,0.09072326063200763
9.434252,5.828544305061698,0.09006930059548644
9.438848,5.847557796098122,0.08934416071963025
9.443452,5.856799692924565,0.08868664074776182
9.44804,5.867307578341093,0.08799914989439143
9.452644,5.877160398738265,0.08730291468919098
9.457224,5.886235969401932,0.0866083678522605
9.461824,5.899031462570338,0.08588740098095309
9.466411999999998,5.907574152928796,0.08517828013244527
9.471004,5.914073604963668,0.08449605048036722
9.475592,5.918774188103244,0.08382675787363238
9.480192,5.923841325385257,0.08313533608336361
9.484783999999998,5.932994939314443,0.08238986005987714
9.48938,5.9420263685294845,0.08165228427991049
9.493968,5.945172452202057,0.08097956973563625
9.498559999999998,5.949095785608129,0.08030509267350494
9.503156,5.9501986309571135,0.07965219038333668
9.507756,5.94337289244004,0.07908820035474592
9.512348,5.938878903123474,0.07853400289451241
9.516948,5.928133014122,0.078065940948634
9.521536,5.919308178729969,0.0775818957762435
9.52612,5.914325450556819,0.07706156297772697
9.530711999999998,5.903701746269491,0.07658219018668765
9.535304,5.894754726163314,0.07609747038180695
9.539896,5.887728759666578,0.07559763717237263
9.544484,5.879436804579758,0.07512314505498822
9.54908,5.871799914512293,0.0746604521266091
9.553656,5.857256059740567,0.07426407706704503
9.558232,5.8458212039028465,0.07387960543090483
9.562828,5.837206836122218,0.07347446544335615
9.567415999999998,5.830146967808593,0.07307667331203953
9.572024,5.823986533942615,0.07267556813295177
9.576612,5.816804480914844,0.07228631928580266
9.581215999999998,5.812320731230017,0.07188686868384206
9.585808,5.8125785232117195,0.07145440808111067
9.590404,5.81655623769816,0.0710010944762123
9.595016,5.827973797194074,0.07050862519313368
9.5996,5.847852820861256,0.0699668234690827
9.604195999999998,5.865932975633142,0.06943539427150903
9.608784,5.8842574998333195,0.06888863896153435
9.613392,5.898128993243886,0.06840787880213091
9.61798,5.913799355549748,0.06792488376505915
9.622576,5.9329452709320565,0.06743568249055716
9.627156,5.955811108819101,0.06692987803766683
9.63176,5.975734273934911,0.06645107538283003
9.636344,6.000398980717252,0.06594688905965906
9.640936,6.021343764994858,0.06546102603883672
9.645523999999998,6.047396645081428,0.06492448377498965
9.650119999999998,6.074715513758084,0.06436641062181059
9.654716,6.10125713270124,0.06380847818776272
9.659312,6.128409675215122,0.06322007805018284
9.663899999999998,6.155317848300712,0.0626515387601096
9.668492,6.184924324729247,0.062082725739363014
9.67308,6.2109330633671895,0.061525879213251734
9.677675999999998,6.235142933109837,0.06097804540519958
9.682251999999998,6.258575553118982,0.060430359251235605
9.686844,6.273546708956859,0.059923109305798264
9.69144,6.282099638947058,0.059439040708344146
9.696027999999998,6.2880764503084565,0.05895195815849619
9.700623999999998,6.291354958326911,0.058466854707134294
9.705203999999998,6.295610944058531,0.057923785211411165
9.709796,6.2933265192283265,0.057403277435640165
9.714379999999998,6.2884659757693235,0.05687800844596749
9.718968,6.277065021748494,0.05637404457864711
9.723564,6.264764633280017,0.055868993596080156
9.72814,6.245024399802066,0.055385895536541656
9.73274,6.225406351038259,0.054890929924020684
9.73734,6.201701825627279,0.05442657069709866
9.741927999999998,6.174399562425709,0.053963425687413455
9.746531999999998,6.14198920341517,0.053536416629975304
9.751108,6.102183140843784,0.05317611922282945
9.755707999999998,6.053793429386985,0.052848861731232745
9.760296,5.995920634597125,0.05255575342574841
9.764892,5.939602339274271,0.05227100298983208
9.769479999999998,5.875599829513649,0.05201667652824134
9.774079999999998,5.804035290029409,0.05178498233369681
9.778664,5.730427512221582,0.05156547942745855
9.783255999999998,5.655675930537815,0.05135498757933834
9.787852,5.5815794138734045,0.05115215763639165
9.792448,5.507238527780703,0.05095897771386608
9.797044,5.42922186063189,0.05082291914549544
9.801644,5.353903496826024,0.050679785330427635
9.80622,5.282060686096603,0.050537109429886026
9.810812,5.21585885148136,0.05036919212351119
9.815407999999998,5.146592159380738,0.05022196253231249
9.819992,5.077858347585326,0.050096189737621664
9.82458,5.013499523314008,0.04997183741421061
9.829176,4.952205556528069,0.04981663447263145
9.833764,4.891322285333197,0.049689408314173254
9.838344,4.835180555804854,0.049541918386733115
9.842935999999998,4.7849241718189806,0.04935854684776494
9.847524,4.744150871166169,0.04913688621237197
9.852111999999998,4.7081191121798875,0.048892846774225264
9.856716,4.6672236268129295,0.048672201577790744
9.861304,4.630703128970066,0.048456268592128586
9.865911999999998,4.600478672260737,0.048235932328757836
9.8705,4.575773006951441,0.04800329724242317
9.875096,4.550700787499709,0.047794936094618955
9.879692,4.5234631450102425,0.047611409222373856
9.884268,4.500722674759016,0.04742590324793874
9.888863999999998,4.482723746174321,0.04721988208987104
9.893448,4.466401501770775,0.04702160342999931
9.898048,4.444438281253051,0.04683934432749596
9.902636,4.4192880185358,0.046692325408601736
9.907232,4.397735493609141,0.04654420901951236
9.91182,4.3801472606155105,0.046366286113146554
9.916415999999998,4.355119182612405,0.04620347073293346
9.921,4.324860824086187,0.04609524031841454
9.925596,4.2899831086075855,0.045993937147045694
9.930188,4.252162720357747,0.04590944621059651
9.93478,4.210500224889026,0.04584109586164689
9.93938,4.161153514982541,0.04580766597497196
9.943972,4.11054081648597,0.04580326171316699
9.94856,4.059928117989398,0.045800908503393946
9.953152,4.013401896140001,0.045754620747528923
9.957743999999998,3.9613568828905716,0.04571367070231504
9.962328,3.9086568046217853,0.04564422302828117
9.966912,3.8512151846864686,0.04559768447936936
9.971508,3.7929963150176498,0.045538917646266844
9.9761,3.7273376003393555,0.045497382039465385
9.980688,3.658081147870472,0.045447899153772994
9.985284,3.581507035106259,0.04540011903336273
9.98986,3.506976160665633,0.04532099443419898
9.994447999999998,3.42872536372027,0.04525068072464397
9.999052,3.3478984481461094,0.04515921261922547
10.00364,3.2604089372959764,0.045094010529038525
10.008247999999998,3.1749626647694305,0.04499085179952382
10.012832,3.0900051310994674,0.044823511813134174
10.017419999999998,3.008767519934241,0.044642230948151194
10.022016,2.923809986264278,0.044464372128593124
10.026612,2.836154149251371,0.04426964267995038
10.031208,2.749519931400257,0.044051664957720615
10.035788,2.660309594920346,0.04380320748982153
10.040384,2.573142496764022,0.04350997112388144
10.044971999999998,2.4762479458463456,0.04329176215086811
10.049571999999998,2.3775545260333733,0.043041574977546244
10.054156,2.272076326230283,0.042817868483795464
10.058751999999998,2.172605656683809,0.04248325179183216
10.063344,2.074034421584982,0.04212255795923328
10.067936,1.9763626209338034,0.041740493914263904
10.072523999999998,1.8775470164066856,0.04136965556860665
10.077116,1.7831063994036613,0.041020876602994534
10.081716,1.6854787402011109,0.038816891639767544
10.086308,1.5898943193221473,0.03660509659860363
10.090896,1.4922666601195966,0.03441496286656977
10.095479999999998,1.4002799770312244,0.03221857482032292
10.100064,1.3057613167626825,0.030063809588059744
10.104651999999998,1.2134522209805012,0.02795542835616103
10.109244,1.1229419940936158,0.02585418090537519
10.113827999999998,1.0369289394449694,0.023751179523815093
10.11842,0.9582335450916519,0.021667348665107826
10.123008,0.882236454081278,0.019598804811997682
10.1276,0.8089376664138477,0.017550683509124147
10.132184,0.7333512709945387,0.015537920857820606
10.136764,0.6663485244606431,0.01348570408231149
10.141355999999998,0.6074406879555783,0.011469602289063682
10.145944,0.5557283270316961,0.009464981411913351
10.150531999999998,0.5037715966795228,0.00754003852279545
10.155127999999998,0.45553478883208637,0.005645214639978958
10.15972,0.41281677238468284,0.0037638857544711494
10.164312,0.37471811288966417,0.0018889791300500396
10.1689,0.33866269171823266,0.0
10.1735,0.31004711555627523,0.0
10.178088,0.2799211813759417,0.0
10.182683999999998,0.2553140385956408,0.0
10.187272,0.2314841455488421,0.0
10.191872,0.21762607469168735,0.0
10.196459999999998,0.20695504603405881,0.0
10.201055999999998,0.19550676764292807,0.0
10.205631999999998,0.18597954286123872,0.0
10.210228,0.174531264470108,0.0
10.214831999999998,0.16386023581247944,0.0
10.219424,0.1566647602312966,0.0
10.224011999999998,0.1575200532303163,0.0
10.228596,0.15735372706754247,0.0
10.233183999999998,0.15808683535241652,0.0
10.237772,0.15702107474199486,0.0
10.242368,0.15979742135045594,0.0
10.246963999999998,0.16053052963533,0.0
10.251559999999998,0.1630625068154997,0.0
10.256135999999998,0.16559448399566942,0.0
10.260728,0.1668604725857543,0.0
10.265316,0.1646509080993934,0.0
10.2699,0.1702477427649437,0.0
10.274492,0.17674401187814187,0.0
10.27908,0.18054197764839647,0.0
10.283684,0.17821022844788992,0.0
10.288276,0.17089256815256143,0.0
10.292863999999998,0.1680720800954722,0.0
10.29746,0.16459652701902647,0.0
10.302044,0.16099878922843508,0.0
10.306639999999998,0.15932210504728503,0.0
10.311228,0.15596873668498495,0.0
