Time,Force,Position
8.647095999999998,0.06896415376946596,0.0
8.651695999999998,0.05701511904842947,0.0
8.656284,0.04428883459389078,0.0
8.660879999999999,0.0327063540152913,0.0
8.665464,0.023167111760278865,0.0
8.670064,0.015548923114707796,0.0
8.674647999999998,0.009607418650286763,0.0
8.67924,0.005464783081161434,0.0
8.683847999999998,0.00030052835024258146,0.0
8.68844,0.0,0.0
8.693027999999998,0.0,0.0
8.69762,0.0,0.0
8.702207999999999,0.0,0.0
8.706792,0.0,0.0
8.711379999999998,0.0,0.0
8.715959999999999,0.0,0.0
8.720544,0.0,0.0
8.725123999999997,0.0,0.0
8.72972,0.0,0.0
8.734303999999998,0.0,0.0
8.738883999999999,0.0,0.0
8.743475999999998,0.0,0.0
8.748064,0.0,0.0
8.752655999999998,0.0,0.0
8.757248,0.0,0.0
8.761848,0.0,0.0
8.766444,0.0,0.0
8.771044,0.0,0.0
8.775648,0.0,0.0
8.780224,0.0,0.0
8.78482,0.0,0.0
8.7894,0.0,0.0
8.793996,0.0,0.0
8.798583999999998,0.0,0.0
8.803179999999998,0.0,0.0
8.807763999999999,0.0,0.0
8.812355999999998,0.0,0.0
8.816948,0.0,0.0
8.821544,0.0,0.0
8.826144,0.0,0.0
8.830739999999999,0.0,0.0
8.835324,0.0,0.0
8.839907999999998,0.0,0.0
8.844496,0.0,0.0
8.849096,0.0,0.0
8.853683999999998,0.0,0.0
8.85828,0.0,0.0
8.862863999999998,0.0,0.0
8.867452,0.0,0.0
8.872035999999998,0.0,0.0
8.876624,0.0,0.0
8.881207999999997,0.0,0.0
8.8858,0.0,0.0
8.89038,0.0,0.0
8.894967999999999,0.0,0.0
8.899563999999998,0.0,0.0
8.904156,0.0,0.0
8.908748,0.0,0.0
8.913335999999997,0.0,0.0
8.917935999999997,0.0,0.0
8.922524,0.0,0.0
8.927119999999999,0.0,0.0
8.931708,0.0,0.0
8.936295999999999,0.0,0.0
8.940884,0.0,0.0
8.945476,0.0,0.0
8.950071999999999,0.0,0.0
8.954663999999998,0.0,0.0
8.959247999999999,0.0,0.0
8.963839999999998,0.0,0.0
8.968423999999999,0.0,0.0
8.973019999999998,0.0,0.0
8.977604,0.0,0.0
8.982187999999997,0.0,0.0
8.98678,0.0,0.0
8.99136,0.0,0.0
8.995943999999998,0.009281450273309292,0.0
9.000523999999999,0.027200930512398865,0.0
9.005112,0.052492452127183856,0.0
9.009715999999996,0.088998122336547,0.0
9.014295999999998,0.1313213344546012,0.010589621058564041
9.0189,0.18277131539501837,0.020580569270225623
9.023488,0.24016102295827232,0.03069749307536041
9.028076,0.3045120763061565,0.04076008636376871
9.032684,0.37660172517217305,0.0507258341346956
9.037276,0.4565521542704677,0.06057589039444181
9.041867999999996,0.5415428755439512,0.07059970978533506
9.046447999999998,0.6382364842685957,0.0801768901844219
9.051036,0.7487984034821337,0.08921335385473633
9.055623999999998,0.8683649068038889,0.09813504903081233
9.060228,0.9929717023008331,0.10721281486800387
9.064808,1.130547373839023,0.11595004392668597
9.069404,1.2761060103236366,0.12467037368550218
9.073984,1.4324680998117634,0.1332484249242406
9.078575999999998,1.6089503994736907,0.14126433750868939
9.083164,1.7856770685639087,0.14924879773951896
9.087756,1.9482144195515134,0.15734407642946005
9.092336,2.1008036105346246,0.16543402424641596
9.096919999999995,2.24381119565568,0.17354894335056487
9.101508,2.3744166868575896,0.1816418737349305
9.106092,2.497894506112095,0.1791396822707352
9.110684,2.6151882293154727,0.17711215950144998
9.115264,2.7278082144860982,0.17488029351215112
9.119856,2.83551009219568,0.17261327917101305
9.124444,2.9399264051767413,0.17022395916501054
9.12902,3.0358268729061675,0.16794581342779671
9.133623999999998,3.127830852336345,0.1654368259120706
9.138212,3.208376313743652,0.1633438068318245
9.142799999999998,3.271988607176685,0.16191703375041183
9.147392,3.3258190667679988,0.16061631557149073
9.151971999999995,3.3767746572218567,0.1590593543556164
9.156564,3.4130846874533183,0.15788027988315023
9.161144,3.4408788724331454,0.15669774372056955
9.16574,3.4564372896566007,0.155663776648036
9.170327999999998,3.4532636700104864,0.15510243188554024
9.174927999999998,3.4520111039738133,0.15447437026111002
9.179512,3.456810209642384,0.1536796854468174
9.184112,3.4649626836732543,0.15281084638599515
9.188703999999998,3.4744252877428377,0.1519414345754051
9.193299999999995,3.4855645759935716,0.15103375686869286
9.197875999999995,3.4989134287306665,0.15010755048869812
9.202468,3.5066213053535824,0.1493781715692102
9.207048,3.5129410086722674,0.14874238010247393
9.211631999999998,3.517339658381512,0.1481808476780921
9.216224,3.5151198542634123,0.14793456490631726
9.22082,3.5144545496123167,0.1476674822452779
9.225407999999998,3.5135448755329306,0.14743241973750162
9.229996,3.5104697784158105,0.14729387988769294
9.234583999999998,3.510581723498217,0.14701433429194075
9.239164,3.510204929724041,0.14679587263844251
9.243755999999998,3.5084399626456353,0.14666724947883597
9.248344,3.5108056136630306,0.14645550686482028
9.252931999999998,3.517057513347938,0.14619505997989748
9.25754,3.524130804214975,0.1460034366748076
9.262128,3.5320254862641427,0.14588712953405825
9.266731999999998,3.5411081136378777,0.14580192760847197
9.27132,3.5510121321937436,0.14578852275334558
9.275907999999998,3.5630035305218235,0.1457816314489092
9.2805,3.582967654164589,0.14558867259726582
9.285083999999998,3.6054298531706346,0.1454388571587105
9.289687999999998,3.633943723881924,0.14517803490954329
9.294268,3.6674876471366633,0.14482430701130616
9.298868,3.702586069858407,0.1444546982249597
9.303448,3.740549122085868,0.14408669992360434
9.308048,3.7819877273897746,0.14363428197733408
9.312635999999998,3.8276791355036295,0.14312166150006103
9.317235999999998,3.8758244775321367,0.14258706755215397
9.321828,3.9289998721040935,0.1419640106412861
9.326415999999998,3.9882269383812945,0.14125108363281172
9.331007999999995,4.056159838258054,0.14031817082171402
9.335604,4.1257694223159636,0.1393717512197405
9.3402,4.194601756640372,0.13845195614614025
9.3448,4.260980157050128,0.1375864995815031
9.349391999999998,4.331689403535348,0.13657776632411534
9.353984,4.399167466372415,0.13560785470087602
9.358572,4.465091029742476,0.13467650084904118
9.363156,4.531092636378056,0.13368069240519834
9.367743999999998,4.5930858096319795,0.13274768902735223
9.372332,4.649926745628307,0.13193883685841537
9.376924,4.703003617671268,0.13115062365889868
9.3815,4.748596503256127,0.1304807513995439
9.386095999999998,4.794023062678214,0.12977389674503176
9.390684,4.836707177308728,0.12905421780674148
9.39526,4.8759937821283135,0.12832123796028636
9.39986,4.919322722146445,0.12744287425431403
9.404448,4.9543904259729725,0.12666105450613338
9.409039999999996,4.984672446684341,0.12592192018334533
9.413636,5.010657523137134,0.12518100194902593
9.418219999999998,5.027359744236529,0.12455648687092334
9.422815999999996,5.034534740554235,0.12406764429084381
9.427391999999998,5.0401110959563065,0.12353149709806913
9.431988,5.044743875462104,0.12295390108652685
9.436576,5.048965959376836,0.12235083324194844
9.441176,5.048402360176409,0.12178011008911599
9.445756,5.050615107584441,0.1211027749321661
9.450356,5.047797802449026,0.12047154298009038
9.454947999999998,5.0408498792178085,0.11987429142657528
9.459543999999998,5.031570206786083,0.11928272312598955
9.464128,5.016483232077405,0.11873837437565778
9.468719999999998,5.004583299568254,0.11811435678658515
9.473308,4.992683367059103,0.11748813830559388
9.477899999999998,4.976408447025859,0.11691359235197703
9.482492,4.9618102111737645,0.11632141976488754
9.487075999999998,4.949788093950467,0.11570178567351394
9.491667999999995,4.927016904804025,0.11528698802070565
9.496264,4.911441191238765,0.11477218081804158
9.500851999999998,4.897664346568801,0.11423092342981538
9.505447999999998,4.88826248942293,0.11363968318785109
9.510043999999995,4.88107019676342,0.11304845744292297
9.514627999999998,4.876864718323773,0.11245810357232403
9.519223999999998,4.873602815780402,0.11191699597401518
9.523812,4.869485620238012,0.11144648121769361
9.528403999999998,4.8650018705531854,0.11100616598425007
9.532999999999998,4.865303803983516,0.11054899454142515
9.537588,4.8647504444148275,0.11016333411426052
9.542179999999998,4.8664066493325,0.10978038030413223
9.546771999999995,4.871049668470036,0.10940138838273686
9.551375999999998,4.880722740151022,0.10898610447814794
9.555968,4.900700286347198,0.10848192530088595
9.560568,4.918145855363206,0.10806327498198702
9.565172,4.936002119970278,0.10767291752516585
9.56976,4.956600829368923,0.1073063503145713
9.574351999999998,4.981330156863369,0.1069226749201725
9.578944,5.004016246034229,0.1065841672151855
9.583548,5.035941049109858,0.10611915640379149
9.588124,5.064556625271815,0.10574305065071832
9.59272,5.100489861729101,0.10529192524938932
9.597307999999998,5.132214436825068,0.10493246070734655
9.601903999999998,5.165982250244621,0.10453592623144631
9.606488,5.200649498111822,0.10413363645217628
9.611079999999998,5.235683300121459,0.1037109125729494
9.615679999999998,5.270062037111741,0.10327778426979095
9.620276,5.304562958816168,0.10283749678136132
9.624872,5.335466142730002,0.10244131544715385
9.629472,5.367513130519778,0.1020225524805274
9.634059999999998,5.406711452442107,0.10148711203250055
9.638655999999996,5.446276328506874,0.10093007788596034
9.643244,5.483387270656989,0.10038919881229638
9.647828,5.51276985692071,0.09990911777938707
9.652411999999998,5.542885551469305,0.09937860702794751
9.657004,5.573734354302774,0.09879783059152349
9.661587999999998,5.602984516220609,0.09816344249413932
9.666176,5.626671745289784,0.09754180025341949
9.670776,5.649048844320248,0.09690182985132433
9.675359999999998,5.665374271645466,0.09630439488539093
9.679948,5.676136766122024,0.09570595213068712
9.684544,5.672263940007927,0.09525205154852955
9.689131999999995,5.668224787731054,0.09475178943864318
9.693739999999998,5.662753320701321,0.09424122321809768
9.698324,5.649797867213487,0.09375293251268887
9.702928,5.631567991753912,0.09329996435533466
9.707511999999998,5.614970659026858,0.09278497722583803
9.7121,5.596941011546947,0.09225643971651952
9.716691999999998,5.5749029306853775,0.09172605710826254
9.72128,5.5479569819945045,0.09120189433165068
9.725876,5.513693373008303,0.09074212042823993
9.730463999999998,5.474932591783862,0.09031430826693228
9.735063999999998,5.431919007749474,0.08989914143077585
9.739652,5.38902760842923,0.08946909190511765
9.744252,5.343315721051898,0.08906283410001338
9.748848,5.294783345617476,0.08867987951419096
9.753448,5.248827088811852,0.08827757697401754
9.758039999999998,5.203525897025584,0.08787928548327939
9.762632,5.157080901363378,0.0874995251171647
9.767219999999998,5.113334209044116,0.08709426799469082
9.771815999999998,5.076538622877744,0.0866489440890448
9.7764,5.047060697006701,0.0861365635354793
9.780991999999998,5.020936139497959,0.08561314392553254
9.78558,4.996243896742075,0.08510159625469739
9.790163999999995,4.97940219458673,0.08454557751837702
9.794756,4.96885653356492,0.08394380730102838
9.799347999999998,4.959743187295968,0.08335811311437041
9.803932,4.952839405513378,0.08278914402642833
9.808508,4.954807783493122,0.08217099746019442
9.813104,4.959518606264435,0.08158838168942327
9.817691999999996,4.963618505465021,0.08104736491942444
9.822284,4.976057684122729,0.08043982297667103
9.82688,4.997124653114478,0.07980524722194987
9.83146,5.019257382716649,0.07921234227967047
9.836047999999998,5.045520730414623,0.07861973576259575
9.840632,5.080778422589074,0.07798316753489853
9.845219999999998,5.118367863964033,0.07736961563858875
9.849823999999998,5.162908411491883,0.07674600600735572
9.854416,5.21452224988677,0.07609851580502085
9.859012,5.269611641358103,0.07545328312418302
9.863599999999998,5.323557228953496,0.07483846509705928
9.868199999999998,5.380078935177687,0.07422759646743815
9.872788,5.4366006414018795,0.07362861601275202
9.877392,5.492222913178423,0.07303940153186689
9.881975999999998,5.548744619402614,0.07245866008596442
9.88658,5.602079283427278,0.07193068068621936
9.891171999999996,5.653126339700067,0.071449049589775
9.895768,5.707238253458233,0.07094161161272398
9.900351999999998,5.758285309731019,0.07048133831277476
9.904944,5.81456264652692,0.0699645853377655
9.909544,5.876603144151144,0.06940793068476589
9.914136,5.933779915394691,0.068904262899024
9.918723999999996,5.988258383295296,0.06842143912545429
9.92332,6.044125024500131,0.06790770682529611
9.927903999999998,6.103178707904492,0.06736702588766431
9.932499999999996,6.153893111851733,0.06687858207932366
9.937079999999998,6.201131962722525,0.06640172122690291
9.941675999999998,6.236678165773896,0.06596468518803329
9.94626,6.267849381301174,0.06554029741084298
9.950847999999995,6.2970995432190096,0.06513481022609893
9.95544,6.32683844399343,0.06470494072334053
9.96002,6.356044464462638,0.06426302120884266
9.964607999999998,6.381652747141255,0.0638327692153107
9.969203999999998,6.410448072019398,0.06337324759183624
9.973792,6.437444528002244,0.06292334212148226
9.978399999999995,6.464274657822318,0.062435886337721964
9.982988,6.4905719073371815,0.06193026209902103
9.987575999999995,6.510450931004364,0.0614486059636352
9.992172,6.523378848518655,0.06096687701422926
9.996772,6.528866921023471,0.060516549003417026
10.001376,6.53034656014663,0.060051048900185644
10.005968,6.531948383983936,0.059579335276953735
10.010559999999998,6.525577482506557,0.05911246561235817
10.015135999999998,6.517652081562173,0.058635303884166934
10.019735999999998,6.497545293941784,0.05820218671144781
10.024316,6.476661256587893,0.05776018141604687
10.028916,6.453978350338707,0.05731889821560575
10.0335,6.434115932146609,0.056860618628382396
10.038092,6.408734722554479,0.056412773068087674
10.042679999999995,6.377179656542961,0.055964041168533395
10.047272,6.338717625827178,0.05555452092838622
10.051872,6.292571380673629,0.05517818137264169
10.056463999999998,6.2455257010724345,0.05479784622069956
10.061052,6.19145087205283,0.0544640260392353
10.065648,6.13275668608084,0.05413830639089626
10.070231999999995,6.07153052292868,0.05385201339310521
10.074828,6.007483871719431,0.05357062909543072
10.079415999999998,5.940494547738946,0.053300647077416094
10.084007999999995,5.87890183044435,0.05301901781699309
10.088604,5.81514369011202,0.05275636368956821
10.093183999999995,5.7466881495617885,0.05255851277373827
10.097763999999998,5.671447829021439,0.052393466061162
10.102356,5.605201852957569,0.052214385064950665
10.106944,5.534625030818232,0.05207957349842847
10.111552,5.472387488136017,0.05191830887837423
10.116139999999998,5.412603879368455,0.05176667381629347
10.120732,5.3497554131155125,0.05163673818235725
10.125324,5.290382499939016,0.05150766917028495
10.129919999999998,5.236406193448405,0.05137110746542958
10.134511999999996,5.18206333281536,0.051254484258119126
10.139104,5.135160317191787,0.051115560947868593
10.143695999999998,5.091732854644659,0.05098051585461652
10.148276,5.050637141298038,0.05086602801307406
10.152876,5.008764178217916,0.05074162348426122
10.157463999999996,4.967790649585441,0.0506128687389658
10.162063999999996,4.92783874011476,0.050473608913370493
10.166652,4.888664080377581,0.050339020297890495
10.171252,4.854886027326289,0.050199670053756716
10.175836,4.818942551237265,0.0500847293898065
10.180428,4.7849201287576815,0.04995825015414273
10.185015999999996,4.754984182925272,0.04979376920432463
10.189612,4.733754070692421,0.04957924721051294
10.1942,4.7018970712505705,0.04941977162854259
10.198795999999998,4.67004007180872,0.04925855650548689
10.203384,4.6292328693390195,0.04916453874070325
10.207976,4.5836841252027885,0.04909054761835201
10.212564,4.543776357180735,0.048993088282548995
10.21716,4.499004862778005,0.04892468995695152
10.221747999999998,4.451290695604041,0.048874254864603214
10.226343999999996,4.405497582039518,0.04881178087294088
10.23094,4.352264623465521,0.048768644611938
10.235523999999998,4.297232795996228,0.04872566878314257
10.240119999999996,4.236804361841049,0.0486839341292241
10.244695999999998,4.179074231028812,0.04863813681760233
10.249292,4.119056492464697,0.04863462233291598
10.253875999999998,4.056096081129347,0.048653737180037876
10.258464,3.9939129195275007,0.048682199502243326
10.263051999999998,3.9282542048492073,0.048695599699644286
10.26764,3.858997752380323,0.048710334585685126
10.272236,3.790640734359086,0.048721106161393066
10.276832,3.7172978052430268,0.04877974295607451
10.281423999999998,3.634105238651471,0.04892298062380944
10.286019999999995,3.5566758328882386,0.04903995780149425
10.290608,3.4812896654485916,0.04913418315029538
10.295208,3.4122775824079987,0.04912732504141748
10.299788,3.3415888151862556,0.049110926941054185
10.304388,3.259618095736155,0.04915383328024914
10.308975999999998,3.1771144959808444,0.04915242651608168
10.313571999999995,3.092812027330237,0.04915225472242552
10.31816,3.008387373965485,0.049163463745815074
10.322751999999998,2.9278048278196156,0.04913532150063658
10.327344,2.845301228064305,0.04912758628617291
10.331936,2.763697062756642,0.0491201534240168
10.336527999999998,2.6781286055159503,0.049171868127699844
10.34112,2.5947255713129915,0.049177413677653624
10.345707999999998,2.5095236682147366,0.04919901427052005
10.350292,2.4198245928782427,0.04922740398535484
10.354879999999998,2.3287373442375188,0.04934492250989193
10.359472,2.2347074228255592,0.04954842038063445
10.364064,2.134137090851774,0.0498402090597412
10.368651999999996,2.0338111283062794,0.050138228393791624
10.373251999999995,1.9357727735126637,0.05038472983407548
10.377831999999998,1.8352804848043958,0.04787226246860265
10.382424,1.73388876164848,0.045372824993190924
10.387016,1.6320082996359813,0.04293358253926641
10.391603999999996,1.5347471945758675,0.04049240240970729
10.396211999999998,1.4467248034205238,0.03801292682105305
10.400803999999995,1.357192054246804,0.035566529268699645
10.405403999999995,1.2674149356447926,0.03311822558887193
10.409992,1.176616197880988,0.030668702741293928
10.414592,1.0827526026318022,0.02825740430780288
10.419183999999998,0.9946521682109412,0.025824910972760094
10.423772,0.9073289835235822,0.023390874110532776
10.428363999999998,0.8240922754833971,0.020909088738744645
10.432952,0.7398339482814186,0.01844837212248688
10.437555999999995,0.6594177282983228,0.015957599874666394
10.442135999999998,0.5829096413263042,0.01345927957450277
10.446735999999998,0.511143096020816,0.010896074244186588
10.451324,0.44771583017245004,0.008245291161760152
10.455924,0.39423850217016165,0.005519133296015186
10.460515999999998,0.34820101917734747,0.0027575378438245003
10.465107999999995,0.3092368270515704,0.0
10.469696,0.2733816338598021,0.0
10.474287999999998,0.24370029708742286,0.0
10.478876,0.21491839476269164,0.0
10.483472,0.18691374217146253,0.0
10.488059999999995,0.15776528570429427,0.0
10.492644,0.1374448475508307,0.0
10.497232,0.1209665166162499,0.0
10.501824,0.10640923929111043,0.0
10.506408,0.09467245002306021,0.0
10.511,0.0817918568790708,0.0
10.515591999999998,0.07238681681152712,0.0
10.520172,0.06441409149684213,0.0
10.524763999999998,0.05991691925860287,0.0
10.529356,0.06465846092513347,0.0
10.533939999999998,0.07293171459006105,0.0
10.538552,0.08312602186443,0.0
10.543128,0.09446413301473815,0.0
10.547719999999998,0.10292559718600582,0.0
10.552315999999998,0.11036544219547995,0.0
10.556912,0.11408536470021703,0.0
10.561508,0.12099232940448033,0.0
10.5661,0.12442374103229792,0.0
10.570691999999998,0.12695571821246765,0.0
10.575271999999998,0.12744445706905033,0.0
10.57986,0.12932136922986356,0.0
10.584447999999998,0.12621237029585483,0.0
10.589043999999998,0.12490224025714182,0.0
10.593628,0.1253909791137245,0.0
10.598223999999998,0.12755640215145722,0.0
10.602815999999995,0.12959964047504427,0.0
10.607408,0.13290886738871616,0.0
10.612008,0.13736189817832728,0.0
10.616608,0.1400160600726427,0.0
10.621199999999998,0.13288661028365434,0.0
10.625799999999998,0.12461335661872677,0.0
10.630388,0.11441904934435781,0.0
10.634971999999998,0.10308093819404968,0.0
10.63956,0.09288663091968075,0.0
10.644151999999998,0.08167070448351826,0.0
10.648743999999995,0.07237583165679715,0.0
10.653336,0.06103772050648901,0.0
10.657927999999998,0.05047685908968305,0.0
10.662508,0.04171486656817279,0.0
10.667103999999998,0.035895546817897424,0.0
10.671688,0.03073129208697858,0.0
10.676271999999996,0.0274880909655011,0.0
10.680884,0.02334545539637577,0.0
