Time,Force,Position
8.798680000000001,0.18103593817320734,0.0
8.803263999999999,0.17298516959300483,0.0
8.807856000000001,0.16403496656515446,0.0
8.812448,0.15532913296559542,0.0
8.817056000000001,0.14968815685141695,0.0
8.821644,0.14290337686129934,0.0
8.826248,0.13408085270941372,0.0
8.830836000000001,0.12513064968156334,0.0
8.835424,0.11311558916833245,0.0
8.840028,0.10314376697868857,0.0
8.844615999999998,0.09689186729378177,0.0
8.849208,0.08740878396072058,0.0
8.853788000000002,0.07804788534180501,0.0
8.858388000000001,0.07547176671300715,0.0
8.862976,0.08045767780782906,0.0
8.867576,0.08683176220688155,0.0
8.872160000000001,0.08834212022525778,0.0
8.87676,0.09099628211957317,0.0
8.881356,0.09659311678512347,0.0
8.885947999999999,0.10153488643131728,0.0
8.890540000000001,0.10749827523930458,0.0
8.895132,0.11039680656191134,0.0
8.899728,0.11983574844634437,0.0
8.904328,0.1304184942067166,0.0
8.908916000000001,0.13818075190999962,0.0
8.913512,0.14348907569863042,0.0
8.918099999999999,0.15467725086791193,0.0
8.922684,0.16497148575136467,0.0
8.92726,0.17166798284422602,0.0
8.93186,0.17452237271820464,0.0
8.936452,0.1757000784110332,0.0
8.941040000000001,0.18113058691380965,0.0
8.945632,0.18607235656000345,0.0
8.950212,0.18038723899719689,0.0
8.954804,0.17073782950136185,0.0
8.959388,0.1577791930918549,0.0
8.963975999999999,0.15005083720546125,0.0
8.968584,0.14399916550021763,0.0
8.973171999999998,0.1337884680441015,0.0
8.97776,0.12520481915868814,0.0
8.982356,0.11564918672192855,0.0
8.986947999999998,0.10886440673181089,0.0
8.991544000000001,0.09648828623796206,0.0
8.996127999999999,0.08386779631582188,0.0
9.000727999999999,0.07202455612718388,0.0
9.005308,0.06377905372913728,0.0
9.009908,0.05259087855985578,0.0
9.014499999999998,0.04140270339057429,0.0
9.019099999999998,0.03393445072602986,0.0
9.023692,0.029286686118574656,0.0
9.028288,0.02349511763518027,0.0
9.032875999999998,0.016026864970635848,0.0
9.03746,0.008802981734382771,0.0
9.042064,0.006442824878805967,0.0
9.046656,0.0042048527373748324,0.0
9.05124,0.004132303633676418,0.0
9.055836,0.003815385101686657,0.0
9.060427999999998,0.001699597674401195,0.0
9.065012,0.001699597674401195,0.0
9.0696,0.0008497988372005975,0.0
9.074196,0.0008497988372005975,0.0
9.078788,0.0,0.0
9.083368,0.0,0.0
9.08796,0.0,0.0
9.09254,0.0,0.0
9.097128,0.0,0.0
9.101724,0.0,0.0
9.106312,0.0,0.0
9.11092,0.0,0.0
9.115507999999998,0.0,0.0
9.120096,0.0,0.0
9.124692,0.0,0.0
9.129283999999998,0.0,0.0
9.13388,0.0,0.0
9.138459999999998,0.0,0.0
9.143059999999998,0.0,0.0
9.147644,0.0,0.0
9.152244,0.0,0.0
9.156835999999998,0.0,0.0
9.161435999999998,0.0,0.0
9.16602,0.0,0.0
9.170611999999998,0.0,0.0
9.175208,0.0,0.0
9.1798,0.0030593633235614652,0.0
9.184387999999998,0.007018161094770781,0.0
9.188984,0.010976958865980097,0.0
9.193572,0.010976958865980099,0.0
9.198156,0.01313688774189371,0.0
9.202744,0.015174631903661653,0.0
9.207336000000002,0.01823399522722312,0.0
9.211928,0.023092227446080287,0.0
9.216512000000002,0.026151590769641755,0.0
9.221108,0.0314985618450816,0.0
9.225696,0.03594609847287361,0.0
9.230287999999998,0.04435792703369403,0.0
9.234876,0.05391355947045364,0.0
9.239463999999998,0.05938271526003917,0.0
9.244072,0.06280863272603765,0.0
9.24866,0.06599018076374479,0.0
9.253256,0.0681501096396584,0.0
9.257839999999998,0.07334099418406322,0.0
9.262428,0.08688139781732881,0.0
9.267028,0.11085870031167039,0.0
9.27162,0.14029248473408512,0.0
9.276212,0.17914154885578232,0.007296342738095371
9.2808,0.22699519708569682,0.014630255556263756
9.2854,0.2890782157851228,0.02178830699174634
9.289988,0.356984270555059,0.029091174499682
9.294584,0.43323984441385593,0.036440104631514356
9.299172,0.5153129601813439,0.04400599631657789
9.303772,0.6070457250764058,0.05147898300491971
9.308356,0.7072943352231021,0.05914880764331306
9.312948,0.8118501292601134,0.06701653196176822
9.317536,0.926187757138844,0.07488057461466485
9.322132,1.0432780694408852,0.08288571618374088
9.326719999999998,1.169783661442209,0.09082497103787776
9.331312,1.3122008022560134,0.09861842752736563
9.3359,1.4691413185780677,0.10629224981185265
9.340488,1.636885287903635,0.11393409209021135
9.345076,1.815188340804424,0.12158879328063346
9.349671999999998,1.9970891314958044,0.12919152626077995
9.354268,2.173216521727122,0.13673461619696411
9.35886,2.3382519480780073,0.14427338790772376
9.363452,2.494893713891403,0.15179777340351858
9.36804,2.643386188595602,0.15193497816189594
9.372632,2.7864718169821745,0.1519416781000464
9.37722,2.9244391099280405,0.1520178950549216
9.381812,3.056877371842135,0.15191137364006055
9.386396,3.1804773758107863,0.15182513890699592
9.390988,3.298015468442455,0.151513617154502
9.395596,3.403439978031898,0.15129002389983423
9.400188,3.504312934302735,0.15078740154376247
9.404775999999998,3.596792230036082,0.15012926113371206
9.409372,3.6821879952706538,0.1494324207631371
9.413968,3.7620105880248262,0.14854753286437966
9.418564,3.830496847470274,0.1477362394957289
9.42316,3.888179653912209,0.14703706196560226
9.427751999999998,3.9345261270454204,0.14641128881663001
9.43234,3.969658451584053,0.1458119609002856
9.436936,3.9965193002993433,0.14514113443957236
9.441516,4.016751455555551,0.1445222761891347
9.446124,4.032486438573518,0.14401613053876242
9.450716,4.050797540220285,0.14346123355771162
9.455312,4.070130261028844,0.14287548785375848
9.459903999999998,4.08562087461852,0.1424072666085305
9.464496,4.096492131255812,0.14206482239039223
9.469096,4.100412281740213,0.1418692833684339
9.473688,4.099957444700519,0.14176613853246028
9.478279999999998,4.10330057343108,0.14148295981649525
9.482872,4.1108523635229615,0.14105964681312705
9.48746,4.1172603497389035,0.14067956223168387
9.492055999999998,4.121625097631258,0.1403690138406954
9.496648,4.129831952742495,0.13995295691481502
9.501236,4.137383742834377,0.1395357725154123
9.505824,4.14097124099323,0.1392342966705217
9.510416,4.145335988885584,0.13892511301046356
9.515012,4.148679117616146,0.13864961187653035
9.5196,4.152144431060853,0.1383638449634976
9.524192,4.156142624810771,0.13809611453747006
9.52878,4.156953776361163,0.13793746677578642
9.533376,4.158786547073347,0.1377471929154678
9.537968,4.1654830441662085,0.13742314386976265
9.542559999999998,4.171157922097277,0.13713394820861888
9.547156,4.175566811438259,0.1369022847563613
9.551744,4.182307449979749,0.13665032222910922
9.556332,4.187371404340088,0.13642073320839854
9.560928,4.194478597024014,0.13612569365691612
9.565516,4.206816070231054,0.1356603071254428
9.570108,4.21506706679092,0.13532642118843058
9.574696,4.214612229751227,0.1352262793758938
9.579292,4.217100065482768,0.13504454664872112
9.58388,4.218688466766661,0.13488137137907305
9.58848,4.2183558144411135,0.13476887319350955
9.59306,4.216102108506124,0.13470578076879705
9.59766,4.219855932827751,0.1344703039641864
9.602256,4.2238541265776695,0.13421036436866948
9.606848,4.226420005574727,0.13394890833139983
9.611444,4.2268204615340546,0.13376170892090936
9.616036,4.225910787454669,0.13356058569767143
9.620624,4.227533090555452,0.1332469712110157
9.625224,4.226701459741584,0.13296311873357453
9.6298,4.220595406955972,0.13277602240097483
9.634388,4.211380355236353,0.1326108057203891
9.638976,4.202121162068105,0.1323749929741771
9.643572,4.191018958555934,0.13210499425014235
9.64816,4.18220436279564,0.13174656113262695
9.652756,4.170691463692404,0.1314413648317623
9.657348,4.151494350151402,0.13133186120195037
9.661924,4.132008725733481,0.13117582407170972
9.666508,4.116731762676879,0.13088117881081412
9.671091999999998,4.0972019968103295,0.13065171347428725
9.675667999999998,4.080082023409804,0.1303169527459113
9.680264,4.065371842475303,0.12987915280248793
9.68484,4.049229346787943,0.1294360882599453
9.689428,4.029489113309991,0.12906143921593913
9.694019999999998,4.011914302869772,0.12861068220613053
9.698595999999998,3.996138361324849,0.12812241099740412
9.703195999999998,3.9807289739223624,0.1275942279987974
9.707776,3.966996270701027,0.12704148476427898
9.712371999999998,3.9546958822325493,0.1264921125570452
9.716964,3.946115416268809,0.12586188405539353
9.721564,3.9419099378291627,0.1251596189336684
9.726156,3.9399140238758767,0.1244536903314709
9.730747999999998,3.942948162466041,0.12369507862516502
9.735336,3.949457854132651,0.12288791908046191
9.739928,3.9576442299804113,0.12206461195072398
9.744528,3.971349397228204,0.12113770593065082
9.74912,3.991350605609531,0.12009347010973632
9.753696,4.013439193763074,0.11906515257246157
9.758292,4.036182846935974,0.1180547662751806
9.76288,4.065755421547619,0.1169621078329162
9.767475999999998,4.093451083998451,0.11599109222198811
9.772064,4.117593150107321,0.11515899069475587
9.776656,4.146520899331348,0.11430076255118385
9.781252,4.175614974718149,0.11349988419852457
9.78584,4.201277638477133,0.11282295556203824
9.790432,4.2293942361507675,0.1121374969913514
9.795012,4.260086952453203,0.11142865691229503
9.799604,4.290535299327345,0.11074579916839294
9.804199999999998,4.318940407877901,0.11012161862858558
9.808788,4.345957343124226,0.10956850108236164
9.813396,4.3709310400469645,0.10907136964065325
9.817984,4.401790082512172,0.10846419910930534
9.822584,4.423288226358464,0.10802354396099043
9.827176,4.4424987624528764,0.10765923524448685
9.831764,4.46338598272844,0.10728959712669012
9.836356,4.47965384605162,0.10699606003011494
9.840936,4.494489394621939,0.10669765084520251
9.845532,4.51071311649649,0.10634866301291034
9.85012,4.5261595886375385,0.10600380868575002
9.85472,4.536209454092701,0.10572979184960198
9.859303999999998,4.546992427832735,0.10539167653501631
9.863908,4.558264140429353,0.1050090658428583
9.868492,4.566671223520253,0.10460987221790707
9.873084,4.575933599610174,0.10413645680411505
9.877672,4.584907464823175,0.10361770248018674
9.882268,4.586930223883284,0.10316467572454495
9.886855999999998,4.581879692076356,0.10278641357599862
9.891448,4.580382756611392,0.10230229518187199
9.896036,4.578597310269509,0.10177463614398342
9.900624,4.5708823769365265,0.1012853429817491
9.905212,4.565699420783715,0.1007115165629927
9.909807999999998,4.547557828221395,0.10031557949501435
9.914396,4.5342799620397525,0.09983075702062635
9.918976,4.517770912209956,0.09935272589401029
9.923568,4.497786309303713,0.0989056931099979
9.928148,4.480622194454559,0.09841411155153644
9.93274,4.46358026431955,0.09790910474730721
9.937332,4.442696226965659,0.09746437942198988
9.941916,4.418869516840534,0.09706887311551021
9.946524,4.397086045038995,0.09662894409612613
9.9511,4.373381519628016,0.09621617273004408
9.9557,4.35237529755998,0.09577148605035153
9.960292,4.331657586368863,0.09536887685766583
9.96488,4.315314862701839,0.09492871931315648
9.969476,4.302203322682971,0.09448231080073442
9.974052,4.299762811321729,0.09393848536500307
9.978652,4.305950090294531,0.09333392439802213
9.98324,4.309605392087162,0.09281727646478581
9.987839999999998,4.315470258366155,0.09231887399596467
9.992428,4.33188396858863,0.09174003803245055
9.997028,4.344744082469142,0.09126276476602829
10.001612000000002,4.370440648045015,0.09064648453153402
10.006204,4.4005122011449815,0.09001152451275202
10.010784,4.439455914007282,0.08931360492227078
10.01538,4.482774614393675,0.08859730542726618
10.019968,4.526626195085279,0.0879130875486344
10.024563999999998,4.571421351673159,0.08729100836919881
10.029152,4.621368745518634,0.08664932055139937
10.033736,4.679655418821231,0.08593107260628938
10.038324,4.7451375677050125,0.08518081413042312
10.04292,4.820269126084628,0.08439421920367882
10.047515999999998,4.898754052826543,0.08362558808757037
10.052096,4.978260598730253,0.08284472832978498
10.056688,5.053802852700933,0.08214135523474253
10.061276,5.131266160281055,0.08143380276151593
10.065872,5.205131730070585,0.08077796226895385
10.07046,5.282062157345497,0.08010376996162091
10.075048,5.364633560734587,0.07939980476181402
10.07964,5.449126017733119,0.07869274050680103
10.084228,5.53026510636935,0.07801132138511051
10.08884,5.614591237205106,0.07728517444962972
10.093424,5.693276391926686,0.07662318027910754
10.098016,5.766442755248232,0.07600943149634613
10.102612,5.835111946331537,0.07543465759679781
10.107204,5.900183399624254,0.07488800114993076
10.1118,5.967542460668847,0.07431309590944986
10.116388,6.035634629998315,0.07369867179223111
10.120984,6.0995961812319806,0.0730893487884447
10.125571999999998,6.157261691332111,0.07252096425551709
10.130171999999998,6.203889618632176,0.07202290773570634
10.134756,6.240990321150551,0.0715538293278541
10.139356,6.269218863906594,0.07111695414038904
10.14394,6.298591210538576,0.07066596347606942
10.148532,6.326409057703554,0.07020898465148236
10.15312,6.350995721220378,0.06974979146666177
10.157716,6.370185778051314,0.06931188936142448
10.162304,6.378460436796331,0.06892261198694748
10.166899999999998,6.374798078293633,0.06858957262960796
10.171484,6.36316299447625,0.0682764857732355
10.176068,6.350872845639512,0.06795265924529395
10.180656,6.3360065781739765,0.06763013728936519
10.185256,6.318686376793788,0.06730019758252424
10.189848,6.301732729556036,0.06694735437946281
10.19444,6.282447333117778,0.06657993308752852
10.199027999999998,6.262751241088455,0.06618500370683618
10.203604,6.233938619868507,0.0658208111833623
10.2082,6.20062882641032,0.06546651078051077
10.212788,6.163721295161541,0.06511779521879267
10.217375999999998,6.12885700223635,0.06474716507397006
10.221972,6.096280317063036,0.0643385815828697
10.22656,6.061782578280283,0.06393679647479428
10.231148,6.030471881697055,0.06349416136442347
10.23574,5.998750489522761,0.06302356305778213
10.240332,5.964330794005524,0.06255446766546192
10.244924,5.927090610431199,0.06209390830876511
10.249503999999998,5.89189366518046,0.06161047254363971
10.254103999999998,5.861438261596251,0.0610978413613493
10.258692,5.836090953821011,0.0605323160494413
10.263292,5.813441949388714,0.05995453649717821
10.267876,5.786828653023388,0.05940328661565376
10.272476,5.760337541372209,0.05884102215274912
10.27706,5.736666917778119,0.058262587256377105
10.281652,5.714017913345821,0.05767275300507501
10.28624,5.6919017892187345,0.05710008863184481
10.290836,5.670196360682714,0.056553680175349154
10.295424,5.6547869732802285,0.0559931700200354
10.300016,5.6408099006306,0.05544884534928097
10.304604,5.631452184933359,0.05488630233465291
10.309192,5.61800799258894,0.05435675595512733
10.31378,5.604974495835589,0.053853552018599184
10.318372,5.595294367444538,0.05335797057562036
10.322968,5.582182827425668,0.05290717740829588
10.327559999999998,5.560776149398307,0.05252855856540991
10.332152,5.54284502444739,0.052150732877894054
10.336732,5.529166702306421,0.05178268639238439
10.341328,5.5171650643466,0.05142010762478373
10.345908,5.504919056958491,0.05107237921122754
10.350496,5.488997268514272,0.05078524749451155
10.3551,5.477572652308292,0.0504948924573084
10.359687999999998,5.4669252858358135,0.0502091448389374
10.36428,5.455544811078462,0.0499687382124612
10.368872,5.440855109407437,0.0497671423807283
10.37346,5.423755615270389,0.04960386371124714
10.378056,5.403713448362106,0.049455652123156175
10.382636000000002,5.380728608682587,0.04932301016687221
10.387232,5.356477780412985,0.04921359975689378
10.391811999999998,5.330428083248088,0.049103362461099226
10.396411999999998,5.303889647226606,0.04902336255807051
10.400996,5.2801716992622145,0.048933357486516706
10.405596,5.258374804907265,0.04883413395532185
10.410187999999998,5.234779041657019,0.04873419592386249
10.414784,5.215924820073303,0.048616687429870464
10.419368,5.203733193765559,0.04847307143087032
10.423963999999998,5.188476709972435,0.04835318984067664
10.428564,5.165536011741546,0.048265942597053677
10.43316,5.136832152682332,0.04820205816790676
10.437756,5.105307805566029,0.04814478173052148
10.442352,5.080690423153989,0.0480455491037679
10.44694,5.0492882607518315,0.047978260795993405
10.451536,5.0168644791878805,0.04791816472805908
10.456124,4.982641828728634,0.04785864034768516
10.460719999999998,4.9505846013071215,0.047772690210792106
10.465308,4.916728504990312,0.04768567698156434
10.469904,4.8854485273023,0.0476071953885564
10.4745,4.8513480615572,0.04753671076871258
10.479076,4.812994793002151,0.047446202614679994
10.48366,4.774519339732955,0.047362923470225186
10.488256,4.733345583120816,0.04727891619376178
10.492832,4.688329719289796,0.04721049342316359
10.497436,4.636773444896949,0.04715703188683681
10.502024,4.58137506328522,0.04712085401806235
10.506632,4.51817028252158,0.047132340778798694
10.511212,4.452389383129141,0.04712950718704657
10.515812,4.384809614841407,0.04712912557667407
10.520404,4.319273084877259,0.047111749986025915
10.525004,4.254513804646614,0.04710587368790927
10.529608,4.186811851644733,0.04712054872632129
10.534199999999998,4.108727380862144,0.047173338859814444
10.538796,4.028844041184258,0.04723147255956483
10.543376,3.9471618326110782,0.047290552477445166
10.547972,3.862126255675597,0.047327539493570124
10.552564,3.7703058987499984,0.04741290361364029
10.557164,3.676564488214959,0.04751608624886854
10.561744,3.5794697093176193,0.047595776008799884
10.56634,3.486339222353308,0.04763480414645077
10.57092,3.39284218124656,0.0477109377039939
10.575516,3.297546271244516,0.047788531325575555
10.580104,3.1976310042900864,0.04788698274321655
10.584696,3.0984929870691595,0.048006758310968956
10.589284,3.0019310884770305,0.04814950840732924
10.593868,2.9072902434943435,0.04828621886379419
10.598456,2.816980244587121,0.04833084118536235
10.603048,2.7236053881945184,0.048421635219687155
10.60764,2.632273770125503,0.04848062280369779
10.612227999999998,2.539021098447046,0.04856622390784504
10.61682,2.4460127961968805,0.04861754417539476
10.6214,2.35480336284201,0.04868513857335878
10.625996,2.267313851991877,0.04874308357707686
10.630584,2.1818675794653313,0.04876148934474709
10.635172,2.0992417949958746,0.048750483302395675
10.639768,2.0199693788887183,0.04878428129281773
10.644355999999998,1.9474817427716793,0.04872563949290823
10.648955999999998,1.8787140291593771,0.04864929252998786
10.653552,1.811745184442371,0.04855283011443922
10.65814,1.739790428630543,0.0485563376124691
10.662736,1.6668140536569214,0.04862670598200747
10.667331999999998,1.596535982026243,0.04869966991250931
10.671928,1.532920505671537,0.048666270785309496
10.676507999999998,1.4676283451356809,0.048613304185729685
10.681107999999998,1.4006595004186748,0.04613183508946181
10.685696,1.33561170931111,0.043647464817168136
10.690296,1.2741616559941364,0.041223968855669674
10.69488,1.2134888524106653,0.03877686202927469
10.69948,1.150650625789461,0.036351209979445284
10.704064,1.092553940834788,0.03389959346255697
10.708656,1.0321696481282363,0.03147105123542421
10.713248,0.9719075401358304,0.02901465089528888
10.71784,0.9124226818769264,0.026555516563636177
10.722432,0.8553917575326749,0.02412255287722308
10.727024,0.7964397795789819,0.021718545000830987
10.731611999999998,0.7405526591106696,0.019283321696553467
10.736204,0.6825001156046243,0.016910368166792575
10.740784,0.620727649593842,0.014538136384737319
10.74538,0.558832998868914,0.012200515764512341
10.749972,0.5029072311137924,0.009795232115611587
10.75456,0.45262243947284936,0.00730600570949887
10.759156,0.404136516727202,0.004813433682165396
10.763744,0.3563056590009112,0.002407095048482817
10.768336,0.31297197351285966,0.0
10.772924,0.27413546026304736,0.0
10.777511999999998,0.23697563119438508,0.0
10.782104,0.19854981353563791,0.0
10.786692,0.16486553754342131,0.0
10.79128,0.13592280321773534,0.0
10.795876,0.10775731862555155,0.0
10.800463999999998,0.08535499486169189,0.0
10.80506,0.06655040888842363,0.0
10.809652,0.05056631097224461,0.0
10.814256,0.0356038322178591,0.0
10.818836,0.024239091254064996,0.0
10.823428,0.01262998086197955,0.0
10.828008,0.0038413585269833268,0.0
10.832608,0.0005715275920198859,0.0
10.837191999999998,0.0,0.0
10.841788,0.0,0.0
10.846376,0.0,0.0
10.850964,0.0,0.0
10.855552,0.0,0.0
10.860143999999998,0.0,0.0
10.864732,0.0,0.0
10.869319999999998,0.0,0.0
10.873912,0.0,0.0
10.878508,0.0,0.0
