Time,Force,Position
8.705976,0.22302205518628188,0.0
8.71058,0.2248209240815776,0.0
8.715160000000001,0.22944028103396247,0.0
8.719756,0.23994498352881719,0.0
8.724343999999999,0.24570814435714133,0.0
8.728936000000001,0.25850045460387444,0.0
8.733519999999999,0.26835009207937266,0.0
8.738111999999997,0.2723143840124011,0.0
8.742704,0.2705155151171054,0.0
8.747304,0.2657739734505748,0.0
8.751895999999999,0.2638529198411334,0.0
8.756488000000001,0.25988862790810496,0.0
8.761084,0.2509384248802546,0.0
8.765676,0.23328238825284525,0.0
8.770264000000001,0.22049007800611214,0.0
8.774856,0.20781995247352467,0.0
8.779443999999998,0.19604926138858508,0.0
8.784019999999998,0.18325695114185198,0.0
8.788604,0.16878795671396885,0.0
8.793191999999998,0.1535417125525835,0.0
8.797788,0.14213757561008095,0.0
8.802371999999998,0.13367611143881328,0.0
8.806956,0.12443739753404341,0.0
8.811551999999999,0.11057932667688865,0.0
8.81614,0.09941955916267743,0.0
8.820743999999998,0.08370341144467335,0.0
8.825327999999999,0.07003050205025632,0.0
8.829919999999998,0.05840083097942635,0.0
8.834516,0.05151270157512699,0.0
8.839103999999999,0.049303137088766116,0.0
8.843699999999998,0.04517251899296388,0.0
8.848279999999999,0.03942819346460372,0.0
8.852875999999998,0.036319194530595,0.0
8.857464,0.03531641066876542,0.0
8.862055999999999,0.03149313874984662,0.0
8.866644,0.026648247669134293,0.0
8.871244,0.021984749268121214,0.0
8.875827999999998,0.01924230447654951,0.0
8.88042,0.017399294132625656,0.0
8.885008,0.016152140842504742,0.0
8.889603999999999,0.0138833683905903,0.0
8.894199999999998,0.011492411224530187,0.0
8.898792,0.00807983489667655,0.0
8.903383999999999,0.00736556191176647,0.0
8.907975999999998,0.005751854479208539,0.0
8.912568,0.005751854479208539,0.0
8.917164,0.01519244032715521,0.0
8.921751999999998,0.02955113363614508,0.0
8.926348,0.05638996412979798,0.0
8.93094,0.08976437830009056,0.0
8.935535999999999,0.13394224547389613,0.008712065919903795
8.940127999999998,0.1878389697408291,0.017223722615194795
8.944716,0.2479827668074822,0.025861551458921106
8.949307999999998,0.31850048598661923,0.03435709191850331
8.953892,0.3965124312555973,0.04299134068347191
8.958468,0.4839396562238579,0.051576523521169655
8.963079999999998,0.5804785834975559,0.06015158503725633
8.967664,0.683367932985156,0.06885223223592676
8.972251999999997,0.796694181333832,0.07743548035065805
8.976835999999999,0.9216603403850768,0.0859209392082186
8.981435999999999,1.0560417791356038,0.09438490105477847
8.98604,1.200860116747207,0.10277307575083179
8.990631999999998,1.359957460438769,0.11092629287388216
8.995228000000001,1.5293695182772618,0.11905037307126211
8.999803999999997,1.7111395285862714,0.1270615683722985
9.0044,1.897983732887359,0.13503236791667045
9.008979999999998,2.076042416359857,0.14300602625601494
9.013579999999996,2.2558455876472836,0.1507560558227125
9.018172,2.422147002588254,0.1585452258768755
9.022755999999998,2.5822201800294673,0.16625652469028415
9.027344,2.7349654575436135,0.16521097847546587
9.031935999999998,2.8809157154359033,0.16434949370970325
9.03654,3.0222363767440696,0.16333233082802104
9.041124,3.1553297036775207,0.1624515618698842
9.045711999999998,3.284770911740014,0.16131531009107902
9.050296,3.4049190248173695,0.1602150400576696
9.054883999999998,3.513852989300147,0.1591825762865261
9.059476,3.614637662673727,0.15803382451236053
9.064059999999998,3.703841633310293,0.1570519469358373
9.068639999999998,3.78657299701881,0.15603833209506748
9.073224,3.8616879499233403,0.15500265603836683
9.077807999999996,3.926488188680941,0.15402985112119671
9.082404,3.9752105524632873,0.15333542459466407
9.087,4.013740386812849,0.15265709691366455
9.091587999999998,4.042977126177274,0.15198859465671732
9.09618,4.06546298736847,0.15139008728725648
9.100768,4.088437587416249,0.1507418065395691
9.105348,4.10295072329276,0.15035962164229352
9.109952,4.117463859169272,0.14997282088650793
9.114539999999998,4.128134887826899,0.14970761310170966
9.119144,4.135819102264666,0.14946970282094968
9.123732,4.141782491072653,0.14919551953937632
9.128332,4.146802303984364,0.14887709357128556
9.13292,4.151900160161592,0.14847893910949703
9.13752,4.152500844100582,0.1481926082302942
9.142108,4.156943635258455,0.14779976121580354
9.146708,4.1634296647399145,0.14733666043373722
9.151291999999998,4.175556670335552,0.1467304246775861
9.155884,4.192014522006654,0.1459708858188699
9.160472,4.2027092128494346,0.14537746810937394
9.165067999999998,4.212626653958711,0.1447972132926585
9.169664,4.224342963963284,0.1441818040212689
9.174264,4.244642922853269,0.14335538220049215
9.178852,4.266863935352698,0.14248623117898868
9.183448,4.284099036757303,0.1417644708531077
9.188036,4.304809691238354,0.14098009718265056
9.192624,4.325275976291113,0.1402263238575055
9.197212,4.347418945525023,0.1394413597102936
9.201804,4.371605153082521,0.13859440702445466
9.2064,4.401554521468341,0.13760722923090288
9.210991999999996,4.432036770159374,0.13663753304163598
9.215584,4.46100866083203,0.1357470378913515
9.220171999999998,4.488592378200455,0.13493029139506865
9.224764,4.514665737550503,0.13419916785308228
9.229347999999998,4.539473108310468,0.13351569543078723
9.233936,4.557740068508606,0.13298892613545246
9.238543999999996,4.580215690068063,0.13234429542668597
9.243132,4.597050335513341,0.13183796618828608
9.247736,4.609920689025591,0.13143995889025528
9.252319999999996,4.625733715309076,0.13096773052698274
9.256895999999998,4.641136046001497,0.13047090655763227
9.261499999999998,4.654084442779265,0.13000434216447845
9.266088,4.654851452881029,0.1297981320826783
9.270684,4.651121290744553,0.1296728463254905
9.275271999999998,4.648901486626452,0.1294735529802046
9.279868,4.645371552469641,0.12926163471463972
9.284456,4.6405314882741155,0.12903622776014698
9.28906,4.634625663468167,0.12877386472156413
9.293651999999998,4.624589220566418,0.12855618842250263
9.298251999999998,4.609278355692927,0.12842045012397765
9.302844,4.594456229676019,0.12823814855724158
9.307436,4.581266646391633,0.12797135148270405
9.312023999999996,4.565745313906739,0.1277165384730706
9.31662,4.551612154726077,0.12739967795277063
9.321216,4.541809841620879,0.12695247844880486
9.325816,4.536749070182213,0.12640489794568427
9.330407999999998,4.52375971487749,0.1260464906882834
9.335,4.509993109839264,0.1256905744768411
9.339588,4.495693624495827,0.12531396056302804
9.344176,4.481516323866538,0.12492533089292628
9.34876,4.465051415485368,0.1246098929847153
9.353355999999998,4.4475648879424075,0.12431903450684299
9.357936,4.4395614437325035,0.12383010537647357
9.362516,4.4362995411891335,0.1232422383832315
9.367107999999998,4.433570518950975,0.1226727789895577
9.371696,4.426632835351495,0.1222169921814946
9.376283999999998,4.4201058473430805,0.12179100830030125
9.380876,4.415544054392735,0.12138778215894093
9.385464,4.419976605918868,0.12083880428311289
9.390059999999998,4.425597102769569,0.12031547962727752
9.394652,4.431628295211335,0.11982524413185722
9.399231999999998,4.439746867425316,0.11935313465269963
9.403828,4.450974438573306,0.11886683305009652
9.408404,4.461713270864713,0.11842957523762668
9.413004,4.470941745137744,0.11806705320409393
9.417592,4.479681480554192,0.11775296655625393
9.422187999999998,4.494717257104176,0.11734245977681047
9.426776,4.515027455625901,0.11686573565682487
9.431376,4.535381795596254,0.1164484564070163
9.435968,4.555247396710024,0.11607901102185847
9.440559999999998,4.581164669529039,0.11564174027534928
9.445144,4.6122341796056485,0.1151512615251152
9.449739999999998,4.639217213035083,0.11476609084777727
9.454328,4.664567703731997,0.11446323327272212
9.45892,4.692494313057709,0.11413768693745734
9.463496,4.728760201840543,0.11367945568650026
9.468092,4.76604770978517,0.1132008939913433
9.47268,4.804479021605736,0.1126945801050204
9.477276,4.835881184007892,0.11234641396308112
9.481868,4.868304965571842,0.11197657863616484
9.486459999999996,4.900973116564085,0.11159074777252263
9.491052,4.9302878991940275,0.11123613670723176
9.495639999999998,4.959069801518758,0.11086476794223266
9.500232,4.984253966052898,0.11053767927800118
9.504811999999998,5.009926869443621,0.11017486773519591
9.5094,5.030447535576749,0.10985905384213687
9.513996,5.049535886957017,0.10954157187341504
9.518584,5.063472001079689,0.10927527426654762
9.523196,5.081083896258471,0.10889736468580052
9.527787999999996,5.096608411665037,0.1085032232297011
9.532391999999998,5.106569994222941,0.10813088428222235
9.536988,5.1095804706279555,0.10782608862326415
9.541576,5.108338144223021,0.10755343505500407
9.54618,5.108073295531252,0.10720272455884558
9.55078,5.104943817333766,0.10683723879636753
9.555384,5.097028656021121,0.10648760631894959
9.559976,5.087803364669763,0.1061192069386768
9.564571999999998,5.073670205489099,0.1057713556578717
9.56916,5.059615089573955,0.10535398791169168
9.57376,5.044372028334243,0.10490730086408773
9.578336,5.027574467627526,0.10445998504875452
9.58294,5.01384176440619,0.10395348409854713
9.587528,5.002396668936732,0.10338987430399871
9.592128,4.995038050114449,0.10274796922663604
9.596719999999998,4.9865356274162265,0.10213559501152004
9.601312,4.979299193308088,0.10147815577420256
9.605912,4.969364455857007,0.10084810308796563
9.610504,4.9602069681394285,0.10021525145040669
9.615104,4.948106807650612,0.09963013251293515
9.619704,4.940626004114183,0.09899031068040223
9.624295999999998,4.934699700044757,0.0983497540155111
9.628895999999996,4.936335425698952,0.0976102076261866
9.633484,4.945288811648476,0.09678866502229584
9.638071999999998,4.9518324051319755,0.09603471327854338
9.642647999999998,4.95931957451175,0.09533142811112025
9.647244,4.9669730700543,0.09467694112275185
9.651836,4.979778802854446,0.09399899482265867
9.656423999999998,5.000312891540983,0.09327969616765115
9.66102,5.024488859466742,0.09258940086152939
9.665608,5.050874391878861,0.09191746941986993
9.670199999999998,5.08228997683443,0.09123580122462613
9.674784,5.112073019057477,0.09062420524640942
9.679375999999998,5.140878583567359,0.09009328010250557
9.683984,5.171116462830098,0.08958291545932219
9.688572,5.203808276007492,0.08907392523199009
9.693175999999998,5.24614949868072,0.08851624133570454
9.697764,5.291844089716248,0.08795164815612702
9.702351999999998,5.343057472151808,0.08734794906702947
9.706948,5.400200341578467,0.08673440112787503
9.71154,5.458408971615547,0.08617650599679894
9.716144,5.5216476541960775,0.08561846110003685
9.720724,5.587218085977114,0.08509165706046698
9.725324,5.654343017225155,0.08458557772647785
9.729912,5.728785608768525,0.08403787344237512
9.734512,5.8056379927779185,0.08344858319067353
9.739096,5.884411430396754,0.08284458990230337
9.743696,5.958443326349059,0.08229636439245197
9.748279999999998,6.028510930368335,0.08180250319904253
9.752872,6.097146219634753,0.08130215950426495
9.757464,6.169745800834199,0.08077424464149913
9.762059999999998,6.240913067280785,0.08024915989073263
9.766655999999998,6.313468507031603,0.0796953025770149
9.77124,6.385857620619646,0.07910760859155473
9.775828,6.458735473064273,0.0785045390310634
9.780411999999998,6.532224249079627,0.07787813464484478
9.784987999999998,6.593898192561414,0.0773224319121315
9.789572,6.654917071023846,0.07676341253257286
9.794155999999996,6.711194407819745,0.07624802660652102
9.798735999999998,6.75896613899575,0.07574975621454275
9.803324,6.800153318161298,0.07525195449844745
9.807907999999998,6.834755945316394,0.07475660631385747
9.812496,6.858565359099715,0.0743097552872695
9.817092,6.876567470606084,0.0738652762628391
9.82168,6.88516454204491,0.07343658273812774
9.826272,6.889386625959641,0.07302026945498888
9.830868,6.891399145388012,0.07258845127944147
9.835456,6.893900403672965,0.07213051241462934
9.840056,6.894925205756433,0.07161573138645258
9.844652,6.8918193897440965,0.0710953181051475
9.849252,6.877798175645841,0.07061887733912973
9.853832,6.85273937874752,0.07018862473871756
9.858428,6.823672148467542,0.06974414387162411
9.863015999999998,6.792150984272913,0.0692922938244001
9.86762,6.754211594230602,0.06886395473474506
9.872208,6.707277859711814,0.06845790219487083
9.876808,6.666351655449639,0.06799806424161764
9.881391999999998,6.622072082825166,0.06753159575727898
9.885984,6.574927880694974,0.06703006810559826
9.890584,6.532525220231312,0.06649736991536559
9.89518,6.488568060300647,0.06594788237424767
9.899784,6.443833650636481,0.06538696174932626
9.904376,6.401264664010048,0.06479321841704792
9.908967999999998,6.357796242935965,0.06419482691962941
9.91356,6.314982886881239,0.06359965090254374
9.918143999999998,6.273068965274164,0.06299671676907648
9.922739999999996,6.231399413095376,0.06237434341110424
9.927328,6.186132123125999,0.061753107666323
9.931919999999998,6.137966301834014,0.06119043435939766
9.936512,6.095441456656208,0.06059697441172512
9.941104,6.054959849801989,0.05997560370973617
9.945695999999998,6.025882379890273,0.05929126516264405
9.950276,5.996071801693683,0.058642438857566766
9.954867999999998,5.964995234907007,0.05801015402580858
9.959452,5.9364947867491304,0.05737461674796481
9.96404,5.9118805872587625,0.056759026253431426
9.968636,5.886244768606602,0.05615096491103054
9.973228,5.861386199687944,0.05554287097739119
9.977816,5.8396366297032944,0.05495390143190926
9.982408,5.816743255842706,0.05437985137355925
9.986995999999998,5.798513380383131,0.05383899373281957
9.991588,5.779550396638681,0.05333648209562109
9.996175999999998,5.762919162094739,0.05285007356789167
10.000775999999998,5.745677003980067,0.052395599307029195
10.005364,5.728845541456462,0.051966040955554765
10.00996,5.71050372091448,0.05157187547856965
10.014547999999998,5.691184422659331,0.05123516566045175
10.019147999999998,5.673830319462254,0.05093809445767571
10.023732,5.662239377093499,0.0506131483373739
10.028323999999998,5.6481164575445755,0.0503344108994361
10.032912,5.6398008402726045,0.05008081736321851
10.037503999999998,5.627032192211021,0.04988111519841022
10.042103999999998,5.61786128194003,0.04967897696587171
10.046699999999998,5.610122686421898,0.04949698926451538
10.051288,5.602017536761328,0.049336659946419524
10.055872,5.596855059871993,0.04916004035948038
10.06046,5.589282790516636,0.04902064789554445
10.065051999999998,5.58469733538114,0.04891754590233905
10.06964,5.576802653331972,0.04885209458262262
10.074232,5.5645771252073395,0.048832126419825345
10.07882,5.550797097615703,0.0487970706372383
10.083408,5.538938123633506,0.048753717965378064
10.087992,5.52515809604187,0.048717614232370275
10.092575999999998,5.513299122059673,0.048673230631352725
10.097164,5.50336120168692,0.04862068186687681
10.101772,5.492523846866517,0.0485678027800059
10.10636,5.4829524806362,0.04849136416702174
10.110948,5.471704430224731,0.048406930489099075
10.115544,5.454571034270794,0.048353653130831585
10.120131999999998,5.432696096650327,0.04831609159133649
10.124727999999998,5.4017046298392355,0.048286517662114496
10.129324,5.366093806075757,0.04826553019627417
10.133916,5.325985810074042,0.0482435863100643
10.138507999999998,5.283057326015236,0.04823049416426536
10.143107999999998,5.235753854432336,0.04820852477429556
10.147696,5.182032157001756,0.048192461504446386
10.152292,5.123691102618791,0.04818573474575875
10.156883999999998,5.057499507635288,0.04816183524144181
10.161483999999998,4.9898755978989255,0.04811239631431792
10.166076,4.923639861466793,0.048026565171723754
10.170672,4.852784768082276,0.04794464168529482
10.175255999999996,4.7771881330312285,0.04787973269874178
10.179848,4.700814248246678,0.047800210608377997
10.184435999999998,4.622641494566833,0.04771659796592902
10.189024,4.536007276715719,0.047660505634185654
10.193611999999998,4.444753701912221,0.04761416753869073
10.198204,4.345938097385104,0.04759422493524323
10.202792,4.2482662967339255,0.04754880311946474
10.207383999999998,4.151982669386977,0.04745616718082453
10.211968,4.052878553982939,0.04737763823490558
10.216559999999998,3.955573307474197,0.04729678788657804
10.221148,3.861088549022544,0.04720583776744882
10.225732,3.7655821714090982,0.04712098944931525
10.230328,3.6695429134904414,0.0469947734193793
10.234911999999998,3.5763241436288737,0.046844823470840555
10.2395,3.485681492396104,0.04670114758668167
10.244096,3.401823621153452,0.046501937904163154
10.248684,3.3168219460348607,0.046317660542523134
10.253272,3.230798651754476,0.04613516236427373
10.257867999999998,3.1427321191505033,0.045965613308825905
10.262463999999998,3.0551984668517425,0.0458358651867492
10.267067999999998,2.9688086184289206,0.04567031108935755
10.27166,2.875511805301835,0.045571006268963134
10.27626,2.7802939385653094,0.045475945190845704
10.280839999999998,2.6909614173712524,0.045311357015277214
10.285436,2.6063704378437262,0.045107408166743926
10.290024,2.52484431580158,0.044831540794109594
10.294632,2.4374328482169645,0.04460553011330127
10.299219999999998,2.345934903985175,0.04442261186475916
10.303819999999998,2.258401251686414,0.04417243658534493
10.308404,2.16984598022586,0.04392924868103782
10.312995999999998,2.0766713518129207,0.04368289174477519
10.317591999999998,1.984396157847629,0.04341636603391917
10.322188,1.8908549752922523,0.043186032466543234
10.326776,1.7941267505373493,0.04304361795029073
10.331371999999998,1.6936786032777096,0.04079372794995058
10.33596,1.5842802529902194,0.03858996656661969
10.340543999999998,1.4832211821598513,0.03638100284058892
10.345132,1.3858820338342202,0.03418043262389118
10.349723999999998,1.28739908163265,0.031987444864825035
10.354312,1.191081552468812,0.029766054684816395
10.358904,1.0963185227719785,0.027571093047390086
10.363495999999998,1.0089953380846195,0.025332113779370943
10.368088,0.9224494031307624,0.023100732503572866
10.37268,0.8364363484821162,0.020919165023253763
10.37726,0.7529994124622682,0.018767171485363172
10.381843999999996,0.6726714753764289,0.016676452000354284
10.386447999999998,0.5969628952429743,0.014561483441781556
10.391036,0.5268952912236982,0.012442749115913237
10.39564,0.4614470441568071,0.010369035999026697
10.400236,0.40433807654703796,0.00829057158335491
10.404832,0.3555683883943907,0.006216682868983131
10.409427999999998,0.30667651552759784,0.004165424552349222
10.414016,0.26444723793677694,0.002110407679276132
10.418612,0.22875837090778237,0.0
10.423192,0.20140878333590978,0.0
10.427788,0.18366446381124416,0.0
10.432368,0.1619558523535501,0.0
10.436968,0.14078012120106678,0.0
10.441551999999998,0.12638917003870118,0.0
10.446151999999998,0.11061004557210499,0.0
10.450736,0.09677081001491414,0.0
10.455332,0.08699921580493344,0.0
10.459927999999998,0.08196916326148335,0.0
10.46452,0.08000396820341382,0.0
10.469112,0.07893820759299215,0.0
10.473703999999998,0.07799463169671617,0.0
10.478296,0.07999372857167507,0.0
10.482884,0.08469112878957752,0.0
10.487468,0.08902197486504293,0.0
10.49206,0.08758966011218425,0.0
10.496648,0.08615734535932557,0.0
10.501244,0.09048819143479099,0.0
10.505836,0.09367523363431722,0.0
10.510427999999996,0.09326453804325206,0.0
10.515024,0.09003335439509767,0.0
10.519612,0.0830822482422062,0.0
10.524203999999996,0.07919599957469531,0.0
10.5288,0.07549491236992219,0.0
