Time,Force,Position
16.900292,0.04539239852591512,0.0
16.904871999999997,0.03491791528202166,0.0
16.909467999999997,0.024443432038128196,0.0
16.914056000000002,0.016012187117821795,0.0
16.918659999999996,0.011300864702252469,0.0
16.92324,0.005323553696598275,0.0
16.927839999999996,0.0022889154621789764,0.0
16.93242,0.0035107626036356898,0.0
16.937016,0.007675282516327301,0.0
16.941608000000002,0.011717617714873238,0.0
16.946204,0.017436637094569208,0.0
16.9508,0.021326568328008205,0.0
16.955399999999997,0.02419488039965368,0.0
16.959992,0.02796262691894701,0.0
16.964588,0.0336514270476817,0.0
16.969175999999997,0.04138346550000345,0.0
16.97376,0.05013712311411872,0.0
16.978339999999996,0.060934019051821026,0.0
16.982928,0.0726303494371712,0.0
16.987524,0.08624773343196272,0.0
16.992112,0.10076455187440211,0.0
16.996711999999995,0.114259751155048,0.0
17.001292,0.12673333127390035,0.0
17.005888,0.13896254196446134,0.0
17.010483999999998,0.1462058415602004,0.0
17.015071999999996,0.15422639088944162,0.0
17.019664,0.1575053985521523,0.0
17.024256,0.1576717247149261,0.0
17.028844,0.1525158048914022,0.0
17.03344,0.14748206978202402,0.0
17.038027999999997,0.141548900224998,0.0
17.042631999999998,0.13765896899155902,0.0
17.047224,0.13479065691991354,0.0
17.05182,0.13148143000624163,0.0
17.056407999999998,0.1261289647689827,0.0
17.061008,0.11839692631666096,0.0
17.065587999999998,0.10964326870254569,0.0
17.070188,0.09884637276484338,0.0
17.074779999999997,0.08715004237949323,0.0
17.079375999999996,0.07353265838470167,0.0
17.083971999999996,0.05901583994226226,0.0
17.088563999999998,0.04552064066161639,0.0
17.093159999999997,0.03304706054276404,0.0
17.097747999999996,0.02081784985220304,0.0
17.102351999999996,0.013574550256463978,0.0
17.106952,0.005554000927222737,0.0
17.111544000000002,0.0022749932645120957,0.0
17.116135999999997,0.0007948544970971581,0.0
17.120728,0.0007948544970971581,0.0
17.125315999999998,0.0007948544970971583,0.0
17.129903999999996,0.0007948544970971583,0.0
17.134504,0.0007948544970971583,0.0
17.139096000000002,0.0007948544970971583,0.0
17.143687999999997,0.00033633489147574347,0.0
17.14828,0.0,0.0
17.152872000000002,0.0,0.0
17.157463999999997,0.0,0.0
17.162051999999996,0.0,0.0
17.166643999999998,0.0,0.0
17.171239999999997,0.0,0.0
17.175827999999996,0.0008250737480584292,0.0
17.180424000000002,0.0017723322102625293,0.0
17.185012,0.0018201562248187785,0.0
17.1896,0.004688468296464254,0.0
17.194195999999998,0.005757911472814025,0.0
17.198788,0.00874840825860517,0.0
17.203392,0.010839470596748463,0.0
17.207971999999998,0.011009479325450384,0.0
17.212572,0.011009479325450386,0.0
17.21716,0.011009479325450386,0.0
17.221759999999996,0.012078922501800158,0.0
17.226348,0.015191604001736974,0.0
17.230947999999998,0.015191604001736974,0.0
17.235532,0.015191604001736974,0.0
17.240128,0.016261047178086747,0.0
17.244715999999997,0.022204456366851574,0.0
17.249299999999998,0.03731877582660752,0.0
17.253887999999996,0.062381255290856766,0.0
17.258483999999996,0.09661464502609714,0.0
17.263072,0.1401411297464743,0.00842584702625321
17.267663999999996,0.19238000513222117,0.016754512070128257
17.272244,0.2540341602172505,0.025015606913405722
17.276843999999997,0.3281684524869429,0.03301047887781863
17.281431999999995,0.4050554291799457,0.04134910035564941
17.286015999999996,0.49405598891517455,0.04961168609198263
17.290608,0.5885075364166574,0.058032069160452934
17.2952,0.6951948516745121,0.0663059494350408
17.299791999999997,0.8155061079929691,0.07439135397125139
17.304380000000002,0.9456470221677014,0.08244066203952818
17.308968,1.0876130085077405,0.09032892471948752
17.313564,1.236370331903708,0.09826444909998275
17.318151999999998,1.389923578046573,0.10629226324993798
17.322739999999996,1.55817020842639,0.11421875339622477
17.327335999999995,1.7361986726479264,0.12211192932557793
17.331927999999998,1.9240833314107715,0.1299200312221244
17.33652,2.111224642257004,0.13764493695817367
17.341099999999997,2.2880070975076783,0.14534827966866234
17.345695999999997,2.452876197695789,0.1530403884876752
17.350284000000002,2.607386442288342,0.16071036762789276
17.354884,2.750394027409397,0.15997205523430896
17.359463999999996,2.8834534525259583,0.1592976146433038
17.364064,3.005298729047942,0.15872716847810714
17.368656,3.114786053099409,0.15843394295799484
17.373252,3.219188943527058,0.15773743570409618
17.377831999999998,3.3147874778261532,0.15701795116101847
17.382427999999997,3.402725459872634,0.1560922250928884
17.387015999999996,3.4787942283051794,0.15529372388143473
17.391612000000002,3.543404478714855,0.15465438112815127
17.3962,3.601542122196484,0.15392123794842683
17.400784,3.647976878226952,0.1533348422495966
17.405375999999997,3.6848741698439906,0.15273400084426433
17.409971999999996,3.7161982889806304,0.15197423169829524
17.414564,3.7381071284179876,0.15122732076399897
17.419159999999998,3.7485574498324756,0.1505451466685059
17.423744,3.7443622110245673,0.15005625807494988
17.428323999999996,3.7360363541208574,0.14965056564189103
17.432916,3.728776257827569,0.14928102764096285
17.437503999999997,3.7206608685352607,0.14901078695857428
17.442091999999995,3.7164317279104635,0.1486892232592222
17.446688,3.716088835953177,0.14831677497677
17.451276,3.714768466282725,0.14805986535758695
17.455867999999995,3.7187225185840145,0.14767108366063522
17.460464,3.7252526895141016,0.14722493436049086
17.465052,3.7356691091117002,0.1467398771159124
17.469656,3.745230235710279,0.14635930889493456
17.474244,3.7566343726527816,0.14601082708941537
17.478839999999998,3.770125889367499,0.1456655218551387
17.483419999999995,3.785826970568578,0.14531256172302756
17.488016000000002,3.799651139608843,0.14510049260866875
17.492607999999997,3.811720581202441,0.1450036782046826
17.497203999999996,3.832662182558372,0.1447075230463211
17.501796,3.854669544524725,0.1444563899809702
17.506395999999995,3.8741449293109076,0.14433174915522595
17.510992,3.898405997212249,0.14414699624701052
17.515583999999997,3.929618171266482,0.1438138759796394
17.520167999999998,3.961363225625926,0.14349846659454252
17.524755999999996,3.9958065833283123,0.14312387272891886
17.529344000000002,4.039244285507179,0.14254552004064805
17.53394,4.083581422133692,0.14197074935820697
17.538528,4.13253791571259,0.14131217869441354
17.543115999999998,4.185214331796225,0.14055601601833237
17.547703999999996,4.235847509556275,0.13988522536393916
17.552296,4.287257937049825,0.13922434388533392
17.556888,4.335070626752785,0.1386570835803751
17.561479999999996,4.383005501169889,0.1380795590981273
17.566075999999995,4.4328614291964366,0.13746789135457038
17.570664,4.483083911365419,0.13683194305983218
17.575263999999997,4.5317518940673995,0.13621820207723734
17.579851999999995,4.57923193144481,0.13558308367537503
17.584443999999998,4.629488315430683,0.13481174663546075
17.589031999999996,4.667685497454697,0.1343122871181546
17.593615999999997,4.702651495830556,0.13384964442317288
17.598203999999996,4.740149471386585,0.1332871588273779
17.602792,4.777847674922277,0.13265748789007853
17.607383999999996,4.813702868114046,0.13201269257275988
17.611979999999996,4.851312788752482,0.1312817521747327
17.61656,4.883892656847468,0.1306165452949472
17.621164,4.909887972931999,0.13004008001455256
17.625752,4.930853236473082,0.12953052875221688
17.630356,4.940492406337178,0.129191878045305
17.634935999999996,4.94493519749505,0.12886308625667103
17.639544,4.945736109413702,0.12853479647865382
17.644128000000002,4.940729719055403,0.12826974154496826
17.648728,4.932614329763094,0.12802182524034272
17.653315999999997,4.9224115606985706,0.12776493460492874
17.657911999999996,4.906645858785387,0.12754874208591382
17.662504,4.885727919614607,0.1274009799577666
17.667099999999998,4.860679362348024,0.12729683887792556
17.6717,4.833299055880935,0.12720494355191245
17.676296,4.8034648154991935,0.12713400435315245
17.680887999999996,4.779349594497147,0.12687635536104766
17.685488,4.7567447315134785,0.12654577644724999
17.690064,4.728621077129778,0.12631646304376967
17.694655999999995,4.69281320830831,0.1262520380461426
17.699236,4.653285416982106,0.1262565165438632
17.70382,4.610814952884667,0.1263218669059085
17.708411999999996,4.571164976844317,0.12632965052423745
17.712999999999994,4.531270631375675,0.126356678944997
17.717588,4.489333047583448,0.12644171732067946
17.722167999999996,4.451648266601167,0.12647770294912475
17.726755999999995,4.41695029983875,0.12650676145611447
17.731355999999998,4.386382951172135,0.12648689888884787
17.735943999999996,4.35916897086782,0.1264280003580355
17.740536,4.3342867397640115,0.12635678218931937
17.745127999999994,4.314556745917798,0.12620993540561296
17.749716,4.298957370167387,0.12601754903595996
17.754323999999997,4.28748861251278,0.12578160781340247
17.758916,4.282193711277561,0.12544786447668815
17.763512,4.282706112319294,0.12505341889624624
17.768099999999997,4.288248565904477,0.12460516402842503
17.772695999999996,4.296655648995379,0.12417235304155677
17.777275999999993,4.306250677410846,0.12377051868218619
17.781867999999996,4.322019562245704,0.12327920025149677
17.786455999999994,4.339342946547566,0.12276890323126383
17.791055999999998,4.361574198678732,0.1222163102232574
17.795635999999995,4.385482134991048,0.12164767343309374
17.800231999999994,4.410822386056223,0.12108991783274517
17.80482,4.439760374911989,0.12048148801803009
17.809416,4.4760160240630835,0.11974913586062466
17.814007999999994,4.515747226290625,0.11897688976108867
17.818599999999996,4.559076166308757,0.11816147124614976
17.823187999999995,4.602405106326888,0.11736268248423146
17.827779999999997,4.6475329152403155,0.11654464664804942
17.832359999999994,4.694048897457974,0.11567733228456684
17.836951999999997,4.735046088275599,0.11491099041667456
17.841544,4.77502165993143,0.11417972070169843
17.846131999999997,4.815363785729699,0.1134246958602774
17.850719999999995,4.851208739289729,0.11274022409228189
17.855295999999996,4.8802247714110125,0.11212761742398238
17.859876,4.905110185436494,0.11155466965300778
17.864472,4.923943927756732,0.11104997412461888
17.869059999999998,4.938524867267023,0.11058436438576219
17.873659999999994,4.949752438415012,0.1101496719478512
17.878256,4.972095635628585,0.10949503188657705
17.882835999999998,4.989775334441145,0.1088504828571164
17.887428,5.005001099339053,0.10822020675307176
17.892019999999995,5.01916110362654,0.10755755945055469
17.896623999999996,5.028946120389932,0.10694355090030656
17.901211999999994,5.033578899895729,0.10637883363134466
17.905811999999997,5.035591419324099,0.10578117479984174
17.910399999999996,5.033595505370814,0.10520001874518975
17.915,5.025181365569847,0.10469776933274524
17.919584,5.013658226834872,0.10419659007087514
17.924183999999997,5.001357838366395,0.10369533071432833
17.928776,4.987502950430912,0.10319001558218517
17.933372,4.9714384980090705,0.10267368852523698
17.937951999999996,4.951898492510781,0.10218441236842549
17.942547999999995,4.93440172533608,0.10165319680395461
17.947136,4.922423749561412,0.10105088285836634
17.951719999999995,4.909301969910803,0.10047491000758217
17.956308,4.896957439993698,0.09989445527458472
17.960891999999994,4.8906204403332065,0.09920569303362715
17.96548,4.884527810101009,0.09849515703234069
17.970071999999995,4.86474343517443,0.0980057939194368
17.974663999999997,4.849211863057797,0.09748763423844797
17.979243999999994,4.835723529264753,0.09692896159788297
17.983839999999994,4.819703218291539,0.09644486998813442
17.988428,4.804582341765973,0.09594878515450854
17.993019999999994,4.794858071926292,0.09540004856327462
17.997615999999994,4.785055758821096,0.09491942874052632
18.002204,4.775908510735255,0.0944484622676074
18.006795999999994,4.775222726820682,0.0938712520841091
18.011376,4.775969257658967,0.09330529632183494
18.015964,4.774183811317084,0.092813134732409
18.020568,4.779716025270528,0.0922459862381092
18.025156,4.783737881205598,0.0917316815063161
18.02976,4.791890355236468,0.09120564992115693
18.034355999999995,4.8026189478961365,0.09067068335552608
18.03896,4.811059932803927,0.09019378985710635
18.04354,4.824120274664102,0.08967094604031686
18.04814,4.842455038496018,0.08911513859818529
18.052716,4.859035074881266,0.08864263497585682
18.057316,4.878601925486379,0.0881923468506157
18.061899999999994,4.9053642516726725,0.08767856210108166
18.066495999999997,4.930860589268883,0.08720610044614807
18.071079999999995,4.961386979408542,0.08673080626180389
18.075675999999994,4.995755476767085,0.08621041679174261
18.080264,5.032577908040279,0.08569220433438553
18.084855999999995,5.067112731561596,0.08523531758158476
18.089444,5.103568608692354,0.0847593467077108
18.094036,5.14427728863306,0.08427850032697598
18.098623999999997,5.184863783859621,0.08382251056580785
18.103212,5.227004778553186,0.08337595423547417
18.1078,5.27977266045575,0.08282393153271071
18.112384,5.333972857111172,0.08230556863642167
18.116975999999998,5.394591279614278,0.0817413079086618
18.121556,5.454188082955589,0.08119685025950373
18.126152,5.514684320744548,0.08066338432607716
18.130736,5.578245416018888,0.08009642466825752
18.135324,5.641684326579082,0.0795518410076391
18.13992,5.7026693032246225,0.07901728652462676
18.144499999999997,5.762999214850808,0.07847760662223867
18.149088,5.820753007848195,0.0779495212815631
18.153687999999995,5.879772789435666,0.07740211587358717
18.158288,5.940058559613223,0.07683311737600422
18.162879999999998,5.993803919228952,0.07632012599863851
18.167475999999997,6.051635755491857,0.07577492197658689
18.172079999999998,6.110733580344846,0.07521306711883187
18.17666,6.1714639479303575,0.0746132990174615
18.181256,6.233582488820098,0.0739913508843233
18.185848,6.288749923556949,0.07339199824091452
18.190451999999997,6.3404418052173535,0.0728106107920397
18.195044,6.391845176000839,0.07220361213065382
18.199644,6.432333148698404,0.0716588112677228
18.204227999999997,6.46215009273834,0.07114939876458398
18.20882,6.488980222558413,0.07062431461945123
18.213407999999998,6.516665645377507,0.07005466892266311
18.218,6.538832276796568,0.06951453240059059
18.222604,6.556746105405681,0.06897909476794649
18.2272,6.572450369528433,0.06842958779989469
18.231787999999995,6.590442241403062,0.0678533116008452
18.236383999999997,6.60790123297248,0.06726227853949251
18.240972,6.625971148112628,0.06663942043878492
18.245568,6.639910445156973,0.06601254442180055
18.250148,6.650374189124872,0.06539049519536924
18.25474,6.661571041377646,0.0647276632644303
18.259331999999997,6.662629745278002,0.06410647693175998
18.263924,6.659191276940119,0.0634979811339633
18.268519999999995,6.647169159716823,0.06293311483556692
18.2731,6.6295060663793475,0.06239340679786258
18.277691999999995,6.614907830527252,0.061825201567781936
18.282287999999998,6.596589672170422,0.061267938511146744
18.28688,6.576472644918294,0.060713417204361395
18.291472,6.555333998504373,0.060161622972771986
18.29606,6.540080697632921,0.059567490593851524
18.300647999999995,6.52458302733318,0.05898630400183096
18.305243999999995,6.506675564567413,0.05844111715455413
18.309836,6.489134655944083,0.05787236508079526
18.314428,6.469306139568876,0.05732845072222071
18.319019999999995,6.445391146546494,0.056813323071168764
18.32362,6.410604896886819,0.05636277330656384
18.328199999999995,6.372998159170057,0.05591842397435999
18.3328,6.333225998415561,0.05549280541140828
18.337388,6.292065664356835,0.05509015889552904
18.341987999999997,6.248862091974522,0.05469806291919776
18.346584,6.202593662106828,0.0543234877433282
18.351172,6.15865698143964,0.05396147938192282
18.355751999999995,6.114598116058308,0.053601590493287936
18.360344,6.072215934858126,0.05324100187027046
18.364943999999998,6.027668330620211,0.0528985140106992
18.369544,5.978789880306829,0.052597894806698374
18.374136,5.932365363908101,0.05230535249058272
18.378727999999995,5.883775424471638,0.0520309273470114
18.383315999999997,5.83763941894983,0.051765094539745586
18.387904,5.789870870695498,0.05154033797652431
18.392492,5.740958518565228,0.051327159840115016
18.397088,5.6939672200443985,0.05110282216903599
18.40168,5.646487182666987,0.05090330513356417
18.406271999999998,5.603748686956106,0.05068400148481316
18.410867999999997,5.563464125159876,0.05047575816667871
18.415448,5.530619408373121,0.050246912782562304
18.420044,5.498840452196788,0.05006028375959089
18.424628,5.466572757163873,0.04990203036669093
18.429216,5.436881180759756,0.04974841315906839
18.43382,5.41078734214623,0.04959115687511479
18.438399999999994,5.389068491056797,0.04943794437145018
18.443003999999995,5.368126889700865,0.04929117177456297
18.447599999999994,5.3450198653072025,0.04916583774986988
18.452192,5.32551057870413,0.04903835220279672
18.456784,5.308943964872293,0.04889266818383433
18.461372,5.294420589364043,0.04872894133752365
18.465976,5.278997779408145,0.048564139030392
18.47056,5.26320841530981,0.048421602011249724
18.475159999999995,5.246397432049681,0.048286301974562046
18.479735999999995,5.225988710998962,0.04814996775255579
18.48434,5.199816829119919,0.04803677695738801
18.488927999999994,5.165183483069607,0.04794645552016188
18.49352,5.128506898695708,0.04787224393496081
18.498104,5.085944968779339,0.04783059696503351
18.502696,5.039785301072379,0.04778854503804772
18.507288,4.989250645841325,0.047734654301154034
18.51188,4.934707557228616,0.047644158154389715
18.516472,4.87975377302484,0.047514690024276884
18.521064,4.819159012706886,0.047401140390892826
18.525648,4.752023841827106,0.0473009669910818
18.530232,4.675161218185974,0.04725750786465066
18.534816,4.591880368697161,0.047223976414459405
18.539412,4.508477334494203,0.047201592289317355
18.544003999999997,4.417512270567623,0.047211089156458885
18.548579999999998,4.325525587479251,0.047224310570865485
18.553172,4.230596231619644,0.04725370143701044
18.557748,4.131047518807652,0.047291184903212144
18.562335999999995,4.030843740976303,0.04730698751166029
18.566928,3.9272865947826547,0.047293878398113366
18.571507999999994,3.820908960531917,0.04729370094186917
18.576096,3.7192728679477103,0.0472702640925803
18.580704,3.620212893992301,0.04726154266703696
18.585288,3.5174329975321545,0.04727489310096276
18.589884,3.415796904947947,0.04726208361511441
18.59446,3.315304616239679,0.04721378340183723
18.599059999999994,3.215345207836622,0.04720120283503266
18.603635999999995,3.1170624836147147,0.04718924768175924
18.608236,3.014571098031488,0.04724340700876676
18.612828,2.913101331610054,0.04728815494364889
18.617424,2.8162509221410055,0.04731385414767075
18.622004,2.7264296620903665,0.0472551671265259
18.6266,2.643270997315699,0.04714291206553199
18.631187999999995,2.5594572675216747,0.04699025346979089
18.635783999999997,2.480507264108327,0.04678571485725225
18.640372,2.4023345104284815,0.046589591034087656
18.644968,2.3259606256439316,0.04638728190461239
18.649552,2.254083913097621,0.04618081166065287
18.654148,2.1829844502848124,0.04598112919380971
18.658736,2.1153605405484495,0.04577973675365352
18.663328,2.0554208452498526,0.045488966877810386
18.667919999999995,1.992660661894166,0.045194155044116065
18.672504,1.9307999129861277,0.0448965972587875
18.6771,1.872781271296972,0.04455051762251014
18.681676,1.812719391284229,0.044223726532059145
18.686271999999995,1.7475494154625184,0.043992952531204076
18.690864,1.684422677964395,0.043697075793733664
18.695448,1.618231082980891,0.04346325615349972
18.700044,1.5578026488257113,0.04314280756989218
18.704635999999997,1.4972520299563856,0.04283512220010366
18.709239999999998,1.4356797919252664,0.04049198353756015
18.713823999999995,1.3759064227894433,0.03819240651018085
18.718408,1.3121687617205915,0.03593646073457566
18.723004,1.250885034566392,0.03370973409156627
18.72758,1.191400176307488,0.031511045305451596
18.73218,1.128195395543847,0.029316420783289786
18.736768,1.0656456797995628,0.027128211517704268
18.741367999999994,1.0002754759981893,0.02494450756179656
18.745956,0.9359268913586088,0.022767934540683196
18.750544,0.8704345028430897,0.02062225984402588
