Time,Force,Position
11.617715999999998,0.06366149149528377,0.0
11.622304,0.05700439038113091,0.0
11.6269,0.049447854819330186,0.0
11.631488,0.038049212038646696,0.0
11.636076,0.02844943815325893,0.0
11.640664,0.020770717877312533,0.0
11.645252,0.016034670372601038,0.0
11.649848,0.012320242029683064,0.0
11.654436,0.008605813686765088,0.0
11.659036,0.006035189219786309,0.0
11.663624,0.0035867494669532,0.0
11.668224,0.0019155594476222713,0.0
11.672816,0.0,0.0
11.67742,0.0,0.0
11.682012,0.0,0.0
11.686608,0.0,0.0
11.691192,0.0,0.0
11.69578,0.0,0.0
11.700368,0.0,0.0
11.70496,0.0,0.0
11.709544,0.0,0.0
11.714128,0.0,0.0
11.718704,0.0,0.0
11.723296,0.0,0.0
11.727884,0.0,0.0
11.73246,0.0,0.0
11.737056,0.0,0.0
11.741632,0.0,0.0
11.74622,0.0,0.0
11.750812,0.0,0.0
11.755396,0.0,0.0
11.759992,0.0,0.0
11.764584,0.0,0.0
11.769172,0.0,0.0
11.773775999999998,0.0,0.0
11.778364,0.0,0.0
11.782956,0.0,0.0
11.787544,0.0,0.0
11.792132,0.0,0.0
11.79672,0.0,0.0
11.801324,0.0,0.0
11.805912,0.0,0.0
11.810512,0.0,0.0
11.8151,0.0,0.0
11.819692,0.0,0.0
11.824296,0.0,0.0
11.828879999999998,0.0,0.0
11.833479999999998,0.0,0.0
11.838072,0.0,0.0
11.84266,0.0,0.0
11.847252,0.0,0.0
11.85184,0.0,0.0
11.856428,0.0,0.0
11.861016,0.0,0.0
11.865607999999998,0.0,0.0
11.870204,0.0,0.0
11.87478,0.0,0.0
11.879364,0.0,0.0
11.883948,0.0,0.0
11.888532,0.0,0.0
11.893132,0.0,0.0
11.897724,0.0,0.0
11.902316,0.0,0.0
11.906911999999998,0.0007276141230549256,0.0
11.9115,0.0007276141230549255,0.0
11.916104,0.001210858817818509,0.0
11.920696,0.0027157226743756147,0.0
11.9253,0.006019455426228422,0.0
11.929887999999998,0.00920100346393556,0.0
11.934484,0.013281985949290547,0.0
11.939072,0.01838458759643906,0.0
11.943672,0.01952289731055915,0.0
11.94826,0.019761772577031392,0.0
11.952848,0.019761772577031392,0.0
11.957432,0.019761772577031392,0.0
11.962024,0.019761772577031392,0.0
11.966624,0.019761772577031392,0.0
11.971215999999998,0.019761772577031392,0.0
11.975808,0.019761772577031392,0.0
11.9804,0.019761772577031392,0.0
11.984988,0.026860288177465788,0.0
11.98958,0.043207757314408825,0.0
11.99416,0.06904854941615182,0.0
11.998752,0.10173399675019851,0.0
12.003343999999998,0.1439853161527436,0.009045057708390945
12.007936,0.19111609572952284,0.018000930002924777
12.012528,0.2441424604805107,0.026777549083712916
12.017116,0.30277589952878764,0.03523087776405768
12.021708,0.3666498587319166,0.04375268929808852
12.026291999999998,0.4318000461568692,0.052656479038625914
12.030867999999998,0.5002697001272325,0.061631619164877915
12.035467999999998,0.5802317739373546,0.07030601636752067
12.040043999999998,0.6704202789971507,0.07861089205997049
12.044632,0.7683757872301495,0.08671828493183298
12.049236,0.8748810425316726,0.0945836001089568
12.053828,0.9869933721304847,0.10241821809386614
12.058424,1.1036911568647922,0.11029033986019293
12.063008,1.2326144697237327,0.117692163654994
12.067608,1.3621487061534014,0.1249896056795235
12.072195999999998,1.4871416288962027,0.13234780757675077
12.076792,1.5979186037229043,0.1398634035780274
12.081376,1.6949053113262298,0.1474547513071707
12.085976,1.7805556856208318,0.15500052482257717
12.09056,1.855646976340212,0.16259152792006065
12.095156,1.9200569987702245,0.16108982945506775
12.099752,1.9768947518448787,0.15970598918197293
12.104347999999998,2.02460573609717,0.15853131419997799
12.108936,2.066176765746962,0.1575556339136253
12.113528,2.104917067707925,0.15632252565762375
12.118108,2.1419704458559994,0.1546061871868791
12.122699999999998,2.1728838694015744,0.15290093743759148
12.127284,2.1942259267168316,0.15163444145782862
12.131884,2.2022766952970336,0.15100285955579001
12.136472,2.203454400989862,0.1505761334581453
12.141064,2.198658478242965,0.15027828864565468
12.145648,2.192508284008726,0.14984320941096863
12.150236,2.1841043838394985,0.14932093692828394
12.154827999999998,2.1665839544796466,0.1492059454727551
12.159412,2.1505399813212813,0.14919764473000532
12.163999999999998,2.145988428002675,0.14888111380142652
12.168596,2.152562740381391,0.14832492366065797
12.173184,2.1685862342762787,0.1475846784856479
12.177788,2.1867412493920098,0.14696081743782902
12.182384,2.2090710240521707,0.14633064469029394
12.186972,2.234187384952532,0.14582662828016868
12.191568,2.2633563206831777,0.1453395792688857
12.196164,2.2987432542818413,0.1447469693065413
12.200768,2.3318867215772547,0.1444341597051527
12.205355999999998,2.362908907283563,0.14439628511616032
12.209948,2.398594591390885,0.14431307099703639
12.214531999999998,2.436612024698712,0.14417388399072092
12.219131999999998,2.481947118301869,0.14374196846444545
12.223716,2.5317793841432645,0.14307055107698588
12.228316,2.5789133466417167,0.14248467664097741
12.232896,2.6231046363689337,0.142066830896748
12.237488,2.66087770024847,0.14193216914839119
12.242088,2.6991395029845897,0.14173927238184336
12.24668,2.7336372417673442,0.1416020646629749
12.251264,2.767191404653822,0.1413971282770522
12.255856,2.7903189083109634,0.1415385037157357
12.260436,2.8123806513576834,0.14163748776500593
12.265028,2.827324962088737,0.1418581037776319
12.269612,2.8414478816376607,0.14198155618044275
12.274207999999998,2.8548715947185994,0.14199231588902542
12.2788,2.8628545596650237,0.14207169678608791
12.283376,2.866907134495308,0.14210098530633627
12.287968,2.865641145905223,0.14218983179237107
12.292556,2.8644090591320275,0.14204772962712847
12.297144,2.8628443200332843,0.141732478107074
12.301735999999998,2.8539177791905854,0.14157623501584174
12.306324,2.8432704127181068,0.14135514433858734
12.310932,2.825383429215818,0.14126033581767478
12.31552,2.805775620083751,0.14109969817244758
12.320108,2.7879225383983517,0.14077463312179456
12.3247,2.7684708157973197,0.14036335230376884
12.329287999999998,2.7502409403377444,0.13975271010146226
12.333884,2.724038339563484,0.13939737407543668
12.338472,2.6942380009986318,0.13917457982575082
12.343068,2.66276097825263,0.13898375248271136
12.347652,2.636025497173159,0.13859164213022862
12.352252,2.606836082179036,0.1382345355757197
12.356832,2.5810000355472122,0.13778722770544416
12.361432,2.552998565877656,0.13746475792440693
12.366024,2.52667378038925,0.1370834303007941
12.370615999999998,2.5080332093386093,0.13637556581890914
12.375208,2.4894367797365975,0.13577614488146317
12.3798,2.4702294265638565,0.1352781679738481
12.384388,2.4517212798591004,0.13490022021002973
12.38898,2.4313362209935314,0.13472139445725206
12.39356,2.412916357186032,0.13457596051984683
12.398152,2.4000594262271924,0.1343246009505981
12.40274,2.3889233208981318,0.13414568956061718
12.407336,2.381429094808291,0.13395413006783713
12.41192,2.377332378529378,0.13379512175238178
12.416512,2.379331475404337,0.1335809406808211
12.421104,2.382562659052491,0.13352291158398005
12.425684,2.396342686644128,0.13314863571950172
12.430276,2.419527754303309,0.13253018997106053
12.43486,2.4445558323064143,0.13196831317220828
12.439448,2.4696280517581473,0.1315315671680458
12.444052,2.491679555173128,0.13134642676829508
12.44864,2.5158184383603235,0.13118890218418303
12.453243999999998,2.5478078621480584,0.13081937865072094
12.457836,2.5768987546131874,0.13068761749237007
12.462424,2.6042349196316477,0.13073838777072286
12.467019999999998,2.637744941069497,0.1306163393962214
12.471612,2.675629950031441,0.13037272470090105
12.476212,2.7150694584603885,0.13010490765447102
12.4808,2.7619488118988107,0.12959240716147058
12.485399999999998,2.8088281653372333,0.1290658343638255
12.489976,2.8530092154327122,0.1286565587403744
12.494584,2.8979675152616933,0.12822909171768235
12.499171999999998,2.944191803680759,0.12775560187419446
12.503772,2.9865298434323133,0.12732612970795423
12.508364,3.02461508037392,0.12699855646672326
12.51296,3.063433425600401,0.1265632947374433
12.517544,3.0968551641409956,0.12629689808429195
12.522136,3.1261462845857864,0.12611424396230705
12.52672,3.1532278405442167,0.1259284639521985
12.531304,3.17912145117808,0.12570479358568595
12.535892,3.2097124620298465,0.12523468785803088
12.540484,3.2373166586617486,0.12478401039841011
12.545064,3.259113553016699,0.12443613464490513
12.549648,3.282909544246608,0.12391964396143437
12.554232,3.305395405437804,0.12338524905746871
12.558812,3.3282036793228094,0.12274657693302049
12.563403999999998,3.3507234423308954,0.12206783988161128
12.567988,3.3725439988709964,0.121298743645457
12.572564,3.389334502867647,0.12062061233906955
12.577172,3.4093120490638245,0.11983632609720354
12.58176,3.426180596325993,0.11906877927179874
12.58636,3.442760632711242,0.11824801618941166
12.590944,3.4568867351818384,0.11746997752890628
12.595527999999998,3.473056075976022,0.11663177052590723
12.600132,3.488037471445639,0.1157533481832729
12.604712,3.502241617181753,0.11488361685536823
12.609308,3.514769078736717,0.11402919132400055
12.613896,3.5235766177869436,0.1132542066557134
12.618496,3.5383916870937866,0.11231926818021733
12.623079999999998,3.5534511258289205,0.11135955741906194
12.627679999999998,3.5677333148305523,0.11041800807166663
12.632272,3.5811160693845365,0.10949314050916675
12.636864,3.5993625503191966,0.10846292833160878
12.641448,3.613766924034974,0.10752073239435686
12.646031999999998,3.630336720788484,0.10651693707052319
12.65062,3.6397551834094393,0.10572310269455608
12.655216,3.645331538811512,0.1050175672862345
12.659804,3.653361828128237,0.10430593211352097
12.664388,3.6583272599595813,0.1036727725191952
12.668976,3.6607165731621274,0.10307483184030004
12.673568,3.667358689174622,0.10243826117142225
12.678159999999998,3.675921858796558,0.10176779521997009
12.682752,3.684362843704348,0.10111682833555179
12.687344,3.690760590288552,0.1005195568605535
12.691932,3.7014111396827025,0.09988943944535188
12.696524,3.7121838737909987,0.09924930671610652
12.70112,3.72565491124224,0.09857116821136014
12.705696,3.742968055912362,0.09781420604127028
12.710304,3.753374235878222,0.09721767437720383
12.714892,3.762514427253996,0.09667149334828667
12.719504,3.767690326696743,0.09621085181848242
12.724092,3.7736434758729915,0.09575086811365356
12.72868,3.775510148402066,0.09539446899993392
12.733272,3.784161600921258,0.09491137429492687
12.73786,3.7887265767932763,0.09452448768403951
12.742452,3.7952126062747364,0.09409848868181768
12.747039999999998,3.802720254917989,0.09364584919980058
12.751639999999998,3.8075296002182983,0.09323234485577202
12.756228,3.8143821838421945,0.09276730166771303
12.760828,3.821112582751945,0.09231684405242824
12.765412,3.821546940528161,0.09194207091996838
12.770008,3.8212040485708743,0.09156892790902481
12.774591999999998,3.8173856035371423,0.09122363716467521
12.779188,3.817531450436438,0.09080184553908185
12.783776,3.8130579403833496,0.09044381728540833
12.788367999999998,3.8082178761878236,0.0901227588471963
12.792967999999998,3.803744366134735,0.08976594739081178
12.79756,3.7984936063481443,0.08940696613853974
12.802148,3.794631019865784,0.08898721960365034
12.806736,3.79395547558295,0.0884918708193472
12.811319999999998,3.7978992882525007,0.08793737345216193
12.815919999999998,3.8037641545314926,0.08735626995643875
12.820508,3.809629020810485,0.08677590369926004
12.825088,3.8114074104423032,0.08628598102425179
12.82968,3.8142074192359146,0.0857719779359119
12.834267999999998,3.820727350534263,0.08521492029806574
12.838852,3.833909877108584,0.08457462623100023
12.843436,3.848769087864055,0.08393624844722332
12.848016,3.871190328343146,0.08321659227018617
12.852604,3.8924677649462973,0.08252727762040174
12.8572,3.9202856121112744,0.08176264729512098
12.861788,3.9467152859720223,0.08105767712555648
12.866392,3.9808733157191636,0.08032924370337813
12.870988,4.014786976038012,0.0796431839871613
12.875592,4.053564362737538,0.07889667876587685
12.880168,4.093485553313003,0.07812583099507987
12.884764,4.133040189746031,0.07739909829332892
12.889344,4.17619256396965,0.07666260927752575
12.89394,4.222453937127279,0.07595381263942763
12.898532,4.267449321694821,0.07529668684840979
12.903132,4.313221955995866,0.07465808266680163
12.907716,4.354130863916235,0.07407998209588339
12.912312,4.3940181526748106,0.07351771702111504
12.916896,4.4358264950428286,0.07294027662248112
12.921492,4.4815991293438735,0.07231838597679781
12.92608,4.525572894749624,0.07171975593069117
12.930675999999998,4.560474272413377,0.07125785887562495
12.93526,4.591533542858247,0.07083871894325434
12.939856,4.610044872484676,0.07055880227699789
12.944444,4.631621059596485,0.07023634448830014
12.949036,4.651154008384708,0.06994899369135064
12.953624,4.6719529457630165,0.06962953599866925
12.958208,4.685800776988432,0.06933075228394119
12.962803999999998,4.692086578490229,0.06909625968213166
12.967392,4.696329141668438,0.06889304505769384
12.971984,4.70159332400844,0.06867808679267534
12.976564,4.706202441329086,0.06844906149746673
12.981151999999998,4.707213820859142,0.06823824276890593
12.98576,4.706015635902835,0.0680024135157832
12.990348,4.703262951479525,0.06775519711444172
12.994936,4.6971568986939145,0.06750433390216463
12.999527999999998,4.695503876697915,0.0671729779774169
13.004116,4.693317974396705,0.06681515658966043
13.008708,4.687534334304903,0.0664709907548959
13.013288,4.680729075051308,0.06614213346808273
13.017884,4.6702038932929755,0.06583377010896488
13.022472,4.6671965998096345,0.06541169804890415
13.027068,4.668153598259322,0.06495007087105956
13.031652,4.676139746127419,0.06440705475692977
13.036252,4.682449209814366,0.06386486276994914
13.040844,4.689247412357896,0.06328965350674272
13.045436,4.6958012454731355,0.0627360417318175
13.050012,4.701577828854871,0.06217179788985851
13.054607999999998,4.717326234426251,0.061510108654903965
13.059196,4.730376336654687,0.06085655550246514
13.063792,4.7426491891496205,0.06020308337392915
13.06838,4.752878803320967,0.059571428774469526
13.072972,4.760043560006934,0.05897128510309221
13.077559999999998,4.766963947264609,0.058391098202051815
13.082159999999998,4.7718410961986955,0.057829999023841276
13.086748,4.778394929313934,0.0572752198240327
13.091348,4.78523727330609,0.05676890148733404
13.095932,4.795555170374694,0.056265786799414595
13.10052,4.807671936338593,0.055758526456155186
13.105111999999998,4.816968214245403,0.05526797542261833
13.1097,4.830228784085242,0.054743709737006485
13.114292,4.835316400630733,0.054305236840649224
13.118887999999998,4.836561909957339,0.05389094149542766
13.123476,4.838584669017449,0.053487540055941196
13.128084,4.84138467781106,0.0530936015529488
13.132668,4.840875459691,0.05274682480057123
13.137256,4.836890688494494,0.05239399220308456
13.141848,4.838302523983875,0.05203607967429834
13.146439999999998,4.828598733407673,0.05177482096978369
13.151039999999998,4.821471061460269,0.0515193527647497
13.155636,4.813976835370427,0.051290772619841205
13.160228,4.811101966232972,0.05105061019611757
13.164808,4.811047585152605,0.050798535369385674
13.169408,4.809849400196299,0.050564256123453284
13.173988,4.813026202764086,0.05033555969886499
13.178588,4.8133825172747855,0.05011712817854432
13.183172,4.809119474833097,0.049909634136360015
13.187764,4.804856432391412,0.049703570467848936
13.19236,4.799571770787931,0.04950615142729374
13.196952,4.7931433053085115,0.04932542355988931
13.201543999999998,4.786348285686655,0.04917115629404394
13.206136,4.783395373283681,0.048997132591497884
13.210724,4.784162383385445,0.04881344296596546
13.215308,4.781864536001828,0.04865699686789599
13.2199,4.775480211971036,0.048535538114425895
13.224495999999998,4.766153215169012,0.04843093149590865
13.22908,4.756581848938692,0.04834280122179674
13.233664,4.74100295245176,0.048300144694910875
13.23826,4.7342520742785315,0.04820195152557332
13.242848,4.719939166381682,0.048131289349882596
13.24744,4.699085847923008,0.04807943787498108
13.252028,4.671814303616654,0.04803612862801442
13.256612,4.643765509576797,0.04798185935482628
13.261224,4.611996793032202,0.047937113288092824
13.265812,4.577774142572957,0.04787242855190618
13.270404,4.54240768823777,0.047826050627897215
13.274984,4.5079406683502325,0.04777919216199615
13.279584,4.461170077072544,0.04778167100361837
13.28418,4.410435193861827,0.04781550373382559
13.288771999999998,4.357901441755815,0.04785001479653837
13.293376,4.298050029354474,0.047894609531127424
13.297956,4.2326798255531015,0.04794916537444506
13.302556,4.159625407313961,0.0480474198705661
13.307136,4.081829447408293,0.0481740345331123
13.311736,4.0030118683408284,0.04832106058131304
13.316323999999998,3.9285251353488304,0.04839749365700191
13.320923999999998,3.8531389679091843,0.04847563197777168
13.325508,3.7761983010025344,0.04853746170364175
13.330099999999998,3.692595038819912,0.04862867045941675
13.334688,3.6137333183038205,0.04870247783627087
13.339284,3.536792651397171,0.0487685305425882
13.343872,3.457686561452788,0.048878646614549104
13.348464,3.373594560413583,0.04904589739473027
13.353051999999998,3.292445232145613,0.04918896805067332
13.357636,3.2065543622111132,0.04935823008603308
13.362224,3.120008427257256,0.04950406576184414
13.366816,3.0307641889604557,0.049655101532031426
13.3714,2.951902468444364,0.049755974841526725
13.375979999999998,2.875328355680151,0.04979909976850535
13.380576,2.7985098734876472,0.049883330910710566
13.385164,2.725044759657443,0.05000976434941155
13.389751999999998,2.652356895560741,0.05016358068897681
13.394336,2.5800355856064763,0.05027959443822699
13.398924,2.51167856758524,0.050348097437274884
13.403516,2.446630776477675,0.0503206447948672
13.408108,2.3781515737422922,0.05039762866502165
13.412696,2.3144139126734395,0.05042442495184323
13.417292,2.2505540668904427,0.050479003398248075
13.421879999999998,2.187838024983384,0.05048485287987491
13.426488,2.1261436022381197,0.05046493514175625
13.431064,2.067269667549944,0.050417768038733275
13.435664,2.012360024794797,0.050310413376777136
13.440252,1.960393054810885,0.05016575614043272
13.444852,1.9038067278745878,0.050036027396403976
13.449444,1.8527391923383236,0.04987059521579455
13.454044,1.80052785292612,0.04974881322171994
13.458628,1.7512591862851512,0.049556991017091406
13.463224,1.6985149665677368,0.04931171785344263
13.467816,1.6474474310314724,0.049065074127315325
13.472411999999998,1.5978902535135842,0.04866122353242274
13.477,1.5467785765286919,0.048189967812365155
13.481592,1.5005306259244757,0.04761339917144916
13.48618,1.455837174787264,0.04706155614131066
13.490768,1.4092226700406107,0.04650011731657032
13.495356,1.358521688646783,0.04601166644481834
13.499956,1.3079428919671015,0.043466736381354294
13.504535999999998,1.2505793152973022,0.04097037756429666
13.509124,1.196158411398738,0.03844410629437594
13.513716,1.1376510308529992,0.03596476478153726
13.518296,1.0754237278025238,0.0335102570436107
13.522887999999998,1.0111531864284613,0.031081059746400914
13.527476,0.9468826450543988,0.028677614122565198
13.532063999999998,0.8846553420039232,0.02627401368474703
13.536656,0.8268030264775413,0.023870005808354935
13.541244,0.765230788446422,0.02149571937515092
13.545848,0.7085222767959792,0.019091372747959162
13.550436,0.651569395717245,0.016752032633151545
13.555024,0.5959266446772239,0.014484700210700306
13.55962,0.5401617089230571,0.012253874621025425
13.564196,0.485829087921749,0.010138460244661213
13.568796,0.4361158238728258,0.008046975070136759
13.573376,0.38525875594796355,0.006032254231465341
13.577976,0.3382437952419839,0.0040042228167626375
13.582563999999998,0.29302770343129997,0.0020050636404559978
13.587164,0.25141484357302657,0.0
13.591748,0.21352190621949027,0.0
13.596339999999998,0.18126994498013238,0.0
13.600936,0.15069466792192454,0.0
13.605528,0.1270208614061609,0.0
13.610119999999998,0.10898803100457574,0.0
13.614712,0.09227082480352267,0.0
13.619304,0.07723030278361964,0.0
13.623888,0.06284484578307312,0.0
13.628476,0.0529069254103186,0.0
13.633072,0.04404025980980486,0.0
13.637656,0.034929224780999774,0.0
13.64224,0.02761705864749039,0.0
13.646832,0.022348130837568057,0.0
13.651419999999998,0.017978637475293574,0.0
13.656012,0.014508578560666941,0.0
13.660612,0.01091633493189464,0.0
13.665204,0.008223525750770188,0.0
