Time,Force,Position
19.140300000000003,0.0,0.0
19.144908,0.0,0.0
19.149500000000003,0.0,0.0
19.154096000000003,0.0,0.0
19.158672000000003,0.0024180684771482,0.0
19.163272,0.005857756116089923,0.0
19.16786,0.010196878202679496,0.0
19.172464,0.017234303632212625,0.0
19.177052000000003,0.023494479328243573,0.0
19.181652,0.03192007806200724,0.0
19.186236,0.03944624234812305,0.0
19.190828000000003,0.04901564495782591,0.0
19.195424000000003,0.056541809243941726,0.0
19.200016,0.06521177740599672,0.0
19.204604000000003,0.07388174556805174,0.0
19.209200000000003,0.08279608315839809,0.0
19.213788,0.09081098630109659,0.0
19.218376,0.09984750860558861,0.0
19.222952,0.1078624117482871,0.0
19.227548,0.11281245740560504,0.0
19.23214,0.11506419971997942,0.0
19.236728,0.1191148109296495,0.0
19.241316,0.12112218381573253,0.0
19.245904000000003,0.1218635681117307,0.0
19.250496,0.120064699216435,0.0
19.25508,0.11662501157749328,0.0
19.259668,0.1122858894909037,0.0
19.264264,0.10524846406137058,0.0
19.268852000000003,0.09898828836533963,0.0
19.273456000000003,0.09056268963157596,0.0
19.278052,0.08303652534546015,0.0
19.28264,0.0734671227357573,0.0
19.287248,0.06594095844964147,0.0
19.291844,0.057270990287586476,0.0
19.29644,0.04860102212553146,0.0
19.30102,0.03968668453518512,0.0
19.30562,0.031671781392486616,0.0
19.310204,0.02263525908799459,0.0
19.314804,0.014620355945296093,0.0
19.319388,0.00967031028797816,0.0
19.323988,0.007418567973603784,0.0
19.328572,0.003367956763933702,0.0
19.33316,0.001360583877850667,0.0
19.337760000000003,0.004303256649085564,0.0
19.342356,0.004669810791522577,0.0
19.346952,0.00655499896345994,0.0
19.351552,0.008440187135397303,0.0
19.35614,0.009548125573832486,0.0
19.360736000000003,0.01065606401226767,0.0
19.365324,0.01065606401226767,0.0
19.369912,0.011886187164848525,0.0
19.3745,0.011972506441490184,0.0
19.379096,0.013857694613427547,0.0
19.383692,0.013857694613427547,0.0
19.388272,0.013857694613427547,0.0
19.392868,0.013944013890069207,0.0
19.397456,0.01492976761435872,0.0
19.402052,0.014929767614358718,0.0
19.406640000000003,0.01492976761435872,0.0
19.411228,0.015548967196211218,0.0
19.415824,0.016290351492209386,0.0
19.420412,0.022017646883029495,0.0
19.42502,0.027867126987995275,0.0
19.429612,0.028111496416286623,0.0
19.4342,0.03309740751110856,0.0
19.438796,0.03730606887242833,0.0
19.443388,0.040615295786100236,0.0
19.447984,0.04470177243327432,0.0
19.452564,0.044046707413917814,0.0
19.457164,0.04642063444243786,0.0
19.461756,0.0466650038707292,0.0
19.466352,0.05099584994619464,0.0
19.470944000000003,0.05352782712636437,0.0
19.475544,0.05896661164026498,0.0
19.480128,0.0655492000301048,0.0
19.484724,0.07216765385744862,0.0
19.489304,0.07686505407535107,0.0
19.4939,0.07989404612322763,0.0
19.498496000000003,0.08456582053536485,0.0
19.503092,0.09349236137806462,0.0
19.50768,0.10729286823317946,0.0
19.512268,0.1209814300058874,0.0
19.516856,0.1406877616669496,0.0
19.521436,0.16383574458756817,0.0
19.526032,0.1903031940535974,0.0
19.530624000000003,0.22021229477918297,0.0
19.53522,0.25638353482141424,0.010015810840677245
19.5398,0.29971634862793894,0.019554489693871052
19.544388,0.3539306587034941,0.02890384188264302
19.548972,0.4144071080956949,0.037814461577922426
19.55356,0.4792246431951,0.046892167571163726
19.558168,0.5485054487158548,0.055667917820173704
19.562756,0.6223717093721054,0.06444444841874288
19.567348000000003,0.6967369485166772,0.07354530351162163
19.57194,0.7772421422637491,0.08242209539097049
19.576528000000003,0.8629878561656729,0.09126271529775683
19.581124000000003,0.9563838826884729,0.09992586188396145
19.585716,1.0615947417448406,0.10817487555473305
19.590312,1.166306622312887,0.11632444940230328
19.594900000000003,1.2639349723821571,0.1245144657940403
19.5995,1.3579553450290973,0.13255331892922928
19.604088,1.4445256330348248,0.1407095068519383
19.608688,1.525200335866343,0.14881304748478372
19.613272,1.6015339529906576,0.15709241621095632
19.617872,1.6714832460841809,0.16545089922937453
19.622468,1.7397897568134433,0.17367956343483187
19.627064,1.8037551818355015,0.1718160045415917
19.631656,1.859781783359764,0.17045232892648737
19.636252,1.910934418871612,0.16914954362700635
19.640844,1.952882242295579,0.16836051645674552
19.645432,1.9931872833552853,0.16730783275566424
19.65002,2.0237987734705287,0.1667607467121116
19.654616,2.0524009270790744,0.16609195813563415
19.659204000000003,2.0838574705615986,0.1648931790605499
19.663788,2.1045988439378656,0.16421004285470975
19.668376,2.122309261645642,0.1634974224171932
19.672972,2.135600550380697,0.16292412717345303
19.677564,2.140386233495856,0.16276901733915283
19.682156,2.1481587308308776,0.16256615534810526
19.686752,2.1613719763004147,0.16222610729833714
19.691344,2.176550416828021,0.16192333066169634
19.695936000000003,2.194960041003782,0.16150876428805186
19.700524,2.212270002752233,0.16130242210733808
19.705104,2.237430505101222,0.16075398390624462
19.709716,2.2658221910983656,0.16010036189894133
19.714304,2.293602953524781,0.15958731239977117
19.718912000000003,2.320650607666322,0.15921813927044587
19.723492,2.3508072607418717,0.15877963061706596
19.728084000000003,2.3810080552660504,0.1584796965839351
19.732684,2.4119860995237303,0.15814519072195
19.737276,2.445662447124354,0.1577345143873375
19.741872,2.481626402476857,0.15712019613942763
19.746448,2.514892054486415,0.1566462802429124
19.751048,2.5428832845242324,0.15641184203620564
19.755636000000003,2.578392402837041,0.15567721470306412
19.760236,2.6127135758252824,0.1549392142302586
19.764828,2.6422490656983655,0.15431521730752376
19.769428,2.670107871390298,0.1537387654252179
19.774024,2.6910155709293395,0.153429227893756
19.778616,2.7059937834772834,0.15332084780293545
19.7832,2.7159419434817766,0.15337770870351047
19.787796,2.729565884542379,0.15316878826888708
19.792392,2.740691750239701,0.15290104222659054
19.79698,2.748297921411949,0.1526647063809876
19.801568000000003,2.7513627788973296,0.15249629976769496
19.806152,2.753484060486434,0.15225632532000552
19.810744,2.7550283203216996,0.15188168359623688
19.81534,2.7547295698130414,0.15147312686474207
19.819932,2.7507889400651635,0.1510939087747578
19.824524,2.7465597994403663,0.15064663249545135
19.829120000000003,2.7343579335008843,0.15048983528591714
19.833704,2.720601568094397,0.15036210572686057
19.838304,2.703614019039756,0.15031942847023497
19.842892,2.689813512184641,0.1500815283066423
19.847488,2.6692282253394084,0.1501628200250859
19.852076,2.645045200703585,0.1503832202489488
19.856664,2.626503152181939,0.15034739736458233
19.86126,2.6091049075362327,0.15023805019256325
19.865848,2.5987358123089357,0.14976193749274355
19.870448000000003,2.592331009014667,0.14908597506076893
19.87504,2.585926205720398,0.14840369216480145
19.879632,2.5732695027412227,0.1480705408756819
19.884224000000003,2.56613159116208,0.14750989149893462
19.888808,2.5583827560122083,0.14705139560457905
19.893404,2.5538651045104914,0.14651879064132714
19.89798,2.5519235716375728,0.14591290817262023
19.90258,2.5510477993750755,0.14536384220752907
19.907164,2.5495611035418495,0.14491512067762857
19.911764,2.555025513861515,0.14426124170886878
19.916352000000003,2.561800054219894,0.14362585435607028
19.920944,2.5740933859783057,0.14278023553696456
19.925536,2.5897400860990176,0.14185224139501398
19.930132,2.6101724693348882,0.14082195024481473
19.934728,2.631792797895326,0.13986895045923867
19.939328000000003,2.657910298694003,0.13875609573043715
19.94392,2.690079471197924,0.1374781047748535
19.948508,2.717917797626379,0.13645494076618772
19.953096,2.748332242683632,0.13538343535308617
19.957684,2.776214710560716,0.13452999014865888
19.962276000000003,2.804385689314719,0.1337599527257948
19.966868,2.8368094708786686,0.13289513949992549
19.971464,2.8725866208049196,0.13194620322220724
19.976056,2.9106955199316773,0.13102344102534869
19.980648,2.9459839310013454,0.13019013436957452
19.98524,2.9821717765186606,0.12934773683891507
19.989832,3.012352091779362,0.12874906477514392
19.994424,3.04457564536365,0.128082036045597
19.999004,3.0797418717191727,0.12731906134352106
20.0036,3.109267121960517,0.1267570248846101
20.008188,3.1360940688589176,0.12626042378265148
20.012788,3.159611788843646,0.12592405135651175
20.017384,3.182230074380727,0.12561982735227317
20.021972,3.208401956259771,0.1251508272862297
20.026572,3.2294216008812193,0.12479033104554903
20.031164,3.2515850493786065,0.12439067834373649
20.035768,3.2663086528665195,0.12419450891069009
20.040364,3.2863847215916917,0.12378583765873713
20.044960000000003,3.3020858027927704,0.12347067544794513
20.049544,3.311490842860313,0.12329860565920212
20.054144,3.319585752889144,0.12310770346033485
20.05872,3.3272699673269095,0.12288110173187466
20.06332,3.3358094747636944,0.12255158200609449
20.067912,3.3381751257810905,0.12234932753590258
20.072508,3.3446272534456605,0.122008316689522
20.077088000000003,3.3494026969290807,0.12169387113032579
20.08168,3.3565879328785244,0.12125843065801262
20.08628,3.359931061609086,0.12093496820699719
20.09088,3.3586548333872623,0.12072502384012503
20.095468,3.35762297459373,0.12048363454411673
20.100064000000003,3.3646418843804,0.11998797915624256
20.104652,3.3761138249566813,0.11931663089664164
20.109244,3.390772807732489,0.1185467949480469
20.113836,3.3996686296799723,0.11794120824719867
20.118432,3.4094638860751036,0.11731296115736108
20.123024,3.4146397855178505,0.11679065765799851
20.12762,3.4287658879884475,0.11601469802054627
20.132212000000003,3.4352077760212785,0.11543672756712743
20.1368,3.446513390434786,0.11473601564845322
20.1414,3.4635821656766184,0.11387984484283743
20.145988000000003,3.482571994527891,0.11298659296437283
20.150576,3.499518585055576,0.1121655698309427
20.15516,3.5163429908691173,0.11137652657789429
20.159744,3.5389305575109815,0.11046226679050654
20.164332,3.558453266667465,0.10964248468553137
20.16892,3.5819402677569774,0.10873853877912547
20.173516,3.609147191351227,0.10777444576028372
20.178112,3.6356990499261195,0.10678763559461887
20.182688,3.664294146824599,0.10573888199322007
20.187284,3.6940330475990186,0.10464964120974282
20.191864,3.715721179793235,0.10379313984579533
20.196464,3.7315239664449815,0.10307927241481123
20.201048,3.7434846458778455,0.10246000159313053
20.205648,3.756466944472503,0.10181403567689155
20.210244000000003,3.769449243067161,0.10116532204698919
20.214836,3.7852520297189076,0.10046275753264905
20.219416,3.7951694708281845,0.09990424893553827
20.224008,3.81072788805164,0.09923873619706038
20.228608,3.8223220133420672,0.09867136300272014
20.2332,3.833138888898992,0.0981083097371495
20.237788,3.8412574611129733,0.09758697295262639
20.242376,3.845778295536363,0.0971099338837708
20.246964,3.847600826616809,0.09667229118599142
20.251552,3.8407175240976965,0.09640628253142194
20.256144,3.836121829330461,0.09606483887812911
20.260736,3.8248635392872554,0.0958433509812015
20.265320000000003,3.807719903701579,0.09574147170142243
20.269908,3.7937633103154282,0.09555156671040961
20.274496,3.7790294671957763,0.09535819931480244
20.27908,3.766094492971421,0.09514033987174406
20.283672000000003,3.7543033226230036,0.09488559781603528
20.288276000000003,3.7464764442076146,0.09454672543940038
20.292864,3.735706893020992,0.09426505647660657
20.297452,3.723915722672575,0.09400617784717326
20.302048,3.715067225095392,0.09368786533058845
20.306636,3.7060965428040644,0.09338261174404958
20.311228,3.6972480452268823,0.09306311914767193
20.315824,3.6875001132020517,0.09275489340381542
20.32042,3.6824937228437524,0.09237125085362376
20.325008,3.681085070276044,0.09195103941693655
20.329608,3.6822525363371335,0.09151538931687732
20.334184,3.689838228245904,0.09099955813382662
20.338788,3.6978346157457396,0.09052228130126531
20.343376,3.715314086578636,0.08990073304647088
20.347972,3.734470241592683,0.08928525352552275
20.35256,3.757224134397321,0.08863016996964787
20.357156000000003,3.7868849919062226,0.08785445192050174
20.361752000000003,3.8160571105585412,0.08713854879981218
20.366348,3.84858259757316,0.08641995226121922
20.370936,3.8809858998736333,0.08572839450256928
20.375532,3.91723130939299,0.08498892974388475
20.38012,3.9522107303222613,0.0842989186710918
20.384708000000003,3.9948743656892973,0.08350660899616716
20.389288,4.042401727437011,0.08265465591344606
20.393880000000003,4.089806904470578,0.08183306719556435
20.398476,4.137578635646582,0.08099066467115697
20.403064,4.188948104613178,0.0801299538259226
20.40766,4.238396519970332,0.07930012874329946
20.412248,4.282203959213308,0.0785468593327602
20.416844,4.3221692912374,0.07785750182669944
20.421432000000003,4.359969200223761,0.07721949447681165
20.426012,4.398790728371915,0.07658338703069063
20.430608,4.440022048986092,0.07588898453191625
20.435196,4.475978947628529,0.07523638694617114
20.439796,4.507072119890289,0.07464901695531881
20.444388,4.537388042418548,0.07406132666545842
20.44898,4.563984042442069,0.07351788290988207
20.45358,4.591723846341528,0.07295620244087367
20.458172,4.616110281878689,0.07240105430996188
20.462768,4.637798414072905,0.0718651078546599
20.467348,4.6560109931906775,0.07134545539928136
20.471948,4.675611745612678,0.0707851134244902
20.476528,4.688672087472853,0.07028313974648882
20.481124,4.697890322114145,0.06982439430256963
20.48572,4.703510818964846,0.0693836986706672
20.490316,4.709908565549049,0.06895277759259644
20.494904,4.712708574342661,0.06854016824208324
20.4995,4.716774571726358,0.06809547676122779
20.504096,4.72570429549073,0.06760590486193055
20.508692,4.734878388683394,0.06709881393959805
20.51328,4.743886155713285,0.06653933105161895
20.517876,4.745576262447846,0.06601869494909923
20.522464,4.744323696411173,0.06552865555308207
20.527052,4.744503445127358,0.06506042601299744
20.531640000000003,4.746726432167131,0.0645656029064079
20.536236,4.749971038368697,0.06406019686825001
20.540824,4.75219402540847,0.0635670834558609
20.545408,4.750819274657651,0.06308675669589828
20.550004,4.750221773640335,0.06261236504829691
20.554584,4.754365814289549,0.06210940946606959
20.559176,4.758920550529829,0.06164015357847499
20.563768000000003,4.765274155665404,0.061171135831266904
20.568348,4.773426629696275,0.06069634294125872
20.572940000000003,4.780801853993643,0.060215333414393
20.577528,4.792796435243395,0.05971610483654594
20.582124,4.799927290112472,0.05925517287246363
20.586716000000003,4.808201948857489,0.05877472909605268
20.591308,4.820074345393097,0.05829223086791473
20.5959,4.827083015548027,0.05784833956601956
20.600484,4.836789989045903,0.05740309261081566
20.605076,4.84895089645843,0.05697349144166397
20.60966,4.865731160823342,0.0565263603705736
20.61426,4.883533044350048,0.05607014108609903
20.618848,4.899536058981457,0.055617750924553386
20.623448000000003,4.9177044966506,0.05514110139316671
20.628036,4.93509568458624,0.054661026029655856
20.632628,4.957228414188412,0.0541633051765501
20.637216,4.978095155200498,0.05368936264020331
20.641812,4.998961896212585,0.05321734323759373
20.6464,5.014964910843994,0.05278080852307204
20.650996,5.032111729351342,0.052327899803202786
20.655584,5.0463158750874575,0.051899228052868035
20.660172000000003,5.060397836109426,0.05148001295427106
20.664764,5.074235427703103,0.05107749652270526
20.669348,5.083331477630249,0.05069699424204867
20.673936,5.096147450062134,0.05030445307200147
20.678532,5.108474683637435,0.04994683333475114
20.683128,5.113239887489117,0.04961961910621121
20.687708,5.119926144950238,0.0492824513716227
20.692300000000003,5.118928187973595,0.048981253301691265
20.69688,5.112944319902131,0.04871508156729421
20.701468,5.104795028792933,0.0484746556381128
20.706064,5.093458695484209,0.04826741103398384
20.710656,5.082244546889631,0.04805051420481864
20.715244,5.064656313896001,0.04790171597739754
20.71984,5.044658288436346,0.04779451792637876
20.724428000000003,5.017997667700718,0.04771186015896649
20.729032,4.99505696946983,0.047619744717893535
20.733612,4.971994086524794,0.04753502278064604
20.738208,4.943045858037288,0.04748466789044166
20.742796,4.912420945368633,0.04742306846260917
20.747396,4.876810121605155,0.04739559371214594
20.751984,4.837357190622796,0.047385373383732166
20.756592,4.795861021316851,0.047392775895628146
20.761180000000003,4.752199428973171,0.04742804733879692
20.765772,4.703918479677107,0.047471639037455965
20.770368,4.651917607876305,0.047525712254509425
20.77496,4.602370669990155,0.04759880383851481
20.779552,4.5478378210091845,0.04771020078212597
20.784148,4.496247644799448,0.047804096873021354
20.788736,4.446578522199153,0.04789024598707588
20.793332,4.397153769027149,0.04795535623428028
20.79792,4.349650069464587,0.04801241169760921
20.802504,4.2999809468642916,0.04809811159295771
20.807096,4.257340973682407,0.048125512847879276
20.811692,4.211880512443431,0.048166316266610325
20.81628,4.162333574557281,0.04825133328263777
20.820876,4.11200938693763,0.048322383077774776
20.825468,4.0569436576514475,0.04841500884173457
20.830056,4.009562142803031,0.04846939477104625
20.834648,3.957971966593294,0.04857628585785534
20.839228,3.909324463154793,0.04866594697512122
20.84382,3.863619632487526,0.048734679960880316
20.848416,3.818814236267907,0.04880673598952622
20.853004,3.7771958822478147,0.04883493168489608
20.857608,3.734678093780075,0.0488640384334423
20.862196,3.6962467819595086,0.04884490623349965
20.866784000000003,3.6533182979007024,0.048828606842105854
20.87138,3.6116558024319825,0.04877762297724797
20.875972,3.5669284494778815,0.04876431417909257
20.880564,3.5195027931808367,0.048751622720573026
20.885156,3.4690122793984113,0.04877538512339656
20.889756,3.4149240278253945,0.04880064308962208
20.894336000000003,3.3601807112330215,0.04880075184679399
20.898936,3.2950548768599384,0.048851799215019524
20.903524,3.233238269400528,0.04883269963887444
20.908124,3.1784508113595265,0.04872990777476108
20.912708,3.117778007776055,0.048681935898872694
20.917296,3.0590262578020253,0.04862111248941082
20.921888000000003,2.994755716427963,0.04857186019531605
20.92648,2.930607359768046,0.048516090611089836
20.931072,2.865681753374627,0.04844072781821031
20.935656,2.7960146053146775,0.04839683631696524
20.940244,2.7229940888924276,0.048319462017879455
20.944832,2.646131465251295,0.04826586071171897
20.94942,2.5729887641149,0.04818854928520805
20.95402,2.496659020778978,0.048171125796349495
20.958608,2.420451462157202,0.048139811689557846
20.963192,2.346820022164224,0.04812120487025379
20.967784,2.2746989401896216,0.047996916658441385
20.972376,2.2025778582150193,0.047867622812626145
20.976968,2.1285357226309762,0.04777411073602941
20.981548,2.0561702712280834,0.04770764655575894
20.986128,1.9854815040063403,0.04765468169139537
20.990724,1.916469420965747,0.04765038540505479
20.995316000000003,1.846069164620923,0.04773242714535638
20.999904,1.7723596813624278,0.047943129843693595
21.0045,1.7026144900369606,0.048088307283492816
21.009092000000003,1.633113668139785,0.04815889155852867
21.013684,1.5646344654044027,0.04819071565237376
21.018276,1.4980763162784614,0.04820557418821834
21.022884,1.4265322560576983,0.04581532372387424
21.027464,1.3569092494463768,0.043405371390072646
21.032064,1.288063492568557,0.0410160852275007
21.036652,1.2201171701383853,0.038627266218496756
21.041252,1.1484509252034767,0.03626098490645492
21.045844,1.073064757763831,0.033872573086855165
21.05044,1.0020535778482789,0.0314848366822005
21.055032,0.9254014218185482,0.029097221274024528
21.059628,0.8537793183322678,0.026787704522428523
21.064224000000003,0.7821572148459874,0.024482356419728967
21.06882,0.7124561649691483,0.022125950231720457
21.073416,0.643646273528833,0.019740875727397442
21.078004,0.5766352509838133,0.017356176386495527
21.082592,0.5152652045529721,0.014904588902188882
21.087176,0.45671564617922017,0.012414724076342976
21.091764,0.40110876057670314,0.009844777108535568
21.096356,0.34717855915533596,0.007308325284556115
21.100944,0.29570229164862105,0.004846640054625389
21.105536,0.247701577218352,0.002424021910507581
