Time,Force,Position
11.580596,0.03321266358942514,0.0
11.585183999999998,0.036223400435307904,0.0
11.589776,0.043076244500073434,0.0
11.594367999999996,0.05185014217428033,0.0
11.598963999999995,0.05780355179139799,0.0
11.603552,0.06171372308492862,0.0
11.608148,0.06550170966431357,0.0
11.612735999999998,0.06916751152955285,0.0
11.617331999999998,0.07283331339479213,0.0
11.621919999999996,0.07535531138409221,0.0
11.626503999999995,0.07535531138409221,0.0
11.631091999999995,0.07535531138409221,0.0
11.635692,0.07535531138409221,0.0
11.640279999999995,0.07319986753722914,0.0
11.644872,0.07002280452857254,0.0
11.649468,0.06570193764397675,0.0
11.654047999999996,0.061381070759380964,0.0
11.658648,0.057715268894141684,0.0
11.663227999999997,0.05290566315296321,0.0
11.667808,0.04707443824999122,0.0
11.672404,0.04266554890900827,0.0
11.676991999999998,0.04299820123455591,0.0
11.681599999999996,0.038589311893572946,0.0
11.686187999999994,0.02981541421936606,0.0
11.690779999999997,0.024629275144880926,0.0
11.695372,0.023407428003424213,0.0
11.699963999999994,0.024595373327991558,0.0
11.70456,0.027049307242643768,0.0
11.709139999999998,0.02974761058558732,0.0
11.713739999999994,0.03551077141391144,0.0
11.718328,0.043795930231535656,0.0
11.722927999999996,0.05130383931565768,0.0
11.727515999999994,0.05958899813328189,0.0
11.732115999999998,0.06762978752261475,0.0
11.7367,0.07399389273079758,0.0
11.741295999999998,0.07741532516774552,0.0
11.745888,0.08173619205234131,0.0
11.750484,0.08581268950864575,0.0
11.75508,0.09193242528853725,0.0
11.759679999999996,0.09817434578257442,0.0
11.764271999999998,0.10503716903820959,0.0
11.768864,0.10523739701787276,0.0
11.773452,0.10339438667394892,0.0
11.778043999999994,0.1033943866739489,0.0
11.782632,0.10262711613131636,0.0
11.787231999999996,0.09993879197924246,0.0
11.791823999999998,0.09496286007529016,0.0
11.796416,0.08884312429539867,0.0
11.800999999999997,0.08247901908721583,0.0
11.80558,0.07419386026959163,0.0
11.810164,0.06614309168938913,0.0
11.81476,0.0606684417379845,0.0
11.819347999999998,0.05543816121487123,0.0
11.823943999999996,0.04853119651060791,0.0
11.828531999999996,0.04420035043514247,0.0
11.833123999999998,0.04358942686441412,0.0
11.837716,0.04003583052245086,0.0
11.842307999999996,0.0376260380564268,0.0
11.846899999999998,0.0315063022765353,0.0
11.851479999999995,0.025264381782498138,0.0
11.85608,0.01787865741252179,0.0
11.860667999999997,0.01433504026142818,0.0
11.865268,0.013734095881569468,0.0
11.869851999999996,0.015400800871849854,0.0
11.874451999999998,0.017966940309778093,0.0
11.879047999999996,0.021432514195354177,0.0
11.88364,0.021432514195354177,0.0
11.888236,0.021432514195354177,0.0
11.892832,0.021432514195354177,0.0
11.897431999999997,0.02143251419535418,0.0
11.902023999999995,0.021198123957932483,0.0
11.906624,0.01916486482521508,0.0
11.91122,0.01610998653070416,0.0
11.915807999999998,0.014976161845634611,0.0
11.920395999999997,0.01294290271291721,0.0
11.924983999999997,0.01013239384669763,0.0
11.929572,0.009477328827341121,0.0
11.93416,0.010831600314682293,0.0
11.938755999999998,0.018071477785362396,0.0
11.943348,0.03222855959204459,0.0
11.947936,0.0539579107540854,0.0
11.952535999999997,0.08260446625212832,0.0
11.957116,0.11751316106681681,0.0
11.961707999999994,0.15509623659842917,0.0
11.966291999999996,0.1979198322848936,0.008382201617694195
11.970883999999998,0.24700556728800355,0.01654643187638366
11.975471999999996,0.3067184499409831,0.024544974902932195
11.980064,0.37514740582526035,0.03235024288271305
11.984656,0.44881688186438984,0.040225494355326526
11.989247999999996,0.5287484972201648,0.04806448189035412
11.993843999999996,0.6137984480166462,0.055994434281628286
11.998435999999998,0.7034338539486231,0.06396833645509357
12.003028,0.7976547150160956,0.07198191059472986
12.007619999999996,0.8941734234671853,0.08025213551759315
12.012207999999994,1.001817997615597,0.08814884767545514
12.016816,1.112004788575917,0.09622262999026587
12.0214,1.2266648291484565,0.10432499004069978
12.025987999999998,1.3375166643190028,0.11247239818866225
12.030583999999998,1.4437389029054253,0.12056682887379495
12.035176,1.5436548607265739,0.1285390208351297
12.039783999999996,1.6319901158107073,0.13663811833287318
12.044379999999997,1.7100547981965386,0.14487711186262758
12.048967999999997,1.782101710694016,0.15306362582637986
12.053568,1.8501740916267262,0.1611718685452775
12.05816,1.911695822365871,0.1608415357107542
12.062751999999996,1.964868034016155,0.16069370946054948
12.067344,2.0085469227016395,0.16077752772653775
12.071931999999997,2.0443650311548454,0.1608674553176073
12.076519999999997,2.07633079275743,0.16073592190419111
12.081111999999996,2.101379350024012,0.16063412952895173
12.085707999999997,2.1198772570970292,0.1604545747316442
12.090288,2.1339118937486967,0.16020457461974855
12.094884,2.142339456103075,0.15998828809154728
12.099463999999998,2.1457708677308927,0.159661084297812
12.104043999999996,2.1344786758707968,0.1599144016892905
12.108639999999994,2.121299332218149,0.15999496420757867
12.113228,2.106355021487095,0.15986337632222608
12.11784,2.0947640791183413,0.15959398922070456
12.122428,2.0842388973600086,0.15938337728641397
12.127035999999997,2.072858422602657,0.15934881702725368
12.131623999999997,2.0699835534652005,0.15895497865066993
12.136215999999996,2.0750814096424293,0.15818330103795716
12.140819999999998,2.0796905269630757,0.15751272417911794
12.145407999999996,2.080623863227613,0.1571735017025082
12.150016,2.082378590674281,0.1569473988439091
12.154612,2.0856097743224344,0.15683843721421853
12.159208,2.091705587476307,0.15669405606867023
12.163787999999997,2.0965795534887217,0.15681298671904195
12.16838,2.098921542320967,0.15718164176592916
12.172967999999996,2.1007747922966296,0.15765717034261936
12.17756,2.104837606758653,0.15809695470359605
12.182147999999998,2.10853386707824,0.15861540232227225
12.18674,2.1170938537785027,0.1588209459585659
12.191328,2.1314170013070894,0.15867551462672055
12.195923999999998,2.147294648302681,0.1584586569795051
12.200527999999998,2.161739980545413,0.15825729920869774
12.20512,2.1724653902834086,0.1582846995528905
12.209711999999996,2.1808590508208976,0.1583797590438699
12.214299999999994,2.187942581319674,0.15846416239096858
12.218888,2.192816547332089,0.15858288893854944
12.223479999999997,2.1924160913727624,0.15895556515062054
12.228068,2.1866190287275487,0.15958807804422961
12.232664,2.1792674666153307,0.16027037338184455
12.237255999999997,2.1775127391686633,0.16049641320090877
12.241847999999996,2.1749366205398655,0.1606084587803503
12.24644,2.1715391107289372,0.16060730638412
12.251019999999995,2.171695197259972,0.16029400427005727
12.255615999999996,2.1763043145806185,0.1596431815217567
12.260199999999998,2.1812799860437018,0.15890974251538867
12.264787999999996,2.187766015525161,0.1580044363182806
12.269399999999996,2.194374229720766,0.15708302019648931
12.273979999999996,2.2044138555441886,0.15590593938376254
12.278571999999995,2.2086903205392874,0.15506412111448079
12.283164,2.2129667855343853,0.1542514700210872
12.287755999999996,2.2215740966049493,0.15314713875849323
12.292359999999997,2.235944568503838,0.15178092020415315
12.296948,2.250315040402726,0.15039966720504533
12.301544,2.263008828120464,0.1490627232388986
12.306131999999998,2.278400919181146,0.14762822964179137
12.310736,2.2961247594423333,0.14612633679852952
12.315323999999997,2.3127047958275826,0.14468453803657227
12.319919999999996,2.328263213051038,0.1432835416523561
12.324503999999996,2.3485631719410236,0.14164890502288927
12.329096,2.3673527728126333,0.14020831036803064
12.333687999999997,2.3883519381706044,0.13876614695820763
12.338283999999994,2.4104168641389965,0.13738759843917797
12.342872,2.4290503784795714,0.13630220966633286
12.347463999999997,2.43861150507815,0.13571352942515613
12.352052,2.4506265655913806,0.13506725968716413
12.356648,2.4648511905909722,0.1344213862756415
12.361235999999998,2.4809968692000055,0.13370588933571287
12.365823999999996,2.4934667667529298,0.1332739819303969
12.370407999999998,2.511333270991741,0.13265166597052883
12.375007999999994,2.526667798050383,0.1322358452169323
12.379599999999996,2.5412692168241504,0.1319591666117561
12.384192,2.5487193014653635,0.13203915218794904
12.388783999999994,2.5596449391830225,0.13202346443858803
12.393375999999996,2.576255694463488,0.1319094141646777
12.397968,2.592133341459079,0.1319187928573443
12.402555999999995,2.612630345407055,0.13177960094851468
12.407148,2.638646140755064,0.1314620125803011
12.411744,2.669936358074814,0.13100630356488072
12.416335999999994,2.6980395331950384,0.13071941377707538
12.420927999999996,2.727164327477056,0.13039648140527518
12.425523999999996,2.7559225676166363,0.13013743218512222
12.430119999999995,2.7890116538316825,0.12969108195007792
12.434715999999996,2.8186251869702827,0.12931221921372957
12.439304,2.8529802617754143,0.1287304054035912
12.443895999999995,2.886680271561189,0.12815293280514864
12.448476,2.917804162718165,0.1276465804405828
12.453075999999996,2.944186512208611,0.12730789006035764
12.457656,2.9702803508221374,0.12689470229163016
12.462255999999996,2.9932651905016545,0.1265270574702199
12.466843999999996,3.015717149875962,0.1261289917170959
12.471443999999998,3.0337941217261752,0.12583081688053194
12.476036,3.056979189385357,0.12531879230941242
12.480627999999996,3.0788541270058247,0.12480233596299667
12.485223999999995,3.097087185387073,0.12430072499613606
12.489819999999996,3.119362578966867,0.12357001677353979
12.494411999999995,3.134442496965479,0.12302439596667444
12.499007999999996,3.1452696121541424,0.12256356372651267
12.5036,3.150167240351708,0.12220542240432178
12.508191999999994,3.157719030443589,0.1216959154952538
12.512783999999996,3.1628168866208184,0.12121917178408224
12.517367999999998,3.166848982187625,0.12069039638191005
12.52196,3.1616423638496625,0.12039645908960322
12.526551999999995,3.1596227877112257,0.11997523604547543
12.531147999999996,3.1603795581812504,0.11938896331620355
12.535736,3.1606034483460648,0.11877775385221315
12.540332,3.162992761548611,0.11808527560593916
12.544919999999998,3.165992998321886,0.11730613023128232
12.549512,3.1701370389711,0.11647522361509924
12.554091999999995,3.171216222134934,0.11574469467869111
12.558679999999995,3.1708630905459083,0.11500184085952112
12.563275999999997,3.1774169236611463,0.11404641899794324
12.567859999999996,3.1782075959480602,0.1132555715068113
12.572463999999997,3.1750339763019455,0.11258644114348954
12.577051999999997,3.1714938025133943,0.11196569649905472
12.581651999999998,3.157859621821053,0.11167584258638687
12.586244,3.1489669827952422,0.11125919753613348
12.590835999999996,3.141873212664728,0.11080433844240316
12.595427999999998,3.141974918115396,0.11020547335409311
12.60002,3.1414656999953356,0.10969186279152071
12.604616,3.1417337316087774,0.10917538035320722
12.609203999999998,3.1399585248986326,0.10872273614665033
12.613808,3.142680490426726,0.10817502844398805
12.618392,3.1476120204411813,0.10764307776783355
12.622996,3.1506666382948234,0.10725832600856772
12.627579999999996,3.1531103325777363,0.10695123898297454
12.632175999999994,3.1533886038229175,0.10672542073966493
12.636767999999996,3.1553877006978763,0.10657143580850913
12.641363999999996,3.158819112325694,0.10643191280336901
12.645964,3.1686687498011925,0.1061652223475076
12.65056,3.181627386210699,0.10589570661327039
12.655147999999995,3.1883341229352995,0.10582930314016688
12.659743999999996,3.2027250740976654,0.10558072037350126
12.664331999999996,3.2216131974982702,0.10525220225641606
12.66892,3.243199624241819,0.10488470991481703
12.673499999999995,3.270427027099546,0.10438103451682118
12.678095999999996,3.297410060528981,0.10392056231101253
12.682688,3.3232492900824777,0.10351024087658114
12.687275999999995,3.3414043051982087,0.1032837993737224
12.691876,3.355961582523348,0.10311735860758296
12.696464,3.376159835962666,0.10284523693607817
12.701055999999994,3.4027763152496644,0.10246768732120283
12.705647999999997,3.4310694787178124,0.10208166634932347
12.710228,3.4553542088043043,0.10171321098066174
12.714835999999998,3.480249862461525,0.10127995601662962
12.719423999999997,3.5082103736041255,0.10077233254459154
12.724035999999998,3.5362930694608723,0.10025215665166023
12.728628,3.5652310583166384,0.09963911254015202
12.733232,3.5915929285436063,0.09905603968784002
12.73782,3.613457626532336,0.09854713098405186
12.742407999999998,3.6340121944823522,0.09801585515936027
12.747003999999995,3.658242543488477,0.09733869259924063
12.751579999999995,3.675033047485128,0.09679676037671453
12.75618,3.6932117247860092,0.09620314662773803
12.760759999999998,3.705216545667502,0.09567949404348151
12.765359999999994,3.7156668670819895,0.09515426419195135
12.769948,3.724151993438408,0.09459023267066932
12.774547999999996,3.733903108384911,0.09397931363978775
12.779131999999995,3.746064015797438,0.09327350205970959
12.783727999999996,3.7605125309618437,0.09249078045275261
12.78832,3.765600147507334,0.09186606231143235
12.792915999999998,3.7645139076334346,0.09131085829185913
12.797503999999996,3.761095918559029,0.09075086482324494
12.802096,3.759354613665773,0.09018044340593295
12.806687999999994,3.755037190143719,0.08962775357536001
12.811271999999995,3.7444237254881307,0.08914536693700664
12.815863999999998,3.731111957489599,0.08869067868398305
12.820451999999996,3.7188218086528595,0.08821348761566536
12.825039999999994,3.7057544100826196,0.08773011284901652
12.829636,3.692031946493022,0.08722725907014328
12.834227999999996,3.678065113475133,0.08674877176520263
12.838815999999994,3.66001180381007,0.0863566548830731
12.843415999999998,3.6455562319355983,0.08592378253732874
12.848003999999996,3.6263591183945967,0.08556218729986483
12.852599999999995,3.6115369923776885,0.08516324535846086
12.857195999999997,3.599657539132015,0.08470934127113172
12.861784,3.5898654656585567,0.08429105006490298
12.866391999999998,3.579951207470953,0.08388592758582386
12.870979999999996,3.572857437340438,0.08344239793454213
12.875591999999996,3.567318166676928,0.08300858572752114
12.880179999999996,3.568319306575244,0.08249196329409418
12.884767999999994,3.5678100884551838,0.08204015163673241
12.889356,3.572575292306865,0.08155761217248711
12.893947999999996,3.580938233949137,0.08105029270268133
12.898543999999994,3.593431793687212,0.08054500236373299
12.903132,3.61197702513053,0.08001045055275459
12.907731999999996,3.638983720745116,0.07938148225923967
12.912315999999995,3.6656238622172657,0.07880156231132078
12.916916,3.699703848698889,0.07815604167505637
12.921504,3.7390582571522537,0.07749188444017333
12.926103999999995,3.7813553383768537,0.0767965919541998
12.930687999999996,3.8318695143444295,0.07604198444860785
12.935275999999996,3.883527494187945,0.07527225145211923
12.939871999999994,3.935718354336671,0.0745248329682728
12.944463999999996,3.988031399199543,0.07377615408151175
12.949064,4.0389562707581845,0.07309356612021398
12.953663999999996,4.088082273421529,0.07243075588364212
12.958264,4.137985525818377,0.0717845467480649
12.962855999999997,4.187522224072787,0.07118766476987691
12.967447999999996,4.234238434270108,0.0706244892856001
12.972032,4.277479091390984,0.07008181258380554
12.976619999999995,4.32852614766377,0.06944821151557239
12.981215999999996,4.374298781964816,0.06884906934087769
12.985808,4.419416351246505,0.06825377243014279
12.990403999999998,4.461713432471105,0.06768898226756298
12.994996,4.5035998181046395,0.0671000618801443
12.999584,4.541644096519291,0.0665669172929377
13.004183999999997,4.576212821857497,0.06604261949438169
13.008772,4.603219517472083,0.06558789036904641
13.013368,4.629448963353166,0.06513827094016206
13.017951999999994,4.652980105891308,0.06470593696634835
13.02254,4.670337392010058,0.06429425981173423
13.027136,4.68601799394766,0.0638841931921957
13.031723999999995,4.705130007513078,0.06341189878262855
13.036311999999995,4.725385824954436,0.06292433714324454
13.040915999999996,4.744209327642935,0.06241604446677032
13.045511999999995,4.765198253369166,0.061879555027357376
13.050115999999996,4.781812191571305,0.0613472397567994
13.054707999999998,4.7966272608781475,0.06082303088310572
13.059307999999994,4.814507187670371,0.06026743748461087
13.063888,4.832142745034302,0.05972974969648364
13.068492,4.846424934035934,0.05919299790747988
13.073071999999996,4.863283241666363,0.05866204173576723
13.077675999999997,4.873478954020821,0.058172871705806636
13.082263999999997,4.884041220517716,0.057657910081214965
13.086863999999998,4.892560248691024,0.057168143151662264
13.091451999999997,4.897603723787886,0.05667773291203371
13.096047999999996,4.904446067780043,0.05618305192573832
13.10064,4.91410889982929,0.05567452013212281
13.105235999999998,4.916209702154917,0.05520398745168438
13.109823999999996,4.9171667006046045,0.05475239132812922
13.114419999999996,4.91877876407365,0.05431677156627894
13.119008,4.920923707847905,0.05390777829725517
13.123596,4.923845901355662,0.05351136006930699
13.12818,4.923703237378039,0.05314560019184652
13.132768,4.9242156384197715,0.052795826368088536
13.137355999999995,4.9207637475284765,0.05247611448743273
13.141943999999995,4.921153963856065,0.052134752653148674
13.146539999999996,4.9225657993454455,0.051784892746427405
13.151131999999995,4.922467276816451,0.051480756685851566
13.155724,4.924411992611042,0.05115851066758251
13.160311999999998,4.923047481491961,0.0508806524675119
13.164899999999996,4.916941428706352,0.05062221923831901
13.169508,4.912512060101891,0.05036846546236324
13.174091999999996,4.906283822602135,0.05011460870904012
13.178683999999995,4.898134531492937,0.04986914979381698
13.183276,4.887819817346007,0.049647663225857126
13.187863999999998,4.874684615141988,0.04943427796105254
13.192459999999995,4.857707305719086,0.04923845666482682
13.197052,4.844572103515066,0.04902112839666897
13.201648,4.830415282149253,0.04881155970479849
13.206235999999995,4.81151691911691,0.04861926841052263
13.210836,4.786078145522738,0.04844508449354845
13.215415999999998,4.754387472243662,0.04833571849314358
13.220015999999994,4.720775745355144,0.04823458960505933
13.224604,4.686386768733123,0.048122264077002666
13.229191999999998,4.650853988235164,0.048027677142868035
13.233779999999996,4.610868176947593,0.047998169153453195
13.238371999999998,4.565119204831699,0.04799693729099639
13.242976,4.513318561010561,0.047977745145730964
13.247571999999998,4.4622951669229245,0.047962568444163106
13.252164,4.411393957549434,0.04793662340742102
13.25676,4.361514367337738,0.04789963824892701
13.261347999999998,4.315599069059069,0.047830700843628934
13.265935999999996,4.270094466371466,0.0477981192894019
13.270528,4.221647190912627,0.047784408744084676
13.275115999999995,4.174876599634938,0.047781681247080134
13.279695999999994,4.1318259308619885,0.04776612795046203
13.284287999999997,4.089919065964976,0.047728334061507574
13.288883999999996,4.0449473435825825,0.04771894580844383
13.293475999999998,3.998954002038397,0.047720608032503456
13.298071999999998,3.9597454404843284,0.04768008655573632
13.302659999999996,3.926300039758584,0.047608149183998416
13.307255999999995,3.8913001395658355,0.04751653991028962
13.311851999999996,3.857077489106589,0.04743568382182187
13.31644,3.8188905467143135,0.04738470054937049
13.321044,3.7778831162649493,0.04734668082058538
13.325635999999996,3.7392854782816087,0.04725296965984207
13.330223999999994,3.7027310786218557,0.047134458772846916
13.334812,3.670673851200342,0.047012425627603355
13.339399999999998,3.626190867674532,0.04696016699319335
13.343995999999995,3.5796646458251358,0.04693139240900257
13.348591999999996,3.5310951856521506,0.046926941433851205
13.353195999999995,3.47292045743196,0.046983532439957294
13.357788,3.4121696105829726,0.04702996724107139
13.362384,3.35321763262928,0.047082381399326405
13.366963999999996,3.296308892999174,0.047108121664690986
13.371567999999996,3.2335148078265976,0.04718906529522085
13.376151999999998,3.1685552996162887,0.04731075906578165
