Time,Force,Position
16.983635999999997,0.14164654460821388,0.0
16.988224,0.14434484795115748,0.0
16.992815999999998,0.14266816377000743,0.0
16.997404,0.13996986042706389,0.0
17.002,0.13792662210347684,0.0
17.00658,0.1333072651510919,0.0
17.011167999999998,0.1259896048557634,0.0
17.015776,0.11694633756606236,0.0
17.020363999999997,0.10970193917165699,0.0
17.024971999999998,0.10425640967254735,0.0
17.029563999999997,0.09676764184985065,0.0
17.034167999999998,0.09222154679838886,0.0
17.03876,0.08767545174692705,0.0
17.043352,0.08210773753367175,0.0
17.047943999999998,0.07564058887276857,0.0
17.052536,0.07121667853545245,0.0
17.057132,0.0639722801410471,0.0
17.061712,0.05366302426126116,0.0
17.066312,0.04527482199091661,0.0
17.070891999999997,0.03892985804415912,0.0
17.075491999999997,0.03348432854504946,0.0
17.080076,0.024973941560559237,0.0
17.084671999999998,0.019161857919012572,0.0
17.08926,0.012450339829818054,0.0
17.093852,0.0058610064547692095,0.0
17.098451999999998,0.0019699764226639178,0.0
17.103047999999998,0.0,0.0
17.10764,0.0013149114033074087,0.0
17.112232,0.004550876416056192,0.0
17.116823999999998,0.013550002257129098,0.0
17.121416,0.024225812279352034,0.0
17.126004,0.03514599172986631,0.0
17.130603999999998,0.0449223673044414,0.0
17.135192,0.05367712371722296,0.0
17.139784,0.06333131457765237,0.0
17.144375999999998,0.07094226711449475,0.0
17.148968,0.08035208854663281,0.0
17.153568,0.09156077887406659,0.0
17.15816,0.10366890364914821,0.0
17.162751999999998,0.1141003442430798,0.0
17.167336,0.1255534039988049,0.0
17.171923999999997,0.13802808291632354,0.0
17.176523999999997,0.15038057711969652,0.0
17.181116,0.16068983299948247,0.0
17.185707999999998,0.16715698166038565,0.0
17.190303999999998,0.17566736864487587,0.0
17.194892,0.18303395175342688,0.0
17.199483999999998,0.18704238513508345,0.0
17.204064,0.1900291993549465,0.0
17.208664,0.18610904887054625,0.0
17.213251999999997,0.18063439891914165,0.0
17.217848,0.17287214121585864,0.0
17.222436,0.16805255628381047,0.0
17.227031999999998,0.16911831689423215,0.0
17.231616,0.16838520860935816,0.0
17.236212,0.17149420754336686,0.0
17.240807999999998,0.17100546868678415,0.0
17.2454,0.16601955759196219,0.0
17.249992,0.1571915392782575,0.0
17.254583999999998,0.1537601276504399,0.0
17.259172,0.14930709686082883,0.0
17.263772,0.14575350051886557,0.0
17.268364,0.1433437080528415,0.0
17.272948,0.14297715391040447,0.0
17.277535999999998,0.1482515758821459,0.0
17.282131999999997,0.153281628425596,0.0
17.286724,0.16137653845442668,0.0
17.291311999999998,0.17355792513043145,0.0
17.295904,0.18189720458755343,0.0
17.300492,0.18945923431117326,0.0
17.305083999999997,0.19894231764423448,0.0
17.309672,0.21251187762446974,0.0
17.314259999999997,0.22248369981411364,0.0
17.318863999999998,0.22387187311834417,0.0
17.323452,0.22705891531787037,0.0
17.328052,0.22766983888859874,0.0
17.332644,0.23007963135462284,0.0
17.337244,0.2339217385735056,0.0
17.341835999999997,0.2425495289075471,0.0
17.346428,0.2482007446534643,0.0
17.351032,0.25549474276364226,0.0
17.355615999999998,0.26545314239987433,0.0
17.360215999999998,0.2839612891046304,0.0
17.364804,0.30819869482082124,0.0
17.369404,0.3357114256337946,0.0
17.373987999999997,0.36421187379167214,0.007096758744785895
17.378587999999997,0.394843843170393,0.014279961957339242
17.383184,0.426096975751581,0.021845610067408972
17.387776,0.465899855401293,0.029378860858992117
17.392371999999998,0.517972404624266,0.03644683769763737
17.396963999999997,0.5704217476214148,0.04387649681960453
17.401567999999997,0.6270899916116222,0.051304680736698895
17.406163999999997,0.6891209404708273,0.05890790584127872
17.41076,0.7602345167037673,0.06655347242174732
17.415356,0.8377324169674984,0.07409956803159669
17.419936,0.9231691407290252,0.08158916905613431
17.424519999999998,1.0138463846454042,0.08914552855400824
17.4291,1.1140949947921006,0.09656024462452524
17.433691999999997,1.2179413427293884,0.10386577769985235
17.438288,1.3273403838835982,0.11091820674478739
17.442871999999998,1.436651142140552,0.11794597820834087
17.447467999999997,1.540110456671925,0.12507297190695074
17.452047999999998,1.6354307197258393,0.13219598177430292
17.45664,1.7245329849117363,0.1394056264370332
17.461223999999998,1.807950132534827,0.1467245353682585
17.465812,1.890912443118224,0.146905142162897
17.470408,1.969211255300608,0.1471073898066426
17.475004,2.0464001654239423,0.14689888315546648
17.479599999999998,2.1176154471075503,0.14678724439982146
17.484195999999997,2.17619450507546,0.14730197126242228
17.488792,2.234152399840903,0.14738047268880064
17.493395999999997,2.2845821666996153,0.14756339174072694
17.497988,2.3359452698228655,0.14738860896645392
17.502584,2.384399601991769,0.1471091194590743
17.507164,2.428146294311032,0.14684884225875644
17.511764,2.464364858723564,0.14670574329155198
17.516344,2.4931774799435114,0.14662577463567442
17.52094,2.5144619732567293,0.14667336544035628
17.525536,2.5321045873307266,0.14676186075613804
17.530136,2.5415301066617477,0.14719236285780815
17.53472,2.5522216145828542,0.14752516647461794
17.539316,2.5650785455416933,0.14772573966413038
17.543912,2.573316119548147,0.1481127024985415
17.548503999999998,2.584985105182419,0.1482705669602685
17.553103999999998,2.5971428296732726,0.14833919256626824
17.557703999999998,2.6050477513541788,0.14853721237654044
17.562296,2.6125419774440197,0.14868233842871967
17.566888,2.6204027576762976,0.14876645994951246
17.571479999999998,2.6307955150887454,0.14865963470101176
17.576064,2.6457634880049503,0.14824983325852284
17.580651999999997,2.660198580615944,0.14782625872605584
17.585248,2.678065084854756,0.14718382140839395
17.58984,2.690657167121826,0.14673439703452146
17.594431999999998,2.699363000721385,0.14634935347910621
17.599027999999997,2.7040604009392877,0.14604662597269144
17.603616,2.708713659708562,0.1456360690596402
17.608207999999998,2.7190859378575323,0.14487767437957583
17.612796,2.727248651520141,0.1441327001752095
17.617388,2.7329574312680984,0.1434462483854857
17.621992,2.7390327651584925,0.14268915411880986
17.626579999999997,2.7418769154007325,0.14200632822141337
17.631172,2.740468262833024,0.14143246833408257
17.635759999999998,2.7428575760355707,0.14057854445955367
17.640348,2.7417713361616713,0.1398371260261036
17.644944,2.7403965854108527,0.13902595933617232
17.64954,2.741431627126058,0.13804919708142804
17.654144,2.7448764613072876,0.1369133303173978
17.658735999999998,2.7449679271262166,0.13586262676235403
17.663344,2.741217285726263,0.1349731859625055
17.667928,2.7323585485173423,0.13432956220894193
17.672528,2.721334388270688,0.13380316364784148
17.677104,2.7061015666627144,0.13349298651056687
17.681707999999997,2.6926676139500367,0.13312190463691007
17.6863,2.6827092143138045,0.13265009472935702
17.690883999999997,2.6712404566591963,0.13230484650135826
17.695463999999998,2.6612040137574464,0.13195640530216046
17.700056,2.6473696050854425,0.1318668165648788
17.704644,2.6366441953474475,0.13173915496644806
17.709239999999998,2.6255522314670157,0.13167104223420625
17.713828,2.6185908856823854,0.1315170462580801
17.718424,2.6107742468987354,0.13150053780740212
17.723008,2.6117075831632723,0.13123733744772828
17.727596,2.6107640072669964,0.1311576564677877
17.732184,2.609986757533494,0.13116661690998827
17.736776,2.612074137305709,0.13117949154843384
17.741367999999998,2.616248896850139,0.13120711047737824
17.745948,2.618668928947902,0.13139520556767784
17.750543999999998,2.62485302499903,0.13156263291479495
17.755132,2.6341461199841665,0.13169754846003393
17.759719999999998,2.648713636941045,0.13168667912610818
17.764311999999997,2.6666345222602232,0.13160645130326995
17.7689,2.690074198979435,0.13134531121784582
17.773512,2.7131473215562085,0.13114513003328993
17.778095999999998,2.7336884669528128,0.13111250454247053
17.782688,2.7625688918065388,0.13080971443914535
17.787284,2.791737827537185,0.13057777110892593
17.791884,2.8236050666107744,0.13027023686971856
17.796476,2.8564939248461574,0.12993608573880983
17.801056,2.893224890300423,0.12947341349867428
17.805656,2.9291786060211864,0.12903756010037548
17.810243999999997,2.9653766911702406,0.12854801615085212
17.81484,2.998998657690497,0.12815356493916036
17.819428,3.0338866128008393,0.1276732525212924
17.824023999999998,3.071184360377204,0.12706535579390055
17.828616,3.1059059893247722,0.12651816368413787
17.833208,3.1361304460341017,0.12608797708966696
17.837799999999998,3.1677430760476613,0.12556656896389382
17.842395999999997,3.196124522413066,0.12508953261901443
17.846984,3.224461827329842,0.1245308417127343
17.851575999999998,3.2526328060838456,0.1239174952016724
17.856164,3.278594220351488,0.12331534596963217
17.860747999999997,3.299647766789826,0.12278620930471955
17.865327999999998,3.322333855960686,0.12215253178355236
17.869927999999998,3.34767410702586,0.12137254945765787
17.874519999999997,3.366063251938144,0.12073952066919948
17.879112,3.3828537559347946,0.12003118074906527
17.883703999999998,3.3965352609974366,0.11934562525279822
17.888295999999997,3.406086147964277,0.11871583871147186
17.892875999999998,3.411139862692877,0.11818431653126697
17.897468,3.4129623937733236,0.11768392186591632
17.902051999999998,3.4209146398245305,0.11699219085386134
17.906664,3.423470279189851,0.11641029623443162
17.911251999999998,3.428313526307049,0.11573891432633757
17.915847999999997,3.430336285367159,0.11513793409389175
17.920436,3.432969967997997,0.11446508045913796
17.925023999999997,3.4407117464378025,0.11363691939509868
17.92962,3.4458774062488104,0.11284498507747448
17.93422,3.4542301082593445,0.11194901395575359
17.938823999999997,3.461316821679793,0.1111186702570384
17.943403999999997,3.462518189557773,0.11044237154564669
17.947996,3.461920688540456,0.1097965644687325
17.952583999999998,3.462877686990144,0.10914416925654583
17.957183999999998,3.459870393506803,0.10860135721162154
17.961764,3.454042611966373,0.10812226322321701
17.966364,3.4500136993212385,0.10760905690713082
17.970955999999997,3.4454960478195216,0.10715109975038965
17.975551999999997,3.442122200193744,0.10664762069024188
17.980144,3.442223905644412,0.10609678569286343
17.984735999999998,3.4452682838663153,0.10547048858237419
17.989331999999997,3.4498671615552223,0.10483991695918185
17.993927999999997,3.4496023128634534,0.10433712921084771
17.99852,3.4530573866764223,0.10375922513544708
18.003111999999998,3.4552464718993052,0.10324409412574004
18.0077,3.462054914074574,0.10265028521139012
18.012292,3.4722167246121427,0.10203951612501694
18.01688,3.4782920585025368,0.10154169912614143
18.021476,3.4898861837929633,0.10095807801274251
18.026068,3.500991570226808,0.10043705032387389
18.030648,3.5141401949842392,0.09987094286056473
18.035232,3.532807611141704,0.09921432641354301
18.03982,3.5540511459279656,0.09853412690765935
18.044424,3.57913678793311,0.09779295981203862
18.049008,3.6078201677288457,0.09700577688695806
18.053588,3.6362591780962905,0.09624162646808519
18.058188,3.6617555156925006,0.09553456062943738
18.06278,3.690849591079302,0.09478683865796585
18.067384,3.723297034828403,0.09403696492850278
18.071976,3.7528018058062695,0.09335290097235503
18.076564,3.781817837927553,0.09272746212704201
18.08116,3.814431607839428,0.09206970373060563
18.085752,3.8478226274848057,0.09142002441655898
18.090348,3.8790482240924504,0.09083103050248852
18.094928,3.9112954398618895,0.09022941708857248
18.099528,3.9390454833930884,0.08969079778579465
18.104116,3.9622983546860473,0.0892118428793262
18.108716,3.9886160834643873,0.08867158904256367
18.113308,4.011868954757347,0.08820770630797475
18.117904,4.031768457688007,0.08775920725839353
18.122484,4.053222460085671,0.0873277055775085
18.12708,4.073899212749833,0.0868999513631663
18.13168,4.092532727090407,0.0865128529293771
18.136272,4.105525265316803,0.08620502411441641
18.14086,4.116596749933759,0.08592776234834629
18.145456,4.13253196093139,0.08557910988264432
18.150044,4.155007582490848,0.08515276799130986
18.15464,4.172086597364418,0.08477673773589532
18.159228,4.1854456897332515,0.08444961935805949
18.163816,4.202646889320967,0.08407213319757541
18.168408,4.223157315822355,0.08362463402283561
18.173,4.240436558675588,0.08318244744603827
18.177592,4.255916932633526,0.08275587161881238
18.18218,4.276383217686287,0.08225541553301029
18.186776,4.294029014681958,0.08178999751884751
18.191364,4.310531007801689,0.08135038215015251
18.195956,4.32396814343604,0.08095919591018777
18.200552,4.33434042158501,0.08062377939922313
18.20514,4.3461008730382105,0.08024290059992117
18.209744,4.359660193386707,0.07984802841193847
18.214332,4.367822907049317,0.07949631331503405
18.21892,4.375985620711926,0.07914749995399141
18.223516,4.388479180450001,0.07871307309831191
18.228104,4.405714281854607,0.07822896899986476
18.2327,4.424459741277588,0.07769063794441151
18.23728,4.438585843748185,0.07719958684788089
18.241876,4.451035262037631,0.07671915117860546
18.246468,4.469125656441256,0.07618625426803181
18.251064,4.488237670006675,0.07564063802453594
18.255648,4.504773564943296,0.07510804799104595
18.260252,4.515668483765738,0.07463203574626072
18.264844,4.524275794836302,0.07420530480560943
18.26944,4.53696958255404,0.07372294077111206
18.274028,4.547209436357126,0.07324388757308613
18.278624,4.559614713197945,0.07272824827366922
18.283224,4.576106466685936,0.07215725623922935
18.28782,4.599383000164047,0.07151512275360414
18.2924,4.623803337518097,0.07084881108810447
18.296984,4.644381567653263,0.07022384058847345
18.301576,4.665981416950224,0.06958927203280957
18.306164,4.687825635675475,0.06893205364110717
18.310752,4.707093735771927,0.06827957604097307
18.315336,4.725218031992442,0.06766183446323483
18.319932,4.738722971260573,0.0670768608499677
18.32452,4.749818118062677,0.0665487345216445
18.329112,4.761690514598286,0.06602635045291046
18.333704,4.769842988629157,0.06552961543755702
18.338292,4.777995462660027,0.06504061566822018
18.342876,4.781406395024368,0.06458474922406963
18.347464,4.782896273779267,0.06414394542818394
18.352052,4.785163402267667,0.06370710674670702
18.356648,4.791150453260805,0.06324800037419309
18.361236,4.793950462054417,0.06283955187780954
18.365844,4.795484482257944,0.06246367967072148
18.370436,4.796774133033178,0.06210833472586095
18.375032,4.794998926323033,0.06178980410507472
18.37962,4.79064760098409,0.06147202479782286
18.38422,4.788339513968734,0.06113253483370694
18.388804,4.790528599191617,0.060781962191662486
18.393404,4.792717684414502,0.060433468543013506
18.397996,4.79838232271383,0.0600857462143274
18.402596,4.811486806022633,0.05970836480342638
18.40718,4.821404247131911,0.05937333283889111
18.411776,4.836063229907719,0.05901361627124698
18.416372,4.855708123778348,0.05861367632460313
18.420968,4.874820137343767,0.05819097803598696
18.425556,4.896752638966275,0.05775589483917399
18.430144,4.9140657836363975,0.057340726627497306
18.434732,4.9381637082966385,0.05688106030190866
18.439324,4.964837751585676,0.05642608872264435
18.4439,4.994576652360094,0.055944725403323965
18.448492,5.021739434505715,0.05546186598195478
18.45308,5.047103347756041,0.05498105104082106
18.457656,5.070424022682779,0.05451936232044031
18.462252,5.092723078447725,0.05406995586371577
18.466836,5.116943187822111,0.05361097990800689
18.471428,5.14476103498709,0.0531551891260554
18.476012,5.170413459114332,0.05273128290089399
18.480592,5.1914465262891945,0.05232296077933647
18.485188,5.208515301531025,0.05194325597179572
18.489776,5.220964719820472,0.05157663014914575
18.49436,5.222665066186773,0.0512786195697786
18.498956,5.2249763361238015,0.050938042182087195
18.503548,5.219603391623066,0.05063558877382726
18.50814,5.207567851846358,0.05036266020563274
18.512716,5.194266323479564,0.05011324737799222
18.517316,5.1798209912368325,0.04988074222807465
18.5219,5.166275093441747,0.04964590816061851
18.5265,5.1469660348183375,0.049437139995647306
18.531084,5.127656976194928,0.04922855654605216
18.535676,5.1032398217625525,0.04906156035335173
18.540264,5.0752249295395835,0.04889205722710063
18.544856,5.045288983707174,0.04872914141544542
18.549444,5.016496841750704,0.04854722068307213
18.554036,4.985128581165436,0.048354622245932295
18.558624,4.948896594199493,0.048186622364373315
18.563208,4.902814969758051,0.04807855256244991
18.567796,4.850315119468928,0.04797735097195953
18.572392,4.794994781122716,0.0478828709151023
18.576988,4.742617115547739,0.047767888742883055
18.581568,4.692160503582202,0.047640199391815345
18.586156,4.643869314654399,0.047484054397968226
18.590744,4.59263545295536,0.04733865694313508
18.595328,4.541401591256322,0.04719013636738679
18.599912,4.488124491233697,0.047057808854052405
18.604496,4.434847391211071,0.04692202521013157
18.609084,4.375929315074268,0.04680254373312316
18.613676,4.313946381452084,0.04670933213947184
18.618264,4.251596893687463,0.04664640941472651
18.622868,4.1838507992369545,0.046578204065762074
18.627468,4.11544963976709,0.046487606800730025
18.632072,4.050401848659525,0.04641440745273261
18.636648,3.98535405755196,0.0463394477077823
18.641252,3.9173635936731603,0.04628023968246568
18.645832,3.848229325918421,0.04623732013459447
18.650428,3.779461612306119,0.046157301936377806
18.655016,3.711959887283902,0.046046242946240094
18.659616,3.6508763881093658,0.045922639170798585
18.6642,3.5937571808678577,0.0457580688506277
18.668796,3.532551496979176,0.0456363683392332
18.673384,3.4672593364433193,0.04555807624930472
18.677976,3.4008233720315246,0.04550168976471556
18.682568,3.335819722372588,0.045480475908705215
18.68716,3.2753132449518905,0.045461739817917075
18.691748,3.2195483091977235,0.04541988140501626
18.696348,3.164438438462913,0.04540395273789879
18.700936,3.1148473591281354,0.04538024383686844
18.705524,3.06435684534571,0.0453584900715179
18.710108,3.013211266543928,0.045311776549685365
18.714704,2.961943503028001,0.045274410961339634
18.7193,2.9094097509219883,0.04528084914482392
18.723888,2.853933326044741,0.04532064192222617
18.728472,2.7984569011674942,0.04536059422886361
18.733048,2.7418366724143075,0.04543877687965414
18.737636,2.690735235061154,0.04550089202462822
18.742232,2.641066112460859,0.0456105246301203
18.74682,2.5951169123653015,0.0457045182764939
18.751408,2.5462250394985086,0.045830772250193996
18.756004,2.4949233741656918,0.04603916273314133
18.760588,2.4429666438135182,0.04622493607003766
18.765184,2.3901104790136967,0.04643394125712255
18.76976,2.338398118089815,0.04661004965121904
18.77436,2.284886888270637,0.046799127337244735
18.778944,2.227777920660867,0.046990791211885014
18.783544,2.1642507272034175,0.04720258647163012
18.788132,2.0991690342789635,0.04737363292090118
18.792732,2.030733972992209,0.04748587988656534
18.797324,1.9653637691908354,0.04752437446976456
18.80192,1.900115750103608,0.0475290196478372
18.806504,1.8356449807498822,0.04756554071882941
18.8111,1.7752606880433306,0.04750090547066457
18.8157,1.7154873189075073,0.0472825903358361
18.820296,1.6566133842193316,0.04705208228832226
18.824888,1.6000270572830342,0.046689559642868944
18.829488,1.5349792661754698,0.04638158539538004
18.834076,1.468254790886755,0.046023650243384465
18.83866,1.397810393093303,0.04367620245548405
18.843248,1.32850979917579,0.04131005468370896
18.84784,1.259453574686569,0.03890349969696233
18.852424,1.1911745999308498,0.03649659567680645
18.857012,1.129802589879394,0.0340432357870223
18.861612,1.068430579827938,0.03161194853535665
18.866196,1.0062813200429799,0.02915455456250636
18.870792,0.9431104410962285,0.026694574401041497
18.87538,0.8843145496735704,0.024229470325167007
18.879968,0.8234754199273253,0.021790963548028196
18.88456,0.7631691704862911,0.019411256254496276
18.889148,0.7064606588358482,0.017094114678238945
18.89374,0.6543715041377902,0.014814176403221163
18.898332,0.6051028374968215,0.012506826841617805
18.90292,0.5527693133704724,0.010270797291352647
18.907516,0.5025231690163385,0.008155642613834039
18.912092,0.4539537088433546,0.006054778502226802
18.916692,0.4057949442614358,0.00405005464535128
