Time,Force,Position
16.429416,0.013651904451912594,0.0
16.433999999999997,0.013952432802155176,0.0
16.438592,0.01605183004769346,0.0
16.443188,0.016107988969644698,0.0
16.447788,0.01784083207274597,0.0
16.452384,0.023293597680584317,0.0
16.456975999999997,0.028746363288422665,0.0
16.461568,0.03599799779155671,0.0
16.466155999999998,0.04504850118998646,0.0
16.470744,0.05704167735965111,0.0
16.475331999999998,0.06968991854867226,0.0
16.479923999999997,0.08605808224243049,0.0
16.48452,0.10116025734610387,0.0
16.489112,0.11612823026230848,0.0
16.493703999999997,0.13315145897542321,0.0
16.498296,0.1464427477104778,0.0
16.502888,0.15163912641670171,0.0
16.507479999999997,0.15467008208519292,0.0
16.512068,0.16321982915371688,0.0
16.516675999999997,0.17681164623901405,0.0
16.521268,0.18769314250804459,0.0
16.525859999999998,0.19947407322472296,0.0
16.530451999999997,0.20639127756072506,0.0
16.535051999999997,0.21702840440146426,0.0
16.539635999999998,0.22496722789925988,0.0
16.544227999999997,0.2270207058545857,0.0
16.548824,0.22972924882926804,0.0
16.55342,0.2276962501374198,0.0
16.558016,0.22002227533139304,0.0
16.5626,0.2080290991617284,0.0
16.567187999999998,0.19538085797270724,0.0
16.571772,0.179012694278949,0.0
16.576372,0.16391051917527566,0.0
16.580963999999998,0.14893052878574795,0.0
16.585555999999997,0.1319073000726332,0.0
16.590135999999998,0.11590569052131201,0.0
16.594728,0.10656667624596276,0.0
16.59932,0.09939308500834622,0.0
16.603911999999998,0.08952119042778613,0.0
16.6085,0.07592937334248898,0.0
16.613091999999998,0.06372572956142235,0.0
16.61768,0.0516442704945014,0.0
16.622272,0.04671274048004639,0.0
16.626867999999998,0.03990429830477815,0.0
16.631456,0.03996891901688387,0.0
16.636039999999998,0.04731729820742871,0.0
16.64062,0.057862959229238536,0.0
16.645211999999997,0.08497523408288554,0.0
16.649796,0.1248120155494869,0.01015001818422865
16.654383999999997,0.1732310408214129,0.020097500542981456
16.65898,0.23179845407749539,0.029451724357418912
16.663572,0.3025574936413214,0.03813999851203983
16.668176,0.3812994981515712,0.04680199655423741
16.672767999999998,0.4727660092747754,0.055073237571501406
16.677367999999998,0.5704166164491076,0.06346555749717557
16.681963999999997,0.6761723732840094,0.07183393860692364
16.686556,0.7883565955983305,0.08025204242208125
16.691152,0.9076243484114275,0.08871627329841332
16.695732,1.0416598461610658,0.09680893706609534
16.700328,1.1850664821613586,0.1048068368791833
16.704915999999997,1.3379664411264516,0.11270350208182875
16.709515999999997,1.499704658036988,0.12050679232337151
16.714108,1.6643971924305865,0.12828309137718044
16.718708,1.84041582050117,0.13586644657435268
16.7233,2.0166788180000452,0.14338116658851738
16.727895999999998,2.1946524014969597,0.15074727925470618
16.732484,2.3759691137244348,0.15793471118770652
16.737076,2.5427624504436603,0.16514377200676975
16.741664,2.7043933102735513,0.1621042867539129
16.74626,2.8607395084999627,0.15921291425997522
16.750847999999998,3.0115566756946017,0.15680206248644435
16.755432,3.1498156624390603,0.1550951693449532
16.760016,3.2830343570083302,0.153331186951601
16.764612,3.3996864377457627,0.15206113059079768
16.769199999999998,3.5090106185561285,0.15071565218511462
16.773792,3.608963661115839,0.14945323924116294
16.778388,3.704164922377281,0.14811314080947596
16.782975999999998,3.7919160989975103,0.1467655297118652
16.78756,3.858236935405226,0.1459777007776858
16.79214,3.916086068009935,0.14526271129922727
16.796719999999997,3.9635424432021957,0.14467088093008437
16.801312,4.0042037987726005,0.14410221999939155
16.805899999999998,4.036926330845209,0.14358213479056223
16.810488,4.0548030747157595,0.14335693090030463
16.815084,4.069404493489527,0.14312020282263146
16.819675999999998,4.074600872195751,0.14308498357038402
16.824271999999997,4.068881852816056,0.14333363560693618
16.82886,4.062263398988712,0.1436077272822992
16.83346,4.05306882653257,0.14392870152068993
16.838047999999997,4.0419532004669865,0.14430409882563736
16.842647999999997,4.023275544677784,0.14489183576450196
16.847231999999998,4.004309378011661,0.1454372278205228
16.851831999999998,3.9813789194125104,0.14610477014752335
16.856423999999997,3.964578175784121,0.14656360859776038
16.86102,3.950187224621755,0.14691091781062418
16.865616,3.9402493042490008,0.14707501983347154
16.870212,3.933376241361627,0.1471310231154686
16.874799999999997,3.9336545126068074,0.14695305281232635
16.879383999999998,3.944559671060989,0.14647196190504047
16.883972,3.9548097644958133,0.14598789245107652
16.888564,3.9631388043211966,0.14555139305577183
16.893151999999997,3.969668975251284,0.14515983692589948
16.897748,3.977220765343165,0.14473408728085876
16.902336,3.991679520139309,0.14410041179480448
16.906927999999997,3.9998422338019184,0.14360888118934262
16.91152,4.01160268525512,0.14303310652978782
16.916107999999998,4.028226863088996,0.1423086746720124
16.920707999999998,4.047016463960606,0.14149997696910238
16.925283999999998,4.063885011222776,0.14074876787406004
16.929879999999997,4.08279679680853,0.13993671287113446
16.934464,4.103218940412662,0.1390239483187364
16.939052,4.122619464855001,0.1381393030497192
16.943655999999997,4.145329216211011,0.13713049335786587
16.948244,4.16497411008164,0.1362326158379075
16.952831999999997,4.187439492009359,0.1352825718845554
16.957428,4.20618495143234,0.13443738714604597
16.962024,4.21797930470243,0.13373073009156822
16.96662,4.216037771829512,0.1333354030797767
16.971216,4.211520120327795,0.13298666166785306
16.975816,4.20610303437843,0.13265546789713645
16.980404,4.205916228952178,0.13215756463219885
16.985004,4.200987881859396,0.1317724719941464
16.989592,4.197447708070844,0.131319238022757
16.994191999999998,4.191986480672852,0.13091727111031798
16.99878,4.19126679494139,0.1303992633483963
17.003376,4.187970990581129,0.1299214562792337
17.007959999999997,4.186718424544456,0.12938823988729498
17.012556,4.188164161850728,0.12880825915406452
17.017144,4.189854268585289,0.1282021267775248
17.021739999999998,4.189090441405199,0.12762443952623329
17.026335999999997,4.190003298406259,0.12702392112427063
17.030932,4.195657697073848,0.12631886944080675
17.035519999999998,4.195426750198969,0.12575937857810043
17.040104,4.196994672219385,0.12516734638724622
17.044696,4.190634010373745,0.12477915688722255
17.049291999999998,4.184561859405024,0.1244345573824416
17.05388,4.178656034599076,0.12414421394895271
17.058472,4.183665607879048,0.12363761133733443
17.063067999999998,4.186387573407142,0.12321494862591631
17.06766,4.1887429847928,0.12282758746132083
17.072256,4.187789169264786,0.12255339456574761
17.076832,4.194930263765601,0.12212865547599913
17.081419999999998,4.201582619409834,0.12175730250730199
17.086008,4.205825182588043,0.12148005750992642
17.090595999999998,4.20957900690967,0.12125336885636394
17.0952,4.216686199593596,0.12098714382713986
17.099788,4.219706915630349,0.12083506902830247
17.104376,4.220562208629369,0.12075168162601647
17.108971999999998,4.222727631667102,0.12068526955129705
17.113571999999998,4.225181565581754,0.12066308486783683
17.118164,4.231233237286998,0.12058186394005667
17.122752,4.233320617059213,0.12059604248101627
17.127347999999998,4.242970026555048,0.12045797542523831
17.131928,4.2490216982602895,0.12037825707538702
17.136523999999998,4.261858149955652,0.12014746110023203
17.141112,4.279147632440624,0.11978206091302589
17.145712,4.299868526553414,0.11930281182158556
17.150308,4.315603509571383,0.11894783201242799
17.154904,4.332115742322853,0.11858826887650877
17.159488,4.350793398112056,0.11816574201721608
17.164084,4.37727745305317,0.11758637109763197
17.16868,4.403350812403218,0.1169928177506994
17.17328,4.428402552591473,0.11642662859709113
17.177871999999997,4.453043597188663,0.11582334756876549
17.182456,4.479072815090084,0.11516945868728047
17.187047999999997,4.502648099076852,0.11453685400725645
17.191632,4.528388806101353,0.11384682255326435
17.196219999999997,4.551431209782911,0.11319439382450697
17.200812,4.5758617867687,0.11249216832260639
17.205403999999998,4.600414548468634,0.11177811621208157
17.209984,4.6184268996067415,0.11118025550902114
17.214575999999997,4.638482489068435,0.11053592934743732
17.219164,4.656861394348981,0.10992094721676426
17.223755999999998,4.680636906315413,0.109233013562995
17.22834,4.701714114938901,0.10859027572960982
17.232927999999998,4.719726466077009,0.10802753923480103
17.237516,4.737372263072679,0.10750188771435959
17.242107999999998,4.760248340591463,0.1068640250957425
17.246699999999997,4.7875774488998575,0.10612033191915976
17.251292,4.8140071227606045,0.10539268964375229
17.255872,4.826989421355263,0.10488990232196511
17.260475999999997,4.837029047178685,0.10444478137145814
17.265055999999998,4.842571500763868,0.10404774317452187
17.269655999999998,4.852733311301436,0.10358990848310509
17.274244,4.860074633781917,0.10317601425722826
17.278844,4.869992074891194,0.10274302428264032
17.28344,4.878643527410385,0.10235218681701934
17.288027999999997,4.889582587681455,0.10190017935492593
17.292607999999998,4.90154326711432,0.10143604700429786
17.297203999999997,4.917590423194358,0.10089990269376689
17.3018,4.937479686493279,0.1003035998984796
17.3064,4.956469515344552,0.09972054235997056
17.310992,4.973049551729801,0.09920948597384063
17.315583999999998,4.987053469486252,0.09872162349468391
17.320176,5.002856256137999,0.09821933071008739
17.324759999999998,5.0186590427897455,0.09772109230422328
17.329348,5.0381817519462295,0.0971866037302106
17.333944,5.052596365293748,0.09674785303050745
17.338535999999998,5.060514709528064,0.0964462195065904
17.343128,5.073052410714767,0.0960988584871546
17.34772,5.098793117739267,0.0955911708967357
17.352311999999998,5.1232678361736825,0.09511862240127233
17.356904,5.160823375731752,0.09450311685832721
17.361496,5.197235111413882,0.09392489305611267
17.366083999999997,5.233280292953574,0.09337156894356721
17.370692,5.2685482247597655,0.0928237205066618
17.37528,5.310478751841929,0.09220807516216141
17.379891999999998,5.355762647286392,0.09159164785710364
17.384472,5.39696006608368,0.09104630129297196
17.389059999999997,5.435092627395588,0.0905592084245922
17.393652,5.4777223609457355,0.09004946647420986
17.398244,5.521662224534596,0.08956274408042984
17.402839999999998,5.569566380056485,0.08902974324747273
17.407415999999998,5.622989326978407,0.08846151976197576
17.412015999999998,5.673591785843238,0.08792542646400091
17.4166,5.724727125013281,0.08741283250541479
17.4212,5.768544803887995,0.08696430478369234
17.425784,5.814405721086296,0.08648826109114627
17.430384,5.867662341845444,0.08590119009458454
17.434976,5.916299605652206,0.08536422327698492
17.439572,5.956719774715993,0.08489842668847304
17.44416,6.003391843464685,0.08435060023468778
17.448756,6.043767871079844,0.08386030649033985
17.453356,6.082589399227999,0.08336992024688676
17.457952,6.128562261508707,0.08279800911255426
17.462543999999998,6.1784994157224435,0.08219533480155738
17.467136,6.219320040745556,0.08165815208073701
17.471724,6.255643493530429,0.08115065021018873
17.476312,6.295931238248332,0.08060566067484944
17.4809,6.334908852927522,0.08004408061788854
17.485495999999998,6.367057546167963,0.07950520144207444
17.490091999999997,6.398507032940423,0.07891435642115757
17.49468,6.4230054135599906,0.07834682925941783
17.499276,6.4386316344172245,0.07781913660356708
17.503864,6.456667647740482,0.07724933633212291
17.50846,6.473760085167465,0.07664127661941558
17.513047999999998,6.494039564793972,0.07599146555999274
17.517643999999997,6.513786164115272,0.07532781194759998
17.52224,6.525970733712949,0.07472125334415239
17.526828,6.537622423005417,0.0740981540161008
17.531428,6.550417916173822,0.07345585370778095
17.536019999999997,6.555651379618608,0.0728677565916781
17.540616,6.555366051663362,0.07230735857401331
17.545212,6.55520290842226,0.07174069546873481
17.549799999999998,6.544779432114596,0.07123338792057235
17.554403999999998,6.525117241902161,0.07077222515755754
17.558995999999997,6.507498290013315,0.07028778374721092
17.563588,6.491267511428699,0.06977102911473468
17.568179999999998,6.470661745319989,0.06926271736612014
17.572771999999997,6.449689425068842,0.0687730716745653
17.577351999999998,6.426429497065817,0.06831291391515545
17.581955999999998,6.404846253243941,0.06785295470190442
17.586536,6.385716943336718,0.06739481266145705
17.59112,6.372883674563029,0.06691592242271954
17.595712,6.359561666932757,0.0664654744854674
17.600303999999998,6.344074236264754,0.06603918452255855
17.604892,6.330263489777901,0.0656151107744491
17.609484,6.319928296367493,0.06518994541815859
17.614064,6.313190840747677,0.06475422611978475
17.618647999999997,6.308007884594864,0.06432764925747018
17.623223999999997,6.303602178175555,0.06390525887276677
17.627803999999998,6.301650405670896,0.06348834464051072
17.632384,6.304195805404478,0.06305939585236238
17.636964,6.308540074033356,0.06262842654652417
17.641547999999997,6.318280949348121,0.06218365096912592
17.646144,6.337138353853509,0.061713768360460185
17.65072,6.35587357364475,0.06125124648515714
17.655323999999997,6.377962161798294,0.06080054561963641
17.659903999999997,6.402749053294781,0.060346462092545114
17.664492,6.428557563953061,0.05988499455574036
17.669083999999998,6.463849157944402,0.05938390913656057
17.673664,6.494932090574424,0.058925646084227325
17.678259999999998,6.527936076813885,0.058459691004823594
17.682848,6.559918443891556,0.058008257549529305
17.687448,6.592022995683371,0.05755365234551127
17.692031999999998,6.625926416370482,0.057097406333150254
17.696631999999997,6.657009349000503,0.056655144321036105
17.701216,6.681551871068698,0.05623730064590154
17.705811999999998,6.7053171434033905,0.055816944185205476
17.7104,6.727283546842788,0.05540058757616066
17.714992,6.750149384729832,0.054985543652696235
17.719579999999997,6.774403395921109,0.0545462683438933
17.724172,6.797757972664737,0.05411040064772774
17.728759999999998,6.815471573294186,0.05369302642710322
17.733352,6.832285739475988,0.053278497496707794
17.73794,6.840638441486521,0.05289139925707503
17.742528,6.8509121971064975,0.05249767380084567
17.74712,6.853379553574561,0.05214116763945389
17.751704,6.850983183661948,0.05180561850438708
17.7563,6.851529486520571,0.05145758489512099
17.760879999999997,6.838872783541395,0.05114706233464671
17.765472,6.827115515009867,0.05083473573021219
17.770059999999997,6.81253775842125,0.05052927392226486
17.774648,6.792319025718454,0.050237569899375015
17.779263999999998,6.766337132187336,0.049965047304404625
17.783852,6.736635316151479,0.049697695825790485
17.788456,6.702847023468448,0.04945459976326094
17.793044,6.668037111623623,0.0492151375246588
17.797632,6.629140723131625,0.049000161124039134
17.802228,6.587179477154246,0.04880297867601039
17.806815999999998,6.539332885634397,0.04863149042900419
17.811411999999997,6.483679894962636,0.04849074900899478
17.815987999999997,6.4231631779102,0.04836812145368288
17.820587999999997,6.365100394772416,0.04825656680222568
17.825176,6.301152266092162,0.04817070182366153
17.829776,6.237081952697762,0.04809010943403571
17.83436,6.165205240151453,0.04804207060634929
17.83896,6.090630224262198,0.0479953265210961
17.843552,6.017731892554095,0.047954316119953405
17.848148,5.932940685046907,0.04797844917981558
17.852736,5.856488756996839,0.04798538169591203
17.857328,5.775539656708531,0.04799082496127562
17.861919999999998,5.692547318096638,0.048009283440961545
17.866512,5.60853336032295,0.048034572330009566
17.871091999999997,5.525663206425203,0.048042554978976956
17.875676,5.443325932832666,0.04807279450284849
17.880263999999997,5.363031897563715,0.04808767957416454
17.884856,5.281594058418827,0.04811879226719193
17.889452,5.198235165664497,0.04815992079137336
17.894039999999997,5.113976838462517,0.04820175886470105
17.898632,5.033804987907713,0.04820784546819017
17.903212,4.958130309591147,0.04821411184979013
17.907804,4.881311827398643,0.048240467165800695
17.912395999999998,4.798974553806106,0.04827770402064832
17.916984,4.718680518537156,0.048297609151895335
17.921591999999997,4.639285917715854,0.04831778585716701
17.92618,4.565532293008729,0.04831962832783613
17.930767999999997,4.493699721911047,0.04831354996805888
17.935364,4.418147228308627,0.04831886468841073
17.939951999999998,4.350401133858119,0.048279339399869094
17.944543999999997,4.275992444131639,0.04826841681265062
17.949123999999998,4.2040376883198105,0.04827744765133503
17.953719999999997,4.130284063612687,0.04828713658881027
17.958304,4.056530438905564,0.04829727331014569
17.962903999999998,3.9853529328272383,0.0483122812420049
17.967492,3.9126209272819077,0.04830587555051578
17.972092,3.8389894872889294,0.048295274081615144
17.976675999999998,3.7644586128483035,0.048288887925026835
17.981271999999997,3.6908271728553257,0.04828710561342136
17.985864,3.616174113700554,0.04830041188516562
17.99046,3.536779512879251,0.04832888258841325
17.995047999999997,3.4537871742673576,0.04835840356257022
17.99964,3.3748813123026378,0.04833611736928059
18.004227999999998,3.2980186886615055,0.048286121647564115
18.00882,3.221933314753875,0.04824566406965947
18.013412,3.1413507686080058,0.048203521285651404
18.017996,3.0512851391290745,0.04822909567757327
18.022584,2.959420640754848,0.048256561156317414
18.027168,2.8660016429136173,0.04825247205262622
18.03176,2.7682076575482926,0.04821236979740127
18.036348,2.6695142377353203,0.04818371702009603
18.04094,2.5683668840076956,0.048114437946844404
18.045528,2.466320095832423,0.04804069998424712
18.050116,2.3586323315429727,0.0480300203284413
18.054712,2.2424831030822543,0.048120281060319126
18.0593,2.1260895051932445,0.048280800338746134
18.063888,2.006508865104708,0.0458866683486225
18.068484,1.8901152672156984,0.04347898366245802
18.07308,1.7729444195931863,0.04105686924312501
18.077676,1.658838429456055,0.03861915117187488
18.082268,1.5425670162811909,0.036195219871247096
18.086864,1.4271950375539744,0.03377026838617289
18.091452,1.3109236243791103,0.03137719069872777
18.096052,1.1944078417759547,0.02900097270315938
