Time,Force,Position
24.715115999999995,0.13823798932241832,0.0
24.719711999999998,0.1486646485517555,0.0
24.7243,0.15488264641977295,0.0
24.728891999999995,0.17209408563922776,0.0
24.733487999999998,0.18521904821150856,0.0
24.738076,0.19781113047857843,0.0
24.742672,0.20872652856449833,0.0
24.74726,0.2140009505362398,0.0
24.751847999999995,0.22029699166977476,0.0
24.756435999999997,0.2278590213933946,0.0
24.761028,0.23247837834577953,0.0
24.765623999999995,0.23787498503166662,0.0
24.770204,0.24723588365058216,0.0
24.774804,0.2567189669836434,0.0
24.779391999999994,0.25851783587893906,0.0
24.783992,0.2613383239360283,0.0
24.788583999999997,0.2572518472888542,0.0
24.793175999999995,0.2502226978704452,0.0
24.797768,0.2451146020614776,0.0
24.802364,0.2364087684619186,0.0
24.806943999999994,0.2228392084816833,0.0
24.811539999999997,0.2071683465315659,0.0
24.816135999999997,0.19174185400973986,0.0
24.820732,0.17030783123129842,0.0
24.825315999999997,0.15277397931803469,0.0
24.829899999999995,0.13793843074771453,0.0
24.834492,0.1289882277198642,0.0
24.839084,0.12670061996798582,0.0
24.843672,0.12339139305431389,0.0
24.848268,0.12278046948358554,0.0
24.85286,0.12829926088361832,0.0
24.85744,0.1356169211789468,0.0
24.862036,0.1369270512176598,0.0
24.866623999999995,0.13925880041816632,0.0
24.871219999999997,0.14236779935217506,0.0
24.875803999999995,0.14163469106730103,0.0
24.880396,0.14883016664848384,0.0
24.885003999999995,0.15704726139146016,0.0
24.889596,0.16538654084858215,0.0
24.8942,0.17769011223873257,0.0
24.898791999999997,0.19305854111426354,0.0
24.903384,0.21244932556911802,0.0
24.907988,0.23261735975747466,0.0
24.91258,0.2515194053557464,0.0
24.917176,0.27011901787943177,0.0
24.921764,0.28438778432765177,0.0
24.926364,0.29886701838727364,0.0
24.930955999999995,0.3200190873546063,0.0
24.935551999999998,0.35773777015377617,0.005292604284227721
24.940135999999995,0.40360574406214356,0.011099130492412283
24.944736,0.4586887696901302,0.017316006281022183
24.949332,0.5175460989032209,0.023983661122761964
24.953928,0.5882285002816181,0.03080423634496845
24.958512,0.6706137891111761,0.0375652177673621
24.963108,0.7687884420390692,0.04416073209950983
24.967712,0.8785437977039776,0.05083767453388978
24.972308,0.9950161297252247,0.057533457955791525
24.976912,1.1242129683594262,0.0641807989171377
24.981511999999995,1.2607377069206949,0.07087075011774989
24.986104,1.398704999866561,0.07773363628665307
24.990692,1.5461656157772272,0.08455176217697476
24.995272,1.6977229479668061,0.09139920883910413
24.999868,1.8546429850253832,0.09828152000639227
25.004459999999995,2.017292281095395,0.10522653571980699
25.009044,2.183994151995691,0.11220273087944549
25.013636,2.3544600868493526,0.11924633159153776
25.018215999999995,2.5220613921972967,0.12630197930097847
25.022808,2.6762831259129296,0.13339867324577068
25.027396,2.806165748461704,0.13532963914042534
25.031988,2.922658559746429,0.13663412522236484
25.036572,3.0210980613660903,0.1374784638904731
25.041163999999995,3.108723870350501,0.13779065097234558
25.045751999999997,3.1837812592529917,0.1378885115611616
25.050344,3.2412843169787413,0.13806831399904854
25.054944,3.280988674099458,0.13838261959334866
25.05954,3.305426307795312,0.13860214422290118
25.064131999999997,3.312309610314425,0.13887589088767385
25.068727999999997,3.3042147002855944,0.13913356071283067
25.073316,3.2822073383192416,0.13944642057243078
25.077915999999995,3.2538495541389874,0.13953743289983653
25.082503999999997,3.212889448059925,0.13969871753321067
25.087095999999995,3.1646014420537942,0.13977776585053958
25.091683999999997,3.1096406011399527,0.1397902922345146
25.096272,3.052259728128349,0.1396324246534881
25.100855999999997,2.9919700841624,0.13938071465290433
25.105452,2.9329022873379076,0.13896163115740578
25.11004,2.8738344905134143,0.1385521889243343
25.114624,2.8208625068427944,0.1380940848677136
25.119212,2.7813481380700016,0.13745669196811963
25.123808,2.7467518767582524,0.13701907259724724
25.128395999999995,2.720182721841555,0.1367538403201132
25.132988,2.701229977728844,0.1366153593164393
25.137576,2.6923034368861445,0.13646579528037087
25.142168,2.6953241529228973,0.13624393026172826
25.146764,2.705428399458426,0.13612854342350622
25.151348,2.7267467945885318,0.13604206075104217
25.155936,2.763487999674536,0.13579777688378275
25.160523999999995,2.8069461811168797,0.13570831352706034
25.165116,2.8616965544193183,0.1355200207396865
25.169712,2.924796446810618,0.13537259927237713
25.174299999999995,2.9966124124332154,0.13519896788591454
25.178895999999995,3.072769463763018,0.13511745950660192
25.183484,3.155433023837756,0.13504012210286345
25.188072,3.243948027638076,0.13499503032761231
25.192668,3.336759975696971,0.13497769134406928
25.197267999999998,3.4323143685474378,0.1350156792183012
25.201868,3.5281572722748247,0.13508502754070256
25.20646,3.6263319252027175,0.13514056706160807
25.211051999999995,3.7245065781306104,0.13521682975685878
25.215632,3.824069404362734,0.1351963736604587
25.220232,3.9293512499745535,0.13493945978036992
25.224812,4.037531626908979,0.1345440579474741
25.229408,4.139005267118806,0.134262289072213
25.233996,4.234016540032323,0.1340614360632631
25.238584,4.325874672563204,0.13379540987731461
25.243176,4.414291153834528,0.1334537251858564
25.247772,4.492481203856178,0.13321558186613433
25.25236,4.570661014246088,0.13277275986607587
25.256952,4.643722489195294,0.13228054980237786
25.261543999999997,4.709333879503286,0.13175340600145025
25.266136,4.770071303798863,0.13115666408736978
25.270728,4.828755250139114,0.13042792081028418
25.275324,4.879622557695716,0.12969615544731444
25.279912,4.918176054230428,0.12903803644170042
25.284507999999995,4.946092423924401,0.12842327378105617
25.2891,4.962350047615841,0.1278757170171249
25.293696,4.975410389476016,0.12722130128466358
25.298283999999995,4.9775892350671604,0.1266250311688441
25.302864,4.969908203551069,0.1260621335934627
25.307455999999995,4.955965032718329,0.125469560930218
25.312051999999998,4.927831138702889,0.1250336422584797
25.31664,4.8853843367906,0.1247647737532545
25.321236,4.839906579209821,0.12443803911459113
25.325824,4.792175115694052,0.1240464860960414
25.330416,4.742845011262651,0.12359338865444187
25.335007999999995,4.68680817010665,0.12321076653480158
25.3396,4.628806133892579,0.12280301543912261
25.344196,4.56234263350724,0.1225610136028356
25.348788,4.490726895864304,0.12238190134094079
25.353384,4.420665657688374,0.12217672476230106
25.357972,4.347661746741209,0.1220265482032784
25.362568,4.269671924699222,0.12198591427994482
25.367152,4.189272310191211,0.12204111983789681
25.371756,4.110471336598833,0.12217146453694498
25.376347999999997,4.035556611673965,0.12228354454684517
25.380944,3.967881503778909,0.12233362335189368
25.385527999999997,3.9028266559612783,0.12240349054928536
25.39012,3.8496307821258435,0.12231067302677047
25.394727999999997,3.8043295903395764,0.12216295047330786
25.399324,3.764635472850598,0.12204357535487835
25.40392,3.736433775201379,0.12181069671046173
25.40852,3.7215233662872143,0.12143351184604038
25.413112,3.7155292585840103,0.12098131879953035
25.417711999999995,3.714487160158739,0.12055588053738653
25.422292,3.7221169935161385,0.12009200607395615
25.42688,3.738174389227915,0.11960829351703717
25.431459999999998,3.7609826631129204,0.11912357570692239
25.436052,3.7907861845994453,0.11860485598334719
25.440644,3.831593387069146,0.1180371787857051
25.445232,3.875798099349775,0.1175194903520399
25.449831999999997,3.9250770056224824,0.1170215570777151
25.45442,3.979674475315559,0.11651279278063999
25.459011999999998,4.048051972600273,0.11584059431463054
25.463604,4.128366487132701,0.11497605284675258
25.468191999999995,4.213466684780288,0.11409832584180368
25.472804,4.2982003282854375,0.11326810850501644
25.477391999999995,4.384121917115154,0.11247914846396108
25.481995999999995,4.466079214011843,0.11181466761700272
25.486588,4.548569391213741,0.11119125033952121
25.491176,4.630404503396284,0.11056810659200113
25.495771999999995,4.712361800292973,0.10996733072799542
25.500359999999997,4.790843544113216,0.10942696304408103
25.504952,4.864583746266927,0.10898676975252791
25.509544,4.940733740886664,0.10848981591395104
25.51414,5.009277564334153,0.10807405127725848
25.518719999999995,5.074956758275923,0.10765000979411382
25.52332,5.140591810769066,0.10718083041947052
25.527911999999997,5.204383852918284,0.10667708927602389
25.532512,5.261957897199486,0.10619267110512647
25.537096,5.313069574184379,0.10573594641850789
25.541692,5.362338240825346,0.10524888853381856
25.54628,5.410541146855894,0.10473024857279954
25.550875999999995,5.445086210008949,0.10432647727893606
25.555471999999995,5.466017571733141,0.10408551367477804
25.560072,5.4833070542181135,0.10383218915217772
25.564663999999997,5.500918949396896,0.10350068827126015
25.569264,5.5150111500506025,0.10314389103146149
25.573843999999998,5.528937024541536,0.10274523889427574
25.578432,5.539343204507396,0.10232345145054868
25.58302,5.5474176352727484,0.10190297513398289
25.587612,5.548785329313501,0.10152039804771576
25.592208,5.548187828296185,0.1011120178840093
25.596799999999995,5.544603513059005,0.10069311739367333
25.601395999999998,5.535989145278376,0.10030193039734416
25.605988,5.526597527764243,0.09990868626108354
25.61058,5.515895780211398,0.09949675913384495
25.615164,5.501718479582107,0.09910967084631066
25.619752,5.491505470885845,0.09866511065781994
25.62436,5.481536831617873,0.09820293001558075
25.62894,5.474510865121137,0.09769744836157518
25.633548,5.466052583871543,0.0971817900798832
25.63814,5.456039803154944,0.09666430797533583
25.642731999999995,5.44950257551479,0.09611979148352186
25.647316,5.448850693417107,0.09549002057014515
25.651908,5.450119864928865,0.09483942504033885
25.656504,5.448979243974599,0.09424852386050478
25.661083999999995,5.450536926363277,0.09363525035678122
25.665684,5.449274120694865,0.09305274802470069
25.670272,5.446867511150514,0.09249283960168758
25.674871999999997,5.448547378253337,0.09187265092529925
25.67946,5.452803363984957,0.09123777046507243
25.684048,5.457714414735935,0.09061357386916716
25.688632,5.464424334382209,0.08997229892609243
25.693223999999997,5.470767699886045,0.0893563097004391
25.697812,5.478909934285176,0.08872575021244168
25.702408,5.4893839178848145,0.08810360380885233
25.706999999999997,5.499735716770307,0.08748985762372101
25.711592,5.50252548593218,0.08695659958352724
25.716179999999994,5.504293635932258,0.08643859576830605
25.720764,5.506961220379985,0.0859162602949136
25.725344,5.50914006597113,0.08542709176736654
25.72994,5.514916649352866,0.0849161654504488
25.734523999999997,5.52465752466763,0.08435925726153926
25.739112,5.534276215268249,0.08381457567825482
25.743711999999995,5.538908994774047,0.08333273231188129
25.748299999999997,5.543541774279843,0.08284993189930127
25.752888,5.549073988233288,0.08236541786321308
25.757479999999997,5.5562828863678835,0.0818773357339043
25.762068,5.5691327606166565,0.0813437306966053
25.766664,5.576874539056461,0.0808806291923491
25.771248,5.586293001677418,0.080417970722962
25.775848,5.595711464298374,0.07995672661090969
25.780444,5.6099936533000045,0.07945119313016086
25.785039999999995,5.626196895911077,0.07892941411006998
25.789644,5.6403569001985625,0.07843287343788692
25.794236,5.651940785857251,0.07794506222504087
25.79884,5.665079170982944,0.07746488774356138
25.803428,5.681937478613373,0.07695579652724995
25.808027999999997,5.703415143196187,0.07642103862119919
25.812616,5.724526253636565,0.07591416614146174
25.817215999999995,5.747558417686384,0.0753916504169706
25.821803999999997,5.7676479089649675,0.07490340141461097
25.826395999999995,5.78749303081526,0.07443903669850926
25.830988,5.806438718217905,0.07398173770479793
25.835584,5.8310253817347295,0.07348633659294176
25.840168,5.8593319677562885,0.07297147429574287
25.844764,5.887394184349558,0.07247854645870566
25.84936,5.918399073714062,0.07196486651218766
25.853959999999997,5.947116355326688,0.07149691404261452
25.858552,5.980697363319989,0.07099218346356438
25.863144,6.0135011215797896,0.07048888123741623
25.867732,6.046959944858946,0.06999987892885871
25.872319999999995,6.076087922062636,0.06957432077331184
25.876907999999997,6.104194280104533,0.06916214462944097
25.8815,6.137286549241252,0.06870867347226711
25.886092,6.172055502559121,0.06825871657521297
25.890688,6.207191010019427,0.06779127509511931
25.89528,6.246945874432118,0.06730996250973359
25.899871999999995,6.280038143568836,0.06687328527764026
25.904464,6.312475347686201,0.06642781577116154
25.909043999999994,6.347077974841296,0.065962231966124
25.913632,6.380781167548744,0.06550036030196736
25.918228,6.408965568856158,0.06506314388091869
25.922816,6.436250535715924,0.0646300658198167
25.927415999999997,6.460837199232747,0.06420865309705061
25.932008,6.481948309673125,0.06379338937984873
25.936608,6.497662813427616,0.06339166367020567
25.941204,6.508635775515577,0.06301675335666984
25.945795999999994,6.516255369241237,0.06263746116847753
25.950391999999997,6.5174567371192165,0.062280039989468926
25.95498,6.516981420816046,0.061920346587267076
25.959576,6.5141743553123685,0.06154582687381914
25.964164,6.513899266988861,0.06112809382881284
25.968763999999997,6.511947494484203,0.060706448941652606
25.973355999999995,6.5079524836559575,0.0603045613812755
25.977948,6.5035467772366475,0.059878320619185584
25.982539999999997,6.497997266941398,0.05946782291229643
25.987136,6.483086858027233,0.05909275535336066
25.991719999999997,6.4743061640838295,0.05866841126426746
25.996315999999997,6.463848785959277,0.058238999098140516
26.000912,6.450448735063488,0.057828218563913854
26.005512,6.437948118615347,0.05741539091535172
26.010099999999994,6.430311228547883,0.056975822342041335
26.014695999999997,6.423573772928067,0.056534526237203564
26.019284,6.416059067574747,0.056087257374801115
26.023872,6.408055623364846,0.05566516503423364
26.028459999999995,6.40773639359271,0.055208752484160364
26.033052,6.4085609676965145,0.05473680767267625
26.037643999999997,6.407342303476731,0.05427643428882685
26.042224,6.412541865104628,0.05380314372953702
26.046808,6.418518676466027,0.0533359774824808
26.051388,6.427971040903872,0.05287339969480167
26.055975999999998,6.433214743980397,0.05244781085279284
26.060571999999997,6.440135131238072,0.052026976323395493
26.06516,6.442069607400925,0.051634269865502604
26.069768,6.438651618326519,0.05128869805187897
26.074364,6.436255248413907,0.050936606671085544
26.078951999999997,6.439377669901328,0.05057289785798907
26.083547999999997,6.436126006989696,0.05026565118974689
26.08814,6.433285039669129,0.049983394334861576
26.09274,6.427501399577327,0.049714540519929525
26.09732,6.421062694466168,0.04943225097493929
26.101916,6.406451036060662,0.04920439528406308
26.106496,6.3887745201697745,0.04899624449754742
26.111096,6.3706092654223045,0.04881384114973763
26.11568,6.352810564817273,0.04861021143275301
26.120279999999998,6.326716726203746,0.04846823552899889
26.124875999999997,6.300011964019492,0.04835887097336213
26.129468,6.274983886016387,0.04825482646830225
26.134063999999995,6.2420272241472246,0.04819202733190313
26.138659999999994,6.205883520078537,0.048156061287198175
26.143248,6.164876089629173,0.04813992345558292
26.147848,6.120925986408573,0.04813784945343144
26.152435999999994,6.073133775969091,0.04814907645701569
26.157031999999997,6.028528607729134,0.04813096770800582
26.161624,5.991485469212799,0.048090804596648565
26.166208,5.946758116258698,0.04807802484891366
26.170796,5.897289221638066,0.04807843030292806
26.175388,5.845244208388636,0.04807226325211705
26.179984,5.788457653472677,0.048082282873398836
26.184576,5.731426729128425,0.04810728259155678
26.189167999999995,5.668143905099267,0.04818491064177369
26.19376,5.606127069660194,0.04824353183013125
26.198352,5.543332984487619,0.04829431096980872
26.202932,5.479883834295687,0.0483279703342916
26.207511999999998,5.411448773008932,0.04839196329069216
26.212107999999997,5.343624635292906,0.048417756917141855
26.2167,5.274490367538169,0.04840933122119699
26.221287999999998,5.2044566653357816,0.04840081892969399
26.225883999999997,5.136588386171127,0.04836847937569727
26.230476,5.0679428572729694,0.048328471699611554
26.235071999999995,4.996599025031871,0.04828783828139764
26.239647999999995,4.925377377504915,0.04823901865734447
26.244248,4.85505516442561,0.04818956580900632
26.248836,4.781668093860922,0.048162401838629236
26.253435999999997,4.69892012467732,0.04816032981962532
26.258019999999995,4.61809320910316,0.04815056513237718
26.262623999999995,4.537388478243145,0.04812958755900691
26.267208,4.457460997116631,0.04811942063782967
26.271804,4.382641611799086,0.04805895352602758
26.276391999999998,4.305368292566889,0.04797719777745878
26.280987999999997,4.231282015534218,0.04785656324600031
26.285583999999997,4.156418488768043,0.04772057247743528
26.290184,4.079511723678283,0.04760242367428345
26.294776,3.9927553211130236,0.04756429528999104
26.299367999999998,3.9117620793760888,0.04748932486136636
26.30396,3.827703980153773,0.04744453252891156
26.308544,3.737760535388988,0.047440616273479154
26.313135999999997,3.6461404064430525,0.04742089847004902
26.317732,3.5515776047258822,0.04742571943978115
26.322328,3.4543164996657687,0.04743024441033197
26.326911999999997,3.3542349065485664,0.04745262628322813
26.3315,3.255174932593157,0.04745670798644018
26.336079999999995,3.1535388400089497,0.0474406041117811
26.34066,3.046261771310564,0.047464994657845316
26.345256,2.939106887326324,0.047479850278558146
26.349844,2.8301531344467885,0.04749545716078173
