Time,Force,Position
16.566888,0.0,0.0
16.571476,0.0,0.0
16.576072,0.0,0.0
16.580659999999998,0.0,0.0
16.585256,0.0,0.0
16.589848,0.0,0.0
16.59444,0.0,0.0
16.599035999999998,0.0,0.0
16.603616,0.0,0.0
16.608211999999998,0.0,0.0
16.6128,0.0,0.0
16.617388,0.0,0.0
16.621984,0.0,0.0
16.626572,0.0,0.0
16.631159999999998,0.0,0.0
16.635748,0.0,0.0
16.640335999999998,0.0,0.0
16.644928,0.0,0.0
16.649524,0.0,0.0
16.654116,0.0,0.0
16.658708,0.0017594729165872323,0.0
16.6633,0.0033967611190287936,0.0
16.667887999999998,0.005156234035616026,0.0
16.672492,0.005156234035616026,0.0
16.677084,0.005156234035616026,0.0
16.68168,0.010391260028648994,0.0
16.686272,0.016525720469329812,0.0
16.69086,0.022537996195864957,0.0
16.695448,0.029449706370047953,0.0
16.700044,0.035339797382437435,0.0
16.704644,0.041474257823118255,0.0
16.709236,0.047730902977944745,0.0
16.713824,0.054109732846916905,0.0
16.718412,0.05934475883994987,0.0
16.723004,0.06470196954712851,0.0
16.727591999999998,0.07480072192083774,0.0
16.732184,0.08694271261813402,0.0
16.736776,0.10202737608666519,0.0
16.741372,0.1133921170504593,0.0
16.745964,0.12169200052887286,0.0
16.75056,0.12631135748125777,0.0
16.755148,0.12900966082420132,0.0
16.759743999999998,0.13428408279594278,0.0
16.76434,0.144016281027215,0.0
16.768928,0.1487625681636653,0.0
16.773524,0.14659714512593255,0.0
16.778112,0.1453311565358477,0.0
16.782704,0.14316573349811498,0.0
16.787295999999998,0.13997869129858873,0.0
16.791884,0.1370360185273538,0.0
16.796488,0.13372679161368192,0.0
16.801084,0.13221643359530572,0.0
16.805676,0.12968445641513598,0.0
16.81026,0.12931790227269896,0.0
16.81486,0.13152746675905982,0.0
16.81944,0.1253977517882987,0.0
16.824044,0.11530374488450913,0.0
16.828623999999998,0.10021908141597795,0.0
16.833216,0.0896363356556057,0.0
16.837799999999998,0.08301788182826186,0.0
16.842392,0.07934210077215295,0.0
16.84698,0.0805300460967203,0.0
16.851572,0.07812025363069625,0.0
16.856156,0.07301215782172865,0.0
16.860751999999998,0.07403377698352216,0.0
16.86534,0.0768542650406114,0.0
16.869936,0.0786531339359071,0.0
16.87452,0.08135143727885066,0.0
16.879096,0.08241719788927233,0.0
16.883692,0.08896784808283742,0.0
16.888279999999998,0.10219133318411326,0.0
16.892868,0.1178789918317801,0.0
16.89746,0.14167180014001637,0.0
16.902036,0.17201525864181777,0.0
16.906648,0.20297988034608627,0.0
16.911232,0.24535887862459613,0.009270441882762395
16.915828,0.29747556929619734,0.0182061414849006
16.92042,0.3594568825449552,0.02689152939867242
16.925003999999998,0.429372273821589,0.03530516469270917
16.929607999999998,0.5027293163577792,0.043817112373221744
16.934204,0.5794058254393801,0.05241661948297299
16.938804,0.6568256824375938,0.06112821133995286
16.943384,0.7387088098571573,0.06994265283965026
16.947983999999998,0.8260768268598643,0.07869310458996527
16.952572,0.9213836673603668,0.08716271216350285
16.957176,1.019232724672778,0.0957790309720945
16.961759999999998,1.1174144343107366,0.10458903452765182
16.966352,1.2206703379407737,0.11331957837252422
16.970944,1.3332871401897262,0.12171124474541925
16.975535999999998,1.4438946059319808,0.129968280379583
16.980124,1.548029464746188,0.13808219581828624
16.98472,1.646058270774785,0.14613778715305734
16.98932,1.735160535960682,0.1541333349397144
16.993911999999998,1.8128042831237097,0.1622288748741793
16.9985,1.887617302597909,0.170225990407007
17.003087999999998,1.9521597493738065,0.16903879771312805
17.007672,2.005287819575462,0.1683769497333799
17.012272,2.0508436204217597,0.1679131384469631
17.01686,2.0871504677315484,0.16769139767884805
17.021456,2.1180946101723395,0.1674469325921011
17.026052,2.14907265443002,0.16690122656412149
17.030632,2.179718046362153,0.1661378556574075
17.035224,2.207210297911648,0.16532508044181016
17.039808,2.231427224364362,0.16454180900629267
17.044396,2.247993838196199,0.16402496084236073
17.049004,2.2656601144553465,0.16329264935219
17.053592,2.2885566712376084,0.16220911305845245
17.058204,2.3088771093910725,0.16126860813911853
17.062791999999998,2.3257661359167185,0.16065524036821366
17.0674,2.3432321841962036,0.1602005679935154
17.071988,2.366838187078188,0.1597718009957693
17.076576,2.397239209582029,0.15936176963915025
17.081172,2.4391767933742576,0.15879275648632218
17.085772,2.4927731231690187,0.15801473051207912
17.090376,2.554797015318158,0.157180534385721
17.094967999999998,2.6243490353740277,0.15624222992152154
17.099564,2.701673552764919,0.15511937030047254
17.104148,2.7859933177573306,0.15394583570643627
17.108748,2.8769417762088243,0.15275397716845407
17.113328,2.9720649942047483,0.15152887039049012
17.117932,3.066210734487508,0.1505324117055614
17.122524,3.1597455511995385,0.14966344076244936
17.127119999999998,3.2622747123880473,0.148576400961412
17.131704,3.3663583730435604,0.14750369540444044
17.136295999999998,3.471874348451933,0.14644397640220286
17.140895999999998,3.576613074126803,0.14543992927673705
17.145488,3.6783649855818097,0.14454618743884795
17.150088,3.7822381786259216,0.14350366259352698
17.15468,3.8829582312873954,0.14244506972805288
17.159268,3.983223446909176,0.14130237398513565
17.163864,4.078170099110588,0.14026084126112312
17.168447999999998,4.167265307586419,0.13926396572000502
17.173044,4.238327685660665,0.1386472206190294
17.177632,4.300307436361176,0.13812814436365378
17.182223999999998,4.35103913665022,0.13778126305265856
17.18682,4.395508697622619,0.1374291582008125
17.191396,4.435881542316102,0.13699506305986817
17.195988,4.467049574921707,0.1366456588089249
17.200575999999998,4.489501534296014,0.13631940866620448
17.205164,4.510266569857433,0.1358093716911822
17.209768,4.523992216368703,0.13528621187801568
17.214356,4.535297830782211,0.1346511178986502
17.21896,4.53061385311772,0.13425697936589648
17.223551999999998,4.519667736136585,0.1338421951502364
17.228144,4.501315675962863,0.1334477944456859
17.232736,4.477478726205999,0.13302398719875083
17.237324,4.449589201618849,0.13256805423556878
17.241916,4.413560625554242,0.13219650357026003
17.246496,4.376466288879212,0.13177962619595124
17.251096,4.3309885312984315,0.13147040017321293
17.255676,4.279947840868991,0.13120849822896533
17.260279999999998,4.22976244343857,0.13085070360331416
17.264864,4.1885272490359995,0.13025005198069972
17.269464,4.1472920546334295,0.1296426960332617
17.27406,4.1088773482879475,0.12896325981044066
17.278652,4.073283129999555,0.1282084608230309
17.28324,4.040797910645172,0.12742587045373685
17.287836,4.00770176772006,0.12669847037648718
17.29244,3.9773480695865193,0.12598261313805423
17.297031999999998,3.9437292859879354,0.1254422102620243
17.30162,3.915795619952158,0.12483938936144515
17.306216,3.888683345098511,0.12429679306960326
17.310804,3.871875544760055,0.12360033076998753
17.315392,3.857199265642443,0.12298336854089376
17.31998,3.8513171030216466,0.12229444943123594
17.324572,3.850264764964636,0.12163969922646865
17.329168,3.8484012753572356,0.12114242665601745
17.333759999999998,3.8525114141895607,0.12063689367847089
17.338356,3.859774693404522,0.12019269784093059
17.342944,3.880451446068684,0.11959304918654864
17.347535999999998,3.907756892191928,0.11898989934475371
17.352116,3.93707167482187,0.11849328306442938
17.356704,3.969661782548595,0.1180547287588262
17.361296,4.008347703429191,0.11760912732733916
17.365884,4.046711211615978,0.11727109626856481
17.370484,4.085163002700022,0.11707945319625408
17.375068,4.122270761928465,0.11702767964895049
17.37966,4.166740322900862,0.11691249797102672
17.384252,4.215873382274273,0.1167852079949295
17.388835999999998,4.274411481715229,0.1165520703232787
17.393432,4.334914776214253,0.11635918956916771
17.398024,4.398282700218995,0.1161862430438869
17.402624,4.462061319814801,0.11606195159847221
17.407204,4.530337111648847,0.11587098580539423
17.411804,4.597835653749391,0.11569818992612257
17.416396,4.6652120111357895,0.11553824401309996
17.420992,4.736552660455216,0.11528627103439888
17.425588,4.808914928936436,0.11501919098127052
17.430176,4.877679459627066,0.11480018492899927
17.434776,4.938349080288864,0.114707205188026
17.439372,5.000895613111475,0.11452626142950204
17.44396,5.063275819771313,0.11430013225272383
17.448552,5.125734069696669,0.11402249705591275
17.453128,5.184794809811096,0.11372551197499187
17.457712,5.2448330276386885,0.11334861293381848
17.462296,5.304538593140732,0.11288016944174839
17.46688,5.363789321603083,0.11233229354798124
17.471472,5.420664159416299,0.11175067994692836
17.476048,5.470421564913852,0.11119595765258745
17.48064,5.508564365857498,0.11072416590595857
17.485232,5.542410222542569,0.11023885459885763
17.489808,5.5702824507879125,0.1097474600075953
17.494408,5.590137812269943,0.10928697236452459
17.498995999999998,5.602997926150456,0.1088384251157745
17.503584,5.609395672734658,0.108417276893215
17.508192,5.610963594755077,0.10795694446701341
17.512776,5.610033441412211,0.10745674625144473
17.517368,5.605827962972565,0.10691799706990533
17.521948,5.601534201635662,0.10627106048225736
17.526543999999998,5.59666341854492,0.10555157995678713
17.531124,5.5831648451201366,0.10489868322268688
17.535724,5.5656578383136965,0.1042555994481985
17.540308,5.542099159802012,0.10365850530091825
17.5449,5.512122255442646,0.10313049594752567
17.54948,5.476093679378041,0.10264531877828786
17.554071999999998,5.4383884191322815,0.10216489272211898
17.558671999999998,5.397329790524224,0.10169690236734394
17.563264,5.34805406717319,0.10131374853148632
17.567852,5.300166517126386,0.10087809914244393
17.572436,5.258819377641408,0.10035443082790287
17.577023999999998,5.215673369261134,0.09984170267530357
17.58162,5.172405176166715,0.09933155965268814
17.586208,5.13236816672045,0.0988082382481633
17.590784,5.094540721760548,0.09828973630966399
17.595375999999998,5.058922841287005,0.09777740476172489
17.599956,5.02616959031918,0.09727972494069236
17.604548,4.993827034942419,0.09680589735137303
17.60914,4.9606291865666385,0.09639338011425472
17.613716,4.930051598268285,0.09601601067191011
17.618304,4.900173216437916,0.0957028904545018
17.622896,4.8798220593892365,0.09532288919779132
17.627484,4.864623139598152,0.09491020780120046
17.632084,4.8538433487797885,0.09452271978877887
17.636675999999998,4.850014664114318,0.09408613129309036
17.64128,4.860576930611213,0.09352555133538681
17.645868,4.874248196042116,0.09297482813501937
17.650472,4.891561340712239,0.09245054269868064
17.655048,4.922243817382934,0.0918247160658677
17.659644,4.955546554131057,0.09124613335285225
17.664227999999998,4.9879939978801575,0.09074074752539367
17.668827999999998,5.027925428087361,0.09022261276234256
17.67342,5.0758295836092495,0.08965939349660729
17.678003999999998,5.130151964978819,0.08905117401668083
17.6826,5.191792006643717,0.08839521511839105
17.687192,5.257274155527497,0.08770307650642772
17.691788,5.325210238325929,0.08701669263326607
17.696379999999998,5.394456451163075,0.08635832243909956
17.700964,5.4693436401144,0.08565637235903785
17.705552,5.543209209903932,0.08497943431602138
17.710136,5.619240202731192,0.084269330073856
17.714728,5.690774023320216,0.08360526200335697
17.71932,5.762307843909241,0.08295935174866892
17.723904,5.831998654154342,0.08228182909842087
17.728496,5.904754321884823,0.08158088744406713
17.733072,5.965695157081736,0.08097843766901669
17.737668,6.0214837550210545,0.08039546795609484
17.742259999999998,6.075962222921659,0.07979571064312983
17.746848,6.121201976917494,0.07927337530287093
17.75144,6.168196458359995,0.07870138789692052
17.756028,6.212204125582634,0.07811225735129255
17.760616,6.247584002471232,0.07755190417341568
17.765212,6.272825731007412,0.07706098685392121
17.769796,6.287929311191173,0.07663751769704437
17.774392,6.294282916326749,0.07624756602645616
17.77898,6.297160968385877,0.07586935771611808
17.78358,6.295253337329847,0.07547940016755371
17.788164,6.293423749539335,0.0750364088117533
17.792764,6.28439868616764,0.07462658209026171
17.797348,6.273041873595439,0.07420570560438144
17.801948,6.25935331182273,0.07377444240807285
17.806535999999998,6.247052923354254,0.07331033332040186
17.811132,6.225391636266861,0.07290243010517508
17.815711999999998,6.200665491694088,0.07252476133091432
17.820304,6.167966621806629,0.07216985553203561
17.824904,6.138088239976261,0.07179401487677414
17.829496,6.1110303462029805,0.07139747980440012
17.834084,6.083317387410343,0.07098726086875358
17.838676,6.05776985165544,0.07054634511519417
17.843263999999998,6.023394297586832,0.07017584319063132
17.84786,5.990573242985226,0.06981085958567104
17.852448,5.961349926174215,0.0694297582698427
17.857044,5.9389113893533185,0.06899425828573356
17.861624,5.925178686131982,0.06849245880742141
17.866204,5.914677166558801,0.0679988936889752
17.870791999999998,5.903809092843183,0.0675259520332758
17.87538,5.9000143099946,0.06703840664446922
17.87996,5.894831353841789,0.06658399845880197
17.884564,5.893001766051276,0.06613212002348269
17.889152,5.895424981070712,0.06568260111666639
17.893736,5.901201564452448,0.06523961950768915
17.898328,5.905345605101662,0.06484393779241664
17.902916,5.921548847712736,0.06439434130765023
17.907508,5.943026512295551,0.0639380555530929
17.912088,5.969289859993524,0.0635035070349642
17.916684,5.995963903282561,0.06309770477816652
17.921272,6.0259913149339,0.06270216628628951
17.925876,6.060271529395186,0.062315311626422065
17.930464,6.096228428037623,0.06193592322782311
17.935064,6.141546225298974,0.061514406717593305
17.939648,6.190706129779208,0.06107730149884822
17.944228,6.24166490315474,0.06064164442556016
17.948816,6.293034372121337,0.06023958324474947
17.953416,6.343015667783701,0.05987663756327145
17.958004,6.394673647627216,0.05952144582470487
17.9626,6.4513175385655535,0.05913662674071272
17.967188,6.504485876427444,0.058761137738879976
17.97178,6.561251952079927,0.0583860248836814
17.976368,6.61940620103664,0.05798893235025808
17.980952,6.675761581098059,0.05759973817748776
17.985544,6.7285192233688855,0.05722063271080378
17.990128,6.783442288677444,0.056822610875292716
17.99472,6.835134170337848,0.05642034095285184
17.999308,6.887436975568982,0.0559940871913962
18.003904,6.9384296507614005,0.05554827193529317
18.008496,6.989133815076901,0.055075535195785015
18.013084,7.038283479925397,0.054599574993682926
18.017688,7.082813787821508,0.054138705189366185
18.022276,7.128365714879413,0.05367744182440358
18.026876,7.172485327184458,0.05320754071643398
18.031468,7.2091650944800305,0.05275762278466552
18.036056,7.243024373718513,0.05231803385417011
18.04066,7.270709796537607,0.05187697951219044
18.04526,7.289156505451929,0.05145172962187723
18.049852,7.299508304337421,0.051029999544377806
18.054444,7.300254835175707,0.050642813563173884
18.059036,7.295648900776734,0.05029879588469739
18.063624,7.280660448597052,0.04998235011939588
18.068224,7.259786650874901,0.049691094287560335
18.072808,7.234537865628655,0.04939365554840476
18.077408,7.2071236573446775,0.049113108160829866
18.081992,7.172269604051224,0.04884479191615983
18.086584,7.130264216625218,0.04861875581777929
18.091176,7.075588703666622,0.0484416026987966
18.095768,7.01748177908021,0.048300833817547156
18.100368,6.955044008418334,0.04819558709366318
18.104968,6.881979350547455,0.048128070641197375
18.109544,6.805972019905343,0.04807203215057201
18.114128,6.717416748444787,0.04806209175571341
18.118712,6.619789089242237,0.04810218116759867
18.123308,6.524737548668485,0.04814589681418968
18.127892,6.427764954485291,0.048193797629069064
18.13248,6.330425806159659,0.0482614294906626
18.137072,6.2366843956246205,0.048329774349421116
18.14166,6.148461776489613,0.048388441206913164
18.14624,6.06485851430699,0.048439615865919085
18.150836,5.980600187105011,0.04847957686812026
18.155412,5.900183967121915,0.0485057934565213
18.160012,5.817724508815232,0.048547021000442635
18.164604,5.734776311651967,0.048615897947885664
18.169192,5.650029245593406,0.0486858478714154
18.173788,5.568879917325436,0.048754330140191905
18.178376,5.486953339323964,0.04881766039329112
18.182968,5.415409279103202,0.04885064353975212
18.187548,5.348440434386196,0.048818409714022556
18.192144,5.284414262440426,0.04877054939874147
18.196724,5.227950120218273,0.04869948120405356
18.201324,5.168543305224887,0.04864468426795483
18.205916,5.114122401326322,0.048557369038827285
18.210508,5.063177050504203,0.0484808964468072
18.215092,5.007367973301409,0.04843040387492953
18.219688,4.949637842489172,0.04838716201755534
18.224276,4.893051515552875,0.04832587719992858
18.228872,4.837608992492518,0.04824437375118284
18.233464,4.7765254933179815,0.04817800817507068
18.238056,4.709801018029267,0.048129086546765905
18.242644,4.646796465245288,0.04806903162878515
18.247228,4.581993043566015,0.048005509140539415
18.251816,4.5201322946579765,0.04792190081091789
18.256412,4.456472676854641,0.04783926136171232
18.261004,4.39191362460366,0.04775476545013533
18.265584,4.322368661257856,0.047712783706505515
18.270176,4.252579328483761,0.0476943874510066
18.274752,4.1770268348813415,0.04770685090417469
18.27934,4.090480899927484,0.047813512697914694
18.283944,3.9975167391259463,0.04793283713820426
18.288532,3.899933221372024,0.0480641499572084
18.293136,3.8064361802652757,0.048150860083355194
18.297724,3.71257258501609,0.04827978458234203
18.302328,3.6148227410993936,0.04835447388516606
18.306912,3.5191161355062848,0.048412425701999606
18.3115,3.422265726037236,0.04850800503656768
18.316092,3.321573209349305,0.04863745841620572
18.32068,3.215239716547195,0.04879529431371944
18.325276,3.1099278429068793,0.04893919799106524
18.329856,3.0084580764854456,0.04905566789276735
18.334456,2.903512756987566,0.0491437722996205
18.339044,2.7964020144519544,0.04929476366343089
18.343644,2.686226414430962,0.049514990377492525
18.348228,2.5782162374477027,0.049680777420978074
18.35282,2.4748254174168274,0.049822548173134265
18.357408,2.376542693194921,0.049878582663977974
18.362004,2.279403772848953,0.04991358692359183
18.366596,2.183408656378924,0.049908490924691316
18.371192,2.0920328968612805,0.04992745065616494
18.37578,2.0004127679153454,0.050027592371326986
18.380364,1.9077710198076163,0.0501882585928636
18.384952,1.8160287061475355,0.05030102010204052
18.389548,1.7229762624487415,0.050309925341172096
