Time,Force,Position
16.268179999999997,0.019265013564906203,0.0
16.272776,0.019265013564906203,0.0
16.277368,0.019265013564906203,0.0
16.281964,0.016663588787444117,0.0
16.286552,0.014184348724127703,0.0
16.291152,0.012604543108459142,0.0
16.295735999999998,0.010902552778644903,0.0
16.300331999999997,0.00842331271532849,0.0
16.30492,0.008834008306393656,0.0
16.309516,0.010021953630961006,0.0
16.314111999999998,0.009288845346086979,0.0
16.318711999999998,0.010257727391027186,0.0
16.323304,0.013269847759554438,0.0
16.327896,0.016526337556373033,0.0
16.332476,0.021581696248487332,0.0
16.337059999999997,0.024960370759451598,0.0
16.341644,0.02454967516838643,0.0
16.346239999999998,0.027326021776847505,0.0
16.350828,0.03562115978534136,0.0
16.355408,0.04296412622933404,0.0
16.36,0.0540270151780638,0.0
16.364587999999998,0.06688877302208926,0.0
16.369172,0.0798727155802604,0.0
16.373768,0.09297884285257721,0.0
16.378348,0.10338666678195045,0.0
16.382935999999997,0.11085181794008882,0.0
16.387532,0.1163959154887858,0.0
16.392128,0.12398325136106983,0.0
16.396724,0.1289250210072636,0.0
16.401315999999998,0.13308954091995523,0.0
16.40592,0.1392972991562339,0.0
16.410508,0.14423906880242768,0.0
16.4151,0.14623816567738657,0.0
16.419687999999997,0.15003613144764116,0.0
16.424291999999998,0.15113579387495218,0.0
16.42888,0.15289052132161973,0.0
16.43348,0.15517812907349818,0.0
16.438063999999997,0.1524798257305546,0.0
16.44266,0.1472054037588132,0.0
16.447248,0.1421753512153631,0.0
16.451843999999998,0.13111246226663334,0.0
16.456439999999997,0.11825070442260785,0.0
16.461036,0.10526676186443673,0.0
16.465624,0.09216063459211991,0.0
16.470212,0.08175281066274666,0.0
16.4748,0.0743129656532725,0.0
16.479395999999998,0.06957142398674192,0.0
16.483984,0.06470769760606564,0.0
16.48858,0.06254227456833292,0.0
16.493171999999998,0.06193135099760455,0.0
16.497752,0.05952155853158049,0.0
16.502352,0.059810069408499984,0.0
16.50694,0.05973202614298247,0.0
16.511532,0.058265809573234406,0.0
16.516128,0.057454658022842865,0.0
16.520716,0.06040757042581655,0.0
16.525312,0.06369313515433787,0.0
16.529904,0.07467315395236349,0.0
16.534492,0.08811734629678009,0.0
16.539088,0.11314224137821186,0.0
16.543684,0.15062843834434275,0.0
16.54828,0.19556471995168656,0.009031894674946856
16.55286,0.24770671677195197,0.01803023275869796
16.557456,0.31065216659573036,0.026627423235555205
16.562036,0.3814583966517868,0.035245916105730704
16.566636,0.4629205888485464,0.0436399093155338
16.571223999999997,0.5515884962582276,0.05203703429300211
16.575823999999997,0.6433756422336564,0.06066790464591379
16.580416,0.743923002889011,0.0692030987290194
16.585012,0.8515538940431417,0.07770709332700576
16.589592,0.971053998811207,0.08612072984583423
16.594184,1.0973932646497568,0.09455848883602852
16.598784,1.237356471548909,0.10282788256936108
16.603384,1.3833815897850434,0.11119611642274693
16.607975999999997,1.5432750185100717,0.11933817817472295
16.612575999999997,1.7109409445701214,0.12733908977967234
16.617164,1.8879677692490866,0.13517849794816353
16.621751999999997,2.0618414535454153,0.14303115467999403
16.62634,2.2391804512864506,0.15073517026642702
16.63094,2.405349441881536,0.15848168243394442
16.635527999999997,2.562802359245324,0.1662211132690663
16.64012,2.714115322006612,0.16493565667677187
16.644707999999998,2.8631304373842825,0.16359490814646563
16.649288,3.0027744145112987,0.16264912198667483
16.653879999999997,3.134313241977745,0.161709063473638
16.658468,3.2569696700501205,0.16094698391142812
16.663055999999997,3.3733198173572227,0.16014931266616947
16.667652,3.4892490294415195,0.15899379670476105
16.672244,3.5965402115600367,0.15789953473322407
16.676831999999997,3.698013851769862,0.15674774971189556
16.681424,3.788762082241693,0.15564863412240967
16.686016,3.871605391032618,0.1544628667231552
16.690607999999997,3.940658432600166,0.15344860606878497
16.695192,4.004382671115606,0.15226532319158456
16.699787999999998,4.050885230779852,0.15138953114798773
16.704376,4.085440533564646,0.1506581823824947
16.708976,4.1101359592422035,0.15005798184657487
16.713556,4.13486528673665,0.14931516548302903
16.718156,4.151211193325346,0.14874337432893217
16.722744,4.168168023484771,0.14810370204950282
16.727339999999998,4.1841812777479195,0.1474205184483009
16.73192,4.197452087219497,0.14673219735862256
16.736511999999998,4.203605464375408,0.14614199952703796
16.741111999999998,4.206239147006246,0.14555447807554114
16.745704,4.207684884312517,0.1449419025743297
16.750291999999998,4.206676687704136,0.1443702908234861
16.75488,4.205379980218834,0.14375856856664918
16.759468,4.196765612438204,0.14333229393626024
16.764056,4.188151244657575,0.14290670437393446
16.768648,4.1738959007627665,0.14263207179620868
16.773239999999998,4.161072871620817,0.14235345344626615
16.777832,4.149437787803435,0.14209642589787805
16.782424,4.136292345967677,0.14192445307774687
16.787015999999998,4.123557599722984,0.1417810731119325
16.791604,4.116097275450032,0.14152851503251568
16.796184,4.111623765396944,0.14125814917249918
16.80078,4.107194396792483,0.14105690389117706
16.80536,4.102442615494214,0.14096318768004484
16.809963999999997,4.101332713435164,0.14085819543397304
16.81456,4.104597798900207,0.14066876549496088
16.819148,4.114325251661559,0.14040657429726552
16.823743999999998,4.130392887005075,0.14008400683070024
16.828332,4.15063528189302,0.1397698992956978
16.832936,4.176729120506547,0.13944273470859797
16.837515999999997,4.209940391435739,0.1390536982243807
16.842115999999997,4.245894107156503,0.1386766404171915
16.846708,4.2807481604499555,0.13841070572028955
16.8513,4.3225533198963,0.13802514639561023
16.855888,4.365668609381356,0.13765842422642033
16.860491999999997,4.413691766695718,0.13722536585910938
16.865076,4.459671685686492,0.1368550499197084
16.869671999999998,4.50552941996312,0.13650539765562686
16.874264,4.559726433696872,0.1359776851935085
16.878852,4.613679078002331,0.13548269357506865
16.883456,4.667753907021936,0.13498668293421515
16.888056,4.723094724631626,0.1344526951122998
16.892647999999998,4.779579346117255,0.1338758668184948
16.89724,4.829890111183495,0.13339756047062884
16.901828,4.882077788410548,0.13282562625944716
16.906416,4.927969424504066,0.13238164886810638
16.911004,4.963434401368246,0.1321081385569397
16.915599999999998,4.9929257497927,0.13186112462707478
16.920195999999997,5.018731077529307,0.13155806573663864
16.924784,5.036108842911536,0.13129704578878218
16.929371999999997,5.044281796205884,0.131086153362775
16.933951999999998,5.04864654409824,0.13082881062304208
16.938544,5.052923009093338,0.13045229794534818
16.943127999999998,5.048405357591622,0.13014773926330775
16.947716,5.040734565707267,0.1298014656433657
16.95232,5.02925556842092,0.12940607510070137
16.956908,5.016422299647233,0.12893567410513904
16.961492,4.99700447886309,0.1285301169125568
16.966088,4.9725124640868685,0.12811825524481782
16.970675999999997,4.943845689766217,0.1276848442312373
16.975272,4.909982536739342,0.12725261473641272
16.979848,4.865814909197275,0.1269517888604598
16.984448,4.821192444615514,0.12655314957724492
16.989024,4.783432803289388,0.12593262311022535
16.993627999999998,4.739499305543875,0.12539481721388743
16.998212,4.694011308331357,0.12486264667030074
17.002803999999998,4.65183253803251,0.12422742661211605
17.007384,4.60916502887708,0.12363002396363838
17.011975999999997,4.5683405300655755,0.12305907646432811
17.016576,4.531646649349871,0.12244178678905454
17.02116,4.499738451749327,0.1217842890006993
17.02574,4.470817068368644,0.12111743314705646
17.030324,4.440673837846508,0.12055707410341591
17.034912,4.419813462677768,0.11989030020366528
17.039496,4.39887504424351,0.11929376870414629
17.044088,4.379290897296593,0.11877345793543131
17.048664,4.362859890732314,0.11830256100148497
17.053264,4.357754977845019,0.11768297703062199
17.057844,4.353759967016775,0.11716691277063356
17.062435999999998,4.35393971573296,0.11667761482442338
17.067031999999998,4.360748157908229,0.11619810985928339
17.07162,4.381214442960988,0.11556513278025721
17.076224,4.405366748701596,0.11501671752669541
17.080811999999998,4.430751141215398,0.11457662965760551
17.0854,4.464396769920806,0.11407999832792023
17.089992,4.51128954591264,0.11343562705783242
17.094583999999998,4.562601450877195,0.11281651463018919
17.099176,4.620087212261141,0.11213476815385238
17.103755999999997,4.679005288397944,0.1114642034626538
17.108352,4.746184600726352,0.11075922011292347
17.112944,4.814429673665181,0.11010370283113893
17.117544,4.8837405072144335,0.10949707016674186
17.122128,4.95767069771607,0.10883009568872953
17.126728,5.029435465179974,0.10823892402016183
17.131324,5.10365416655853,0.10763407581608458
17.135915999999998,5.1847798326413495,0.10692481112045915
17.140504,5.267049302600108,0.10619657839783682
17.145096,5.345721034768275,0.10554145913040905
17.149683999999997,5.422960452183584,0.10487898860902083
17.15428,5.50081079316962,0.10418148181268996
17.158868,5.576695939097587,0.1034710233227399
17.163459999999997,5.651515324415133,0.10276078197672261
17.168048,5.721671211331665,0.1020595267414524
17.172644,5.784098742361804,0.10141557919326115
17.177232,5.840963340543282,0.10079626525098727
17.181828,5.883681356990686,0.10031292150709768
17.18642,5.91993700614178,0.09985018417234603
17.191,5.951162602749425,0.09941975114732884
17.195584,5.982588427336732,0.09892783218118201
17.200163999999997,6.003543451246075,0.09846356581566752
17.204752,6.021100965344488,0.09796598183765898
17.209343999999998,6.036160404079623,0.09742814300678833
17.213932,6.048477398023184,0.0968695702966305
17.218536,6.054332024670439,0.09632093865710019
17.223132,6.056666956792618,0.09574402772996793
17.227728,6.045632556914226,0.09526900509362952
17.232324,6.030056843348965,0.09477999470801585
17.236924,6.007896577773251,0.09430557162156387
17.241515999999997,5.985936540177201,0.0937628174213706
17.246108,5.960500949504703,0.09323835383559165
17.2507,5.932611424917552,0.0927157964705417
17.25528,5.891885448635043,0.09230063560119185
17.25988,5.850870961475613,0.09184667647452996
17.264464,5.812921331801564,0.09134428230779015
17.269064,5.776648386308666,0.09083289984924112
17.273647999999998,5.74025325610162,0.09032394279984389
17.27824,5.704757560342223,0.08980297256582871
17.282847999999998,5.666319191811591,0.08931463352960899
17.28744,5.623549977205493,0.08889914147604032
17.29204,5.5838897615334036,0.08848450239768006
17.296632,5.545661860614174,0.0880769844101977
17.301223999999998,5.508988459161948,0.0876685111696665
17.305816,5.470682514977201,0.08731260103766807
17.310404,5.438183873069406,0.0869425760922135
17.314995999999997,5.412758522028648,0.0865279731964252
17.319575999999998,5.399803068540814,0.08603405794178567
17.324168,5.390611679006345,0.08555855995992116
17.328756,5.385062168711095,0.08510778382709695
17.333344,5.378168626560243,0.08474739279235431
17.337936,5.374384083343401,0.08439658832206434
17.342516,5.3746079735082155,0.08405057561870632
17.347096,5.388201195673601,0.08362462802322822
17.351692,5.408256785135296,0.08320860230159215
17.356275999999998,5.433586796568732,0.08277392888166014
17.360864,5.458305884431439,0.08238308897464339
17.36546,5.491119882322978,0.08194467438232199
17.370055999999998,5.529863367205614,0.08149924086171717
17.374651999999998,5.576579577402935,0.08101746441506545
17.37924,5.627915144552641,0.08050231109738325
17.383844,5.680683026455206,0.08000597427103921
17.388436,5.737825895881865,0.07950261601937293
17.393031999999998,5.794724395880232,0.07902303117178011
17.397612,5.855465003097484,0.07851396408471945
17.402212,5.914651110847728,0.07800506749413125
17.406803999999998,5.971671795560242,0.07754469630198524
17.411403999999997,6.023295873586868,0.0771224895707059
17.415996,6.074142701879992,0.07670224962002324
17.420592,6.1275215073532845,0.07623307043457207
17.425179999999997,6.187030027797339,0.07569933423159693
17.429772,6.243429549307384,0.07515571656579388
17.434359999999998,6.298274571350426,0.07461328132984295
17.438955999999997,6.348622421155228,0.07410155093279695
17.443548,6.39201916480714,0.073612827295275
17.44814,6.431040920934956,0.07314419062813667
17.452728,6.472716838957088,0.07262482303005557
17.457316,6.512838257512216,0.07210740790197898
17.461904,6.543965331590867,0.07162523465016858
17.4665,6.570839602859567,0.07115158198487295
17.471092,6.598979862718354,0.07066067972047833
17.47568,6.625932177252572,0.07014537292157852
17.480272,6.645811200919755,0.06965117225605046
17.484852,6.6619703020822,0.06917520817733752
17.489444,6.672366242416321,0.06873826761882687
17.494028,6.683783801912235,0.06829362985958505
17.498616,6.689804754722262,0.06786688885820653
17.503204,6.6948040883704945,0.06744980067493572
17.5078,6.6991483569993715,0.06702334967108323
17.512387999999998,6.70067213757116,0.06661321212027975
17.516983999999997,6.693978823399972,0.0662339262562384
17.521563999999998,6.688962193409934,0.06585535663884604
17.526156,6.681369444791098,0.06547706881324179
17.530735999999997,6.666459035876933,0.06512204759477669
17.535335999999997,6.649627573353327,0.06477559195832756
17.539924,6.629853438058487,0.06444792702825806
17.544524,6.602272903611735,0.06417099211940881
17.549111999999997,6.573015684983832,0.06389022534973479
17.553704,6.551687050221987,0.06354919140465046
17.558296,6.5306027848884325,0.06319347821608677
17.562887999999997,6.505798597050141,0.06285186551396106
17.567472,6.482671093393001,0.06251221811477348
17.572067999999998,6.459421405021714,0.062175976641371325
17.576643999999998,6.441157627745248,0.06180251371352364
17.581228,6.426203077382456,0.06138827735268829
17.585811999999997,6.4102269078578695,0.060982419183853664
17.590396,6.395150172780932,0.060571899893579986
17.594984,6.380317807132286,0.06014644831784247
17.599572,6.3663848759312875,0.0597193941780496
17.604156,6.356949116968526,0.05928606263449142
17.608739999999997,6.3521327149581515,0.05883704477003835
17.613324,6.34833793210957,0.058380899035882436
17.617928,6.347119267889786,0.05792709565074165
17.622515999999997,6.3601252286695935,0.05741617194651823
17.627112,6.382492088068317,0.05687648226326917
17.631708,6.4067800010764815,0.0563263141472988
17.636291999999997,6.43773050936062,0.05574747684754767
17.6409,6.467292844340526,0.05519780851953168
17.64548,6.49354595240676,0.05468990185568243
17.650084,6.5195546910447035,0.054197870984029756
17.65466,6.546218494702003,0.053719355807421286
17.659256,6.56904019114042,0.05325927807830493
17.663836,6.596481244531222,0.05278965468224742
17.668432,6.621634690170145,0.052350822166526506
17.673016,6.6455221472189825,0.05193367347695052
17.677608,6.668265800391883,0.0515307008265333
17.682199999999998,6.693829941621872,0.05112043742737223
17.686792,6.7187831592811325,0.05074227290193693
17.691392,6.740793704169159,0.05037988180198519
17.695984,6.755242219333564,0.05004182198847696
17.700575999999998,6.767525311460237,0.049724832675888744
17.705168,6.778542414996825,0.04942871095542895
17.709756,6.786494661048033,0.049152819403111406
17.71434,6.7818989662807985,0.04892665034141514
17.718923999999998,6.766920753732855,0.04872813699177344
17.723504,6.751575987042473,0.04854779327846813
17.728095999999997,6.730345874809623,0.04839265006221176
17.732675999999998,6.706173089805537,0.04824962807911863
17.737268,6.679957066477866,0.048118837163447545
17.74186,6.6524750545601075,0.0480064948265777
17.746444,6.620129316261676,0.04791288828150143
17.751044,6.585618154925509,0.04783788921848702
17.75562,6.546365451922812,0.047774647516489896
17.760208,6.503515011129524,0.04771033851202443
17.764812,6.458743516726797,0.04765094007506482
17.769388,6.410496469247622,0.04758284073080203
17.773992,6.3545652073306815,0.047539435483887615
17.778572,6.295280577051441,0.0474818201617571
17.783168,6.2329310892868195,0.047443234301790475
17.787755999999998,6.16661730958917,0.047425274469165
17.79236,6.09466255377734,0.04742085344109899
17.796948,6.015267952956038,0.047430258000280945
17.801544,5.931376179896497,0.04743945541321289
17.806127999999998,5.847606591551101,0.04744018862302642
17.81072,5.76371481849156,0.047447263783760664
17.81532,5.6753258731937795,0.04745390481673761
17.819912,5.584238624553054,0.04746024618741081
17.824512,5.4906974419976775,0.0474502795575081
17.829103999999997,5.391759652756414,0.04743932395630538
17.833683999999998,5.285626387933967,0.0474270782828201
17.838268,5.177694254216226,0.047417668614315
17.842855999999998,5.070006489926775,0.04739055826337786
17.847448,4.959498237580235,0.047369385856632154
17.85204,4.845147878014812,0.04736518232641641
17.856631999999998,4.726055976782859,0.04737882316629401
17.861216,4.607619140570262,0.04740685833105762
17.865796,4.489182304357664,0.04744038801832352
17.870392,4.369723848983274,0.04748173736619435
17.874979999999997,4.249610328589527,0.047502760513961725
17.879568,4.1353821537382505,0.047482279747733405
17.884172,4.01845567554403,0.04746582045298717
17.888755999999997,3.9053713045686913,0.04742621603909024
17.893348,3.7970284752598844,0.04735673048071514
17.89794,3.684599169303903,0.04733801769798809
17.902528,3.5701266250243346,0.04735075420962065
17.90712,3.4555318960306196,0.04738089289704312
