Time,Force,Position
16.737443999999996,0.0,0.0
16.742036,0.0,0.0
16.746631999999998,0.0,0.0
16.751219999999996,0.0,0.0
16.755812,0.0,0.0
16.760403999999994,0.0,0.0
16.764992,0.001055781419552029,0.0
16.769583999999995,0.0010557814195520287,0.0
16.774172,0.0010557814195520287,0.0
16.77876,0.0012121283914562075,0.0
16.783347999999997,0.005088397868097462,0.0
16.787928,0.01088572095418009,0.0
16.792524,0.019503532097351943,0.0
16.79712,0.029020777688171646,0.0
16.801699999999997,0.040336892174287056,0.0
16.806295999999996,0.05255244110805032,0.0
16.810883999999994,0.06950953170834417,0.0
16.815479999999994,0.08442338398505098,0.0
16.820076,0.10011448599525997,0.0
16.824664,0.117482272186619,0.0
16.829279999999997,0.13202957032088883,0.0
16.833872,0.14567743400751076,0.0
16.838479999999997,0.15908092826584136,0.0
16.843067999999995,0.17428329141946766,0.0
16.847676,0.1864207970877134,0.0
16.852263999999998,0.19778105302245694,0.0
16.856851999999996,0.2052650394805592,0.0
16.861452,0.21470424180586145,0.0
16.866043999999995,0.2222223905217222,0.0
16.870639999999995,0.228684757818031,0.0
16.87522,0.2305277681619549,0.0
16.879819999999995,0.22918373630635247,0.0
16.884408,0.22411978194601304,0.0
16.889004,0.21815639313802576,0.0
16.893595999999995,0.2092503315588036,0.0
16.898196,0.19920046610364217,0.0
16.902791999999998,0.18302088567771962,0.0
16.907384,0.17019467361409715,0.0
16.91198,0.1574126029991028,0.0
16.916576,0.14418593497615395,0.0
16.921175999999996,0.14392814299445084,0.0
16.925767999999998,0.1503873273690866,0.0
16.930355999999996,0.16638397615715048,0.0
16.934951999999996,0.19179590464449686,0.009961748654950753
16.939539999999994,0.22903290529714967,0.019599032263639862
16.944128,0.275685185649085,0.0290604818704236
16.948719999999994,0.3355948529191856,0.038209495765047945
16.953315999999994,0.40258805068806214,0.04728331768676891
16.957907999999996,0.4842268086793344,0.055897484389847714
16.962488,0.5784678885694153,0.06424702504062375
16.967071999999995,0.6814691831394223,0.07262834498468251
16.971663999999997,0.7937194312459378,0.08101293278970154
16.976256,0.9157515131941728,0.089357481755821
16.980843999999998,1.0478097984124184,0.09758656142153041
16.985431999999996,1.1915268296331971,0.1056396131930539
16.99004,1.346247541837152,0.11350501921603125
16.994631999999996,1.5122163044525743,0.12123546871615899
16.999219999999994,1.685957564403018,0.12885716502678787
17.003816,1.868570984115795,0.1363075099617484
17.008404,2.0575584882276243,0.14360226297471002
17.013008,2.2340658551547907,0.15092393850068797
17.017599999999995,2.4056109731722857,0.15814720205352875
17.022191999999997,2.567408159164951,0.1652615304546739
17.026784,2.7136942523044616,0.1624217336607814
17.031391999999997,2.8502765548677704,0.15985158184834483
17.035971999999994,2.9772772515690225,0.15740188480336428
17.040571999999997,3.093141842941214,0.15517992438555797
17.045156,3.200324262898997,0.1529478117863009
17.049755999999995,3.290895927576315,0.1512131924541426
17.054351999999994,3.3658784561349617,0.14978270972186825
17.058951999999998,3.4329560630127016,0.14823824513386674
17.063544,3.49200656349539,0.14660826883134495
17.06814,3.5394322197924346,0.14500269256783002
17.072727999999998,3.5767875313708406,0.14342899178463697
17.077323999999997,3.6021955860697945,0.14203025545383458
17.081927999999998,3.6104261033661826,0.1409972459306637
17.086512,3.6013568985458595,0.1403349234110149
17.091103999999994,3.582305631904154,0.13980814061017158
17.095692,3.552661379870337,0.13947980483677627
17.100271999999997,3.5172098255595685,0.13925317880429355
17.104867999999996,3.4878099429540423,0.1388790484277786
17.10946,3.4603752554065865,0.13851246322705343
17.114051999999994,3.434827719651682,0.13825417383787159
17.118648,3.4170526812318007,0.13790904422993647
17.123227999999997,3.4006319142992596,0.13765751009140248
17.127815999999996,3.387730841891793,0.1374074100705469
17.132403999999994,3.3729969987721407,0.13738119786641034
17.136992,3.3608053724643976,0.13747739442060677
17.141603999999994,3.358551666529408,0.1374045693616633
17.146183999999998,3.3604727201388496,0.1373439487892763
17.150791999999996,3.3655469141309284,0.13733516422880737
17.155383999999998,3.374795867667437,0.1373436744476184
17.159988,3.38977408021538,0.13735415266667725
17.164575999999997,3.405984379536519,0.1374762230405277
17.169163999999995,3.4257143733827315,0.13760628607750136
17.173759999999994,3.454849407296488,0.13754471112059946
17.178356,3.4983753923726097,0.13711717521443786
17.182955999999997,3.5434558769157363,0.1366698249781517
17.18754,3.591523175678726,0.136203206866756
17.192144,3.6402455394610715,0.1357601467276511
17.196731999999997,3.686435926063248,0.1354638955611517
17.201327999999997,3.7311159546470485,0.1352719185698468
17.205915999999995,3.775140918211492,0.13507475028697694
17.210504,3.818266447328288,0.13491495741166998
17.215092,3.8645790186446094,0.13464608437707057
17.219679999999997,3.908071101903842,0.13445527214906064
17.22428,3.957815084847982,0.1340449714345772
17.228863999999994,4.006615491895845,0.1335808957020764
17.233455999999997,4.047320988914878,0.133305348874604
17.238043999999995,4.088637409504639,0.1329611225276553
17.242627999999996,4.125823211998599,0.1326761406549654
17.247215999999995,4.158878396396755,0.13245610785655557
17.251804,4.192788873793932,0.13215912983151992
17.2564,4.225633590580687,0.1318224960642338
17.260984,4.255491493147578,0.1314953732583725
17.265572,4.283750754798837,0.13111886560000183
17.270167999999998,4.30632489888729,0.13082192740040677
17.274752,4.331308835441766,0.1304370423077366
17.279339999999998,4.3528952621853145,0.1300296534449587
17.283935999999997,4.372272124442501,0.12962988292427025
17.28852,4.392993018555293,0.12910644854264489
17.293107999999997,4.4108492831623645,0.12857670943171487
17.297695999999995,4.425474364121283,0.12807501140806565
17.302287999999997,4.4351915772508965,0.12762634634139694
17.30688,4.4400009225512065,0.1272324258905519
17.311476,4.4464428105840375,0.12675321948044338
17.316067999999994,4.449653514968714,0.12630858304985154
17.320659999999997,4.451676274028824,0.12583830518824227
17.32526,4.4555759452497465,0.12525683600408588
17.329851999999995,4.458942736165459,0.12465825423473816
17.334443999999998,4.46316482008019,0.12397693127302784
17.339031999999996,4.463256285899119,0.12333239194658295
17.343624,4.455252841689218,0.12282847780730813
17.348208,4.442630040526931,0.1224124521047667
17.352804,4.432661401258961,0.12188047246939465
17.357391999999997,4.420893893095695,0.12137858165876883
17.361984,4.406428081589484,0.12092125944930421
17.366571999999998,4.387220728416743,0.12056299238080964
17.371168000000004,4.371488928320448,0.12015329357569418
17.375756000000003,4.352159390433562,0.1198018894904519
17.380339999999997,4.329398440918858,0.11956312734728249
17.38492,4.310479598623036,0.11923856731387997
17.389512000000003,4.2970795477272485,0.11881245047322522
17.394095999999998,4.288953918803203,0.11830971590361612
17.398676000000002,4.28123898547022,0.11783633893979575
17.403268000000004,4.272135878833008,0.11742413224542023
17.407852,4.259723545282124,0.11711164860555785
17.412439999999997,4.248376972341661,0.11683915218779702
17.417032,4.238995594459268,0.11659232178238202
17.421619999999997,4.23141308547217,0.11631704984938973
17.426223999999998,4.225917956257287,0.11605726371382603
17.430816,4.230194421252385,0.11566064484814657
17.435404,4.23962312350508,0.11520152009692756
17.43999999999999,4.261233212433779,0.11452712718607615
17.44457599999999,4.280966389201664,0.11396287462395857
17.44917999999999,4.302786945741765,0.11341911992730565
17.453771999999994,4.324896013158787,0.1129141240048927
17.458368,4.349703383918751,0.11236893589252317
17.462948000000004,4.371323712479189,0.11191196725309165
17.467548,4.397851908868931,0.11141747787963321
17.472131999999995,4.426178974153969,0.11089632143820373
17.476723999999997,4.453117866134777,0.11044248621543386
17.481311999999996,4.478912954239645,0.11003515130663846
17.485903999999998,4.5026648040209265,0.10968217091836178
17.490508,4.532179814630531,0.10923104951789053
17.49510399999999,4.566558551620813,0.10869890190194169
17.499695999999993,4.605556645563479,0.10809291638480678
17.504287999999995,4.645820728096231,0.10745043392607607
17.508875999999994,4.6868620603624835,0.10681707416802685
17.513463999999992,4.729335707381596,0.10620889826866056
17.518048,4.769643931362975,0.10565788421156158
17.522643999999993,4.804311179230176,0.10520691924931298
17.527235999999995,4.841921099868612,0.1047133614324331
17.531823999999993,4.870947371621634,0.10436782286642424
17.53642,4.900750893108159,0.10402116668145105
17.541000000000004,4.929899349575328,0.10366865937694403
17.545591999999992,4.963012097975525,0.10324788314048539
17.550176,4.997146465537515,0.10281388299403975
17.554764,5.035489494460824,0.10229689266501293
17.559375999999993,5.077386119726097,0.10169794900496415
17.56396399999999,5.1194049297055155,0.1010940628952424
17.568564000000002,5.165388031617963,0.10043821645927238
17.573159999999994,5.213292187139852,0.09976943535251469
17.577747999999993,5.259519658480591,0.09911052949805173
17.582351999999993,5.300106153707152,0.09853476426799386
17.58693999999999,5.336972726428976,0.09801622613635874
17.591543999999992,5.376126906902677,0.09745688444729458
17.59614,5.414503837642876,0.0969052349527729
17.600732,5.450915573325005,0.09633207506203185
17.60531199999999,5.482175071749539,0.09579304260769227
17.609912,5.51494492819245,0.09520441840398164
17.6145,5.54795915406365,0.09459962748882411
17.619099999999996,5.578397261306054,0.09401948256477409
17.623684000000004,5.609856987710252,0.09342233019686058
17.628275999999993,5.645891929618206,0.0927379423547247
17.63286399999999,5.682415610382742,0.09202689331693381
17.637459999999997,5.719305845289717,0.09130373084885382
17.642056000000004,5.756440449624981,0.09057449238505114
17.646656,5.788589142865426,0.08991683894930913
17.651248000000002,5.814075240829897,0.08933848984283539
17.65583999999999,5.840050077650949,0.08873285717673131
17.660428000000003,5.859484503910177,0.08819341361075296
17.665016,5.87454394264531,0.0876819312528193
17.669604,5.89254605415168,0.08713832713926062
17.674187999999994,5.913490838429285,0.08656308251373901
17.678779999999996,5.931859504078091,0.08599882935632269
17.68336,5.94368775916507,0.08549489447605114
17.687952000000003,5.954494395090256,0.08500683740265896
17.69254,5.964812292158859,0.08455171154047207
17.697132000000003,5.976029623675109,0.08408941941802899
17.701715999999998,5.987124770477215,0.08363782442620003
17.706303999999996,6.000140970888761,0.08317016896427253
17.71091599999999,6.009315064081427,0.08273953162314793
17.715507999999993,6.018855711416529,0.08228653483608621
17.72009599999999,6.021733763475657,0.08189774461212121
17.724691999999997,6.022202023068761,0.08155846536096441
17.729279999999996,6.018173110423628,0.08124556589045953
17.733876000000002,6.011323709721404,0.0809556656532781
17.738464,6.007661351218707,0.08061997486665452
17.743059999999993,6.009517784116043,0.0802487805979146
17.747639999999997,6.010108228423293,0.07990627779660261
17.752236000000003,6.009021988549394,0.07956281056641569
17.75682799999999,6.008835183123142,0.07921445994564173
17.761428000000002,6.006971693515739,0.07886924322148066
17.766011999999996,6.00253208527954,0.07853079478363535
17.770608000000003,5.9969486731674015,0.07820972860101083
17.77519999999999,5.997006237169443,0.07784682712709882
17.779791999999993,5.998085420333276,0.07747291761670275
17.78437999999999,5.996588484868312,0.07710311618489549
17.788975999999998,5.998278591602874,0.07669135322173445
17.793563999999996,6.001356871641667,0.07624823709121259
17.79814799999999,6.001859033051661,0.07581135619490646
17.802736000000003,6.008246540004126,0.07532148775623687
17.807336,6.013612427794796,0.07484341842315263
17.811923999999998,6.020777184480763,0.07435711382891427
17.816523999999994,6.030351733632753,0.07382704727542179
17.821115999999996,6.0417251516800405,0.07328959417266767
17.825703999999995,6.051954765851388,0.07276913245129728
17.83030399999999,6.062306564736879,0.07224501614442704
17.834883999999995,6.065462888041188,0.0717504520924229
17.839475999999998,6.067841961611997,0.07125192563916008
17.844063999999996,6.075862011296983,0.07071741016312749
17.848651999999994,6.083104811248466,0.07017948663099126
17.85325199999999,6.090225426485804,0.06965027619080762
17.857843999999993,6.095302803399557,0.0691401396602084
17.86243199999999,6.107287145017572,0.06857315352723785
17.867027999999998,6.11747261774029,0.06801787979082564
17.871615999999996,6.12598140628186,0.06746288410885368
17.876215999999992,6.141152790099401,0.06686844679352082
17.880795999999997,6.151216078107974,0.06632523251358821
17.885395999999993,6.159113943078814,0.06581255765705331
17.889987999999995,6.169465741964307,0.06530827460979884
17.89458799999999,6.177652117812066,0.06483480431742931
17.899176000000004,6.1876373625551215,0.06435758265858091
17.90377999999999,6.1966009881363835,0.06389010412398974
17.908371999999993,6.206219678737002,0.06343798522694993
17.912968,6.2184144879664185,0.06298963532522119
17.917551999999993,6.235473023576511,0.06251157385323756
17.922143999999996,6.252287189758313,0.0620509778681163
17.926743999999992,6.273720712892501,0.06157322726848638
17.931335999999995,6.295032051312543,0.06110252419703969
17.935923999999993,6.316465574446728,0.06063078631634445
17.94052,6.342396269819154,0.060154924587862736
17.945107999999998,6.369348584353372,0.05967388268564
17.94969199999999,6.402719124735273,0.05917709451418032
17.954283999999994,6.433802057365294,0.058718271239028966
17.958875999999997,6.465662239728817,0.0582695368936862
17.963475999999993,6.496256433502256,0.057842146218813534
17.968055999999997,6.523008520056813,0.05743899136799585
17.972643999999995,6.556423201887339,0.057009426407825844
17.977219999999996,6.589715699003722,0.05658848540460078
17.981816000000002,6.618755393310155,0.05616225185196547
17.98640799999999,6.649305445634965,0.055707607261808935
17.990987999999994,6.67805662906448,0.0552573670164158
17.995600000000003,6.706807812493995,0.05480727314819996
18.000188,6.734903930904154,0.054350089166396214
18.004787999999998,6.759280126809575,0.053905941626654644
18.009384000000004,6.77993640021026,0.053474864560070265
18.013972000000003,6.797527816125563,0.05306546664795252
18.018572,6.8119321898413405,0.052684165836860544
18.023164,6.829279236328354,0.05228988293028648
18.027759999999997,6.838819883663454,0.05193158519704989
18.032347999999992,6.836834209341907,0.05161740114175818
18.036948,6.830762058373186,0.05133042856862545
18.041527999999992,6.820192735166227,0.051047139055395596
18.046128000000003,6.802305751663938,0.05077247472871955
18.050716,6.776978923152174,0.05051230010645763
18.055316,6.757415255468735,0.05023023622331354
18.059912000000004,6.731066807795178,0.049973794110701096
18.064503999999992,6.695113092074414,0.04975197441005934
18.0691,6.655317269134768,0.04954275446512783
18.07369599999999,6.615032707338539,0.04935665667345814
18.078292,6.565675757800315,0.04922219601297033
18.082888000000004,6.515297189100296,0.04909164426613129
18.087476,6.4610765131813945,0.048973261512683296
18.092071999999995,6.398805068682291,0.04890093932527784
18.096659999999996,6.331792082516657,0.04884121486657529
18.101244,6.259915369970346,0.04880025984667152
18.105836000000004,6.184440919633444,0.04875963457512959
18.110432,6.108311404277186,0.04870315235960862
18.115024,6.026296543378458,0.048671863009358475
18.119616,5.9459583666608795,0.04864816015667777
18.124211999999996,5.873426589095213,0.048586210628826954
18.12879999999999,5.79909594263425,0.0485238097445992
18.1334,5.716836712307231,0.04850629906785284
18.13797999999999,5.63625416616136,0.048494950964026284
18.142571999999998,5.558247738644289,0.04848984471000195
18.147168,5.468959358898859,0.048512327962698595
18.151756,5.386577943857695,0.04849179285368905
18.156367999999997,5.308160820749558,0.048445991538668146
18.16095599999999,5.230765316803215,0.048390482410718146
18.165552,5.153491997571016,0.04832512072984052
18.17014799999999,5.080838035291203,0.04825181642184753
18.174736000000003,5.008839138030748,0.0481923755729387
18.179340000000003,4.942481216884469,0.048114140178777604
18.18393199999999,4.880742652690577,0.048029616417599265
18.188523999999997,4.8205585879636885,0.04796273040047703
18.193116,4.766792749084481,0.04788573244003471
18.197703999999995,4.715603028834071,0.047817144558676895
18.202291999999996,4.665312743031309,0.04774428780729166
18.206895999999997,4.614000838066753,0.04767996701726694
18.21148399999999,4.567552659482874,0.047587627863585016
18.216075999999997,4.515096950642379,0.04753831280849349
18.22066,4.462641241801884,0.047487923715921136
18.225255999999995,4.416070878503859,0.04740059773383844
18.229843999999996,4.368356711329895,0.04733303525296488
18.23444,4.317944240812987,0.047264102503500875
18.23903599999999,4.271784573106028,0.04721613933503325
18.243632,4.217329767390574,0.047262576854420695
18.24822,4.160831723351533,0.04732809462037637
18.252812,4.102534810417197,0.047391854144457936
18.2574,4.044115712768714,0.04746578589755758
18.261996000000003,3.9828761270631423,0.047553902784572846
18.266575999999997,3.919060422728773,0.04763007093302337
18.27116399999999,3.84498438532784,0.047740908110006024
18.275755999999998,3.7666555451169597,0.047830508250344086
18.280336,3.6889376284768067,0.047858001203463646
18.284928,3.6019809979318844,0.04791050449900631
18.289516,3.513469867919958,0.04793789942962761
18.294104,3.4229154995844446,0.047984894590591014
18.298700000000004,3.334526554286663,0.04798859938273601
18.303291999999992,3.2377983295317607,0.04800946369221793
18.30787999999999,3.141436658919295,0.04799054809177537
18.312471999999996,3.046096607468623,0.04795078306549499
18.317072000000003,2.951655990465599,0.04790068459172675
18.32166399999999,2.8595029812144532,0.0477866455963492
18.326244,2.768249406410955,0.04766671349592835
18.33084,2.6717214096357154,0.047533908566976715
18.335419999999992,2.5786248244882928,0.04731050715455815
18.340016,2.4837293704455754,0.04707398688547645
18.344608,2.386790678079271,0.04686051144774971
18.349208,2.2873980517983137,0.046570939646043
