Time,Force,Position
24.250652,0.27659770286909724,0.0
24.255248,0.27851875647853863,0.0
24.259836,0.2736550300978623,0.0
24.264444000000005,0.2695685534506883,0.0
24.269024,0.262661588746425,0.0
24.273612,0.25256758184263534,0.0
24.278204,0.23658822939637603,0.0
24.2828,0.22445098416899945,0.0
24.287396,0.21168429972803154,0.0
24.291984,0.19940635414364638,0.0
24.296584000000003,0.18418573578802627,0.0
24.301164,0.17280722465128892,0.0
24.305764000000003,0.15938547519096452,0.0
24.310352,0.14404267212119876,0.0
24.314952,0.12869986905143302,0.0
24.319544,0.11617755403875646,0.0
24.32414,0.10467685818787345,0.0
24.328736,0.0903556742799012,0.0
24.333328,0.07399125204834191,0.0
24.337920000000004,0.05918132928378697,0.0
24.342512,0.04449359123337771,0.0
24.347100000000005,0.032626341240057685,0.0
24.351696000000004,0.02280232957032469,0.0
24.356288,0.015021556224178747,0.0
24.360876000000005,0.00916183648747418,0.0
24.365456,0.004445920626708805,0.0
24.370048000000004,0.002672677537178329,0.0
24.37464,0.0,0.0
24.379232,0.0,0.0
24.383824000000004,0.0017291016409023234,0.0
24.388404,0.0017291016409023232,0.0
24.392996000000004,0.0037467141587241427,0.0
24.397588,0.00834044530534384,0.0
24.402168000000003,0.016820425119474434,0.0
24.406756,0.025466731096378856,0.0
24.411352,0.03546730856062445,0.0
24.41594,0.050175525874511274,0.0
24.420532,0.07270038197204805,0.0
24.42512,0.10291969213908911,0.0
24.429724,0.14340957500443233,0.008268010386279294
24.434316000000003,0.19057229277748633,0.016548811767465296
24.438908000000005,0.24363059572474888,0.024886089803892737
24.443496000000003,0.3052827871891636,0.033006675656431686
24.448084,0.37655048633252386,0.040854550441680335
24.45268,0.45833312760247774,0.04843691539123633
24.457268,0.546544234351851,0.056139797826419174
24.461848000000003,0.6414281760089351,0.06388878146192976
24.466444000000003,0.7410638989642885,0.07180273692513844
24.471048000000003,0.8476168262556439,0.07969259407008143
24.47564,0.9609123557091036,0.08752376265513248
24.480232,1.0837536255871154,0.09529891645632964
24.484816,1.2107172375498056,0.10307777628727788
24.489408000000005,1.3421441199338453,0.11082440914343794
24.493996000000003,1.4733707743382223,0.11863968484077142
24.498588,1.6129808496483493,0.1262979014049856
24.50318,1.753490359406124,0.13403033044466353
24.507764,1.8911352396581813,0.1417944037896395
24.512356000000004,2.0226401653077386,0.1495136643094597
24.516952000000003,2.1501705593925293,0.15709420056959128
24.521532,2.2711503032837546,0.1562743940173888
24.526124000000003,2.3926526878484515,0.1552263929124886
24.53072,2.510835605867738,0.15406141935595274
24.535312000000005,2.6210797003892283,0.1531192991877042
24.53992,2.720320113927543,0.15253790007882176
24.544508,2.8085568464826816,0.1522852427785592
24.549096,2.8937184819207005,0.15184084323715713
24.553692,2.9755606508133092,0.15128182071166008
24.558288000000005,3.0560044067699486,0.15049185654545202
24.562892,3.1304745342868614,0.1497822942438302
24.567492,3.1995819569347765,0.14909615708866455
24.572084000000004,3.2656584239142004,0.148401201933949
24.576672,3.3278045007774857,0.14769222542871166
24.581276000000003,3.3869196219722797,0.14696243095570352
24.585856,3.4444361022514407,0.1461681798770846
24.590452,3.4953680305201478,0.14554843152003347
24.595040000000004,3.5481768709496677,0.14479109810995322
24.599644000000005,3.6022516999692726,0.1439737562061728
24.604228,3.6569815940082346,0.14318050841230318
24.60882,3.707380641971731,0.14258954677110164
24.613408,3.749606736640879,0.1423031957358479
24.618004,3.7833713671387588,0.14229305194623848
24.6226,3.812927336275319,0.14244516027879023
24.6272,3.8462032279166167,0.14249628236299583
24.631792000000004,3.882299607615003,0.14245629660272527
24.636384,3.9214608447987698,0.14230363299712298
24.640964000000004,3.959967016963181,0.1421613458208085
24.645552,3.996918689660587,0.14204786864083635
24.65014,4.030150439853256,0.14203783399907782
24.654732000000003,4.063460233311443,0.14193925726643236
24.659328,4.09480483171156,0.1418316610328954
24.663916,4.120708681977162,0.14178355623732972
24.668516000000004,4.143625718022902,0.141752812461669
24.673104,4.161757070953482,0.14178221068365912
24.677696000000005,4.179067032701932,0.14175073161937152
24.682284000000003,4.196577222430045,0.1416269621856509
24.686876,4.212244401814235,0.14148116359431115
24.691488,4.225291321120999,0.14131571915991767
24.696076,4.23727247981734,0.14111741621132348
24.700688,4.248310062617405,0.14086715345764889
24.705276000000005,4.265433218939603,0.14035565589256244
24.709864000000003,4.285088352441972,0.13973084802627903
24.714456,4.306864767533444,0.13895745044438948
24.719048,4.321934445900317,0.13829432692863286
24.723640000000003,4.335283298637412,0.13759219071618004
24.728236000000003,4.345645337154643,0.1369090847992279
24.732840000000003,4.350855138414279,0.13631383323984947
24.737428,4.354632624921057,0.13572247130697723
24.742028000000005,4.360287023588647,0.1350176606509685
24.746604000000005,4.367451780274613,0.13424255419320638
24.751204,4.371018799169988,0.13353639704550188
24.7558,4.376751241103096,0.13276120594066756
24.760400000000004,4.385304171093294,0.13192475287020478
24.764992,4.395000904959429,0.13104678882519458
24.769588,4.402776585216124,0.13021779326355976
24.774176000000004,4.405810723806288,0.12949821891018326
24.778772000000004,4.405780004911072,0.12886796287857452
24.78336,4.4034616782639775,0.12831719502905717
24.787952000000004,4.400898982188591,0.1277924707502579
24.79254,4.403977262227383,0.12714854086799496
24.797128,4.406322433981301,0.1265786700191705
24.801716,4.4052361941074025,0.12612578891349208
24.806312,4.408524941757596,0.12561127718045378
24.810900000000004,4.416843741951241,0.12503837398230966
24.815496000000003,4.428149356364748,0.1244656409854608
24.820088,4.444240653893415,0.12386624557402531
24.824676000000004,4.465484188679676,0.12320026954717517
24.829272000000003,4.48611679989521,0.12259124401801211
24.83386,4.506793552559372,0.12205310696141711
24.838452000000004,4.52841388111981,0.12157647874000638
24.843048000000003,4.553920458347759,0.12108076434094754
24.847628,4.581392230633777,0.12061970822534278
24.852224,4.608619633491504,0.1201884096556568
24.856808,4.63613554722615,0.11979941697956686
24.861396,4.665738840733012,0.11942385230315465
24.865988,4.701515990659264,0.11896603711023111
24.870580000000004,4.738725455338373,0.11851210930275385
24.875172,4.781453711417516,0.11797075533508757
24.879752000000003,4.824059782782512,0.11744558754870432
24.884356000000004,4.863112257805544,0.11704536477494164
24.888944,4.9039636017238735,0.1166263525388846
24.893552,4.9501674108794615,0.11607261366120712
24.898136,4.991263124226081,0.1156459407899137
24.902736000000004,5.033258272020349,0.11521951474523423
24.907332000000004,5.074476170081117,0.11480501181565803
24.911924,5.111685634760225,0.11442035846848891
24.916512000000004,5.146318980810538,0.11406621981964561
24.921100000000003,5.182462684879226,0.11365373743552443
24.925692,5.215619574728051,0.11323941660538911
24.930284,5.24248042344334,0.11290581689426844
24.934876000000003,5.269174945995857,0.11252903251869642
24.939460000000004,5.287896743233689,0.11224354999231505
24.944048,5.30212136823328,0.1120143205120365
24.948648,5.316179667070098,0.11173974538999189
24.953236000000004,5.331093258905936,0.11140146336249596
24.957836,5.3417540479318255,0.11110263161221494
24.96242,5.355068998852031,0.11071983858459679
24.967008,5.365807831143438,0.11036500162537814
24.971608000000003,5.3760137831296335,0.10999437182738633
24.976192000000005,5.385276159219554,0.10957987449521783
24.980780000000003,5.392206786108968,0.10917199208909446
24.985368,5.396194740227147,0.10881634576303145
24.989948,5.401815237077847,0.10839693850836962
24.994548,5.404448919708685,0.10797567897610601
24.999136,5.40744915648196,0.10753123653780368
25.003724,5.4093055893792945,0.1071140249821247
25.008320000000005,5.413327445314364,0.10665340261677098
25.012916000000004,5.417349301249432,0.10619541388508474
25.017508,5.4248467102609474,0.1057104165991613
25.022088000000004,5.438473834243223,0.1051188063657477
25.026688,5.449935535187765,0.10457277257172616
25.031268000000004,5.4698587003035755,0.10391849018885098
25.035876,5.49554502624771,0.10318475184915257
25.040468000000004,5.5243403511258515,0.10245891621889874
25.045056,5.551991872128055,0.1017676237858371
25.049636,5.5804206428637615,0.10107647550612135
25.054232,5.6047629369522936,0.10046057329761053
25.058820000000004,5.62898304632668,0.099857431041482
25.063412,5.653980405434568,0.09925827479311192
25.068004,5.682453317618903,0.09864098511416962
25.072588000000003,5.713624533146181,0.09800701420643265
25.07718,5.745695183121106,0.09736887255867696
25.081772,5.776622029220093,0.09676032802007144
25.086352,5.803995278977116,0.09623162926788974
25.090944,5.830102540144054,0.09574167691776408
25.09554,5.858130854920434,0.09522956872088537
25.100120000000004,5.881950508335494,0.0947908208729776
25.104716000000003,5.904626357874615,0.09437880563425552
25.109304,5.927302207413735,0.09397210882994383
25.1139,5.948712068362771,0.09360409666073463
25.118496,5.978050513177863,0.09313971518332319
25.123084,6.00366903548822,0.09271699000175418
25.12768,6.027488688903278,0.09231368827508057
25.132268000000003,6.04513448589895,0.09194982540398033
25.136856,6.0600819795516765,0.09160602070077217
25.141452,6.080015384299226,0.09120434258486843
25.146044000000003,6.100070973760919,0.09079430225027174
25.150640000000003,6.118572063755611,0.09038275050729287
25.155232,6.138094772912094,0.08996127111017876
25.159828000000005,6.152875940402048,0.08958786638322469
25.164412,6.162138316491967,0.08925967403052873
25.169008,6.171522877296034,0.08892591422546545
25.173592,6.180008003652453,0.08859821459787465
25.178192000000003,6.194745029693779,0.08818255689227733
25.182776000000004,6.207805371553953,0.08777180200509269
25.187368,6.217267975623539,0.08738388540037902
25.191968000000003,6.231960860216234,0.08692309771474133
25.19656,6.244854875913635,0.08647279509243933
25.201148000000003,6.259014880201121,0.08599990963781298
25.20574,6.268555527536223,0.08556246888374867
25.210332,6.269634710700057,0.08520115076629889
25.214916,6.271735513025683,0.08482807144402903
25.219504,6.271015827294221,0.08447810459179922
25.224104000000004,6.276425856533519,0.08405334339814433
25.228688,6.285677992991701,0.08359428960687237
25.233276000000004,6.286468665278615,0.0832044370317176
25.237868,6.290079825622616,0.08279346364688783
25.242448000000003,6.295612039576062,0.08236633506850721
25.247044,6.297546515738914,0.08195924768800718
25.251632,6.302668034101295,0.08150892552416072
25.25622,6.31073222523491,0.08102873298167348
25.260816,6.31916297051096,0.08052999460836138
25.265404000000004,6.3325796268818335,0.07998398867331798
25.269992,6.343297979909763,0.07945609124025935
25.274588,6.353361267918336,0.07891710493167794
25.279180000000004,6.369309901469379,0.07832605190213732
25.28378,6.3805169933538926,0.07777303389214128
25.288364,6.392090639380841,0.07719643775269457
25.292956000000004,6.3998221781889075,0.07665362834183943
25.297536,6.408697520872913,0.07608928768102977
25.302136000000004,6.419493917166361,0.07550966267249781
25.306716,6.431434117335747,0.07491655372651729
25.311316,6.450403466923542,0.07426048501922924
25.315912000000004,6.467207393473606,0.07364003049607903
25.320504,6.482334635842518,0.07302414221038381
25.3251,6.500404550982666,0.07238105203318963
25.329696,6.5178194011034565,0.07173298878229879
25.334284000000004,6.536255870386041,0.07108052588216378
25.338880000000003,6.559189511906866,0.07041508463218786
25.343468,6.579957730389957,0.06977871298022106
25.348064,6.602402633054199,0.06914729387836258
25.352652,6.623337177700064,0.06855576778719649
25.357240000000004,6.635688073460515,0.06801836803492874
25.361828000000003,6.647794599792675,0.06749611381255033
25.366412000000004,6.6654199175248685,0.06695468161169955
25.371008000000003,6.681779246666975,0.06644192668774497
25.375588,6.70300230218976,0.06590022274596871
25.380184,6.729744149112577,0.06534201192352128
25.38476,6.755586561587746,0.06478579899504404
25.389340000000004,6.7871921348912405,0.06420128918198358
25.393932,6.819819327356527,0.0636126524732491
25.398520000000005,6.848482227888785,0.06305475282460017
25.403108000000003,6.871015413450281,0.06255406864810195
25.407704000000003,6.890605926240545,0.062073011761869856
25.412292,6.911873123211958,0.061598348779625084
25.416888,6.939680730745197,0.06110501873558653
25.421472,6.968387772726084,0.06061549039128355
25.426076,6.997994249154618,0.06013123367250042
25.430664,7.026046226116149,0.05964313017811126
25.43526,7.0571630605630595,0.059135433698911354
25.439840000000004,7.086725395542967,0.05862253585109967
25.44444,7.11383379660822,0.0581007183057671
25.449032000000003,7.150303096292389,0.05755013293606363
25.45362,7.1858729615289105,0.057002467044342274
25.4582,7.218500153994197,0.05647718267014892
25.462792,7.24957284699248,0.05594643488685302
25.467396,7.2727169561247065,0.055460510076024296
25.471988000000003,7.293940011647491,0.054988625421272135
25.476576,7.316062501617924,0.054515510668668395
25.481164,7.331400211598239,0.05407451149037344
25.485752,7.347515171312056,0.05364205569437864
25.490340000000003,7.366817173225398,0.053185184667590216
25.494928,7.385097555976948,0.05273380684212023
25.499520000000004,7.405421177052085,0.05226959320218386
25.504112,7.422024875622484,0.05181531696840612
25.508700000000005,7.424159579765002,0.051415383346211686
25.513292,7.423351611136283,0.05102973888718978
25.51788,7.413715624193859,0.050682027125300164
25.522468000000003,7.39921591087076,0.05035243991685205
25.52706,7.38165134006228,0.05004134186936339
25.531648000000004,7.362576411235423,0.0497588668159666
25.53626,7.349919708256248,0.049468391707334615
25.540852,7.329578790839308,0.04920313705739772
25.54544,7.30719463509878,0.04894808805713232
25.550036,7.277126264920485,0.048715605835761296
25.554624000000004,7.242727048666727,0.04851693255230261
25.559232,7.214090993241292,0.04829814258784735
25.563824000000004,7.177770723378091,0.04810183585137691
25.568420000000003,7.138385596029511,0.04792153972120094
25.573,7.098878283966782,0.047744956257631435
25.577600000000004,7.050420768876205,0.04760952246989769
25.582184,6.995589169386574,0.04752040756546785
25.586788,6.9370376473922075,0.04743605486629447
25.59138,6.875299083198316,0.047373887667755514
25.595972000000003,6.808330238481308,0.04734831937289645
25.60056,6.7480239890402745,0.047304031079517264
25.605156,6.681832394056771,0.047283558410763205
25.609744,6.616662418235059,0.047256912482513
25.614336,6.549327019375616,0.04724897133546566
25.618928000000004,6.479948382192586,0.04725278269397307
25.62352,6.4014532158189335,0.04726387955151605
25.628108000000005,6.3133527813980725,0.04730602133824121
25.632696000000003,6.223331293367769,0.04735442521342216
25.637284,6.131388751728025,0.047409184453234166
25.64188,6.042388882859516,0.04745069342051564
25.646472000000003,5.9546550025810925,0.047470008639969655
25.651064,5.859236907864903,0.04751545801865617
25.655660000000005,5.76471824759636,0.04756160381379457
25.66024,5.669422337594317,0.047599363615765215
25.664836,5.573226993144625,0.047634672632736345
25.66942,5.480340875608604,0.047633431535346875
25.674004000000004,5.386799693053227,0.04761862239646143
25.678600000000003,5.298000052164381,0.047585698939876304
25.683192,5.20740154238024,0.04755167899037082
25.687788000000005,5.1217889436909205,0.04748776138319672
25.692384000000004,5.035276910553953,0.04742021609929575
25.696972,4.952484799921722,0.04734497774481004
25.701568,4.870714308451285,0.047258526529646315
25.706144,4.790864870590289,0.04716330082015879
25.71074,4.708194944672205,0.04707567336278472
25.715328,4.636562601554186,0.04697094622696993
25.719928000000003,4.564153008702664,0.0468550146139525
25.724508,4.490721796689349,0.04674676399256982
25.729108000000004,4.4199888880189775,0.04663744761337158
25.733704000000003,4.3491337946344615,0.04653421031479395
25.738296,4.27419222460277,0.04646705602324372
25.74288,4.204114380951754,0.0463675315366291
25.747476,4.137634275091331,0.04626766468450914
25.752064000000004,4.075651341469147,0.04616501505271634
25.756656,4.010603550361583,0.046091490013840115
25.761248,3.9442897706639326,0.046046269935524825
25.765832000000003,3.8809186637375177,0.045975050291660796
25.77042,3.810884961535131,0.045930300644978155
25.775012000000004,3.7379085865615087,0.045909543753981465
25.7796,3.660435039349649,0.045880114437699585
25.784196,3.5820620576901394,0.04584338909267147
25.788788000000004,3.5011129574018334,0.04578697825083104
25.793376,3.419264422665879,0.045720686072129896
25.797960000000003,3.3374158879299247,0.04565129747870711
25.802548,3.2527468651368805,0.045597784286610904
25.807136,3.159860747600861,0.04554412823509171
25.811732,3.066852445350695,0.04550418717087642
25.816320000000005,2.973966327814675,0.04544810317364985
25.820912,2.8765830380404154,0.045381967896983164
25.825504,2.776379260209067,0.04532960034803955
25.830092,2.6762976670918643,0.04527134930914381
25.834688,2.5713523475939857,0.04525360330736859
25.83928,2.4601109869625715,0.04522203432014912
25.843876,2.339508727712241,0.04525365520646329
25.848464,2.2220935106614377,0.045179264879572
25.853064000000003,2.101080555820043,0.04510929640177929
25.857644,1.9777799932267701,0.04283204249299506
25.862244000000004,1.8599982220335296,0.040547047493671516
