Time,Force,Position
22.126036,0.15458857554263605,0.0
22.130632,0.17041184145786037,0.0
22.135212,0.18689017239244118,0.0
22.139812,0.20108089557514358,0.0
22.144404,0.21563817290028303,0.0
22.148996,0.23085051524477898,0.0
22.153592,0.25109291013272506,0.0
22.15818,0.27109093559237973,0.0
22.162776,0.28585868052892116,0.0
22.167364,0.30074861017960824,0.0
22.171964,0.31743740872559106,0.0
22.176552,0.3440980294612177,0.0
22.181144,0.3697370310350509,0.0
22.185728,0.38577076456167714,0.0
22.190316,0.40143794394586646,0.0
22.194904,0.41992561138714496,0.0
22.1995,0.4421332013331605,0.0
22.204088,0.46331917211738255,0.0
22.20868,0.4761658634444827,0.0
22.213268,0.48570332785791076,0.0
22.217852,0.49139868505245615,0.0
22.222444,0.4933741197422645,0.0
22.227036,0.49293976196604883,0.0
22.231628,0.4940599036568374,0.0
22.236216,0.4943247523486063,0.0
22.240812,0.4941008621837925,0.0
22.2454,0.49302167901995897,0.0
22.249992,0.4899433989811667,0.0
22.25458,0.4966808546009831,0.0
22.259168,0.5099248189657365,0.0
22.263764,0.5311076068282855,0.007380498522927088
22.268352,0.5533222534843669,0.014963899072221384
22.27294,0.5864183964094788,0.022281647059963307
22.277536,0.63350503453763,0.029685097312128574
22.282124,0.6863650731258438,0.0372385987471255
22.286728,0.7479411849453557,0.04466415693546833
22.29132,0.8178668158537282,0.052088572246144424
22.295924,0.8924220433462245,0.05962629507071173
22.300512,0.9840326235271406,0.06694679307503996
22.305112,1.0864025152629415,0.07415981305342326
22.3097,1.1990429796970448,0.08138528050979363
22.3143,1.3233421901336806,0.08850557514882544
22.318888,1.4556582673336296,0.09559229460033117
22.323488,1.5938257882591589,0.1026389508775165
22.328072,1.7344913845479686,0.10977651397690857
22.332664,1.8803533595430022,0.11694958246583334
22.337256,2.032389190957425,0.12405489622628706
22.341848,2.1925199324006788,0.1310747612879954
22.346448,2.3478649907287736,0.13810526819674687
22.351048,2.498668735370001,0.14513201491014224
22.355636,2.6387131684563436,0.1448064665964794
22.360232,2.773883635530271,0.14425590757249598
22.36482,2.9009930943922577,0.14394129538146055
22.369412,3.023062261079055,0.14343596322333838
22.374,3.14074620061002,0.1427123908667229
22.378596,3.248814632462039,0.14213019699749385
22.38318,3.3504545988346393,0.14149545472191105
22.387768,3.443867230832524,0.1407876609757252
22.392364,3.5252104212368116,0.14028367353255367
22.396952,3.595383604495148,0.13989401954042083
22.401544,3.6573294533787704,0.13947845872775322
22.406132,3.708393805993362,0.1392084992835079
22.41072,3.750008977091782,0.1390545334844996
22.415336,3.7834409552641137,0.1389543445339021
22.419924,3.8180506391292757,0.13863304737855964
22.42452,3.853182963667908,0.1381074716744924
22.429108,3.880420606157374,0.13768140151551417
22.433696,3.8989863168641694,0.13735986499872052
22.4383,3.915831201941187,0.13699569878709922
22.442896,3.9269909694553986,0.13670596568658594
22.447492,3.9386394758261924,0.13636182062800578
22.452088,3.9511874166446344,0.13600137943253918
22.456688,3.9618143038536346,0.13569657218074743
22.46128,3.9703979527390483,0.1354647947838345
22.46588,3.9739956905296396,0.13538500759103894
22.470468,3.9769383633008744,0.1352982616659039
22.475068,3.9780821671768134,0.135252023538469
22.479652,3.984866947166931,0.13506267594965277
22.484252,3.990507923281109,0.13491856571834043
22.488836,3.9978255835764376,0.1347486530679395
22.493432,4.0059204936052675,0.13457342003716072
22.498024,4.013726892757179,0.1343508099726509
22.502612,4.025741953270409,0.13398326044832826
22.507216,4.037101948764285,0.13360760079615172
22.511816,4.0426987834298345,0.13339339361312205
22.516408,4.04061140365762,0.13338547208865828
22.521,4.043754304408519,0.1332082038176527
22.525588,4.048940443483003,0.13296893761962966
22.530176,4.049385040890959,0.13284629169760462
22.53476,4.053916114946087,0.13259659746333394
22.539352,4.057669939267714,0.13235300409940132
22.543936,4.058192579941187,0.132145583614107
22.54852,4.061369382508974,0.13181334091161528
22.553104,4.062991685609757,0.13149270608793936
22.557684,4.068045400338357,0.13103798610237835
22.562264,4.07412073422875,0.1305517374917923
22.566856,4.079418818385643,0.13007060191140568
22.57144,4.079442480570792,0.12968864779037292
22.576036,4.08097650077432,0.1292244653514192
22.580628,4.080056587063194,0.12878782386209678
22.58522,4.076682739437417,0.12837868938687153
22.589812,4.0726538267922825,0.1279596326457794
22.594404,4.067969849127793,0.1275349542201892
22.598992,4.064429675339241,0.12706657911494146
22.603572,4.062522044283211,0.12650377243987795
22.608172,4.058815544331886,0.1259696493333646
22.612756,4.049878763857447,0.1256029941076295
22.617348,4.039143114487714,0.12527039014129895
22.621928,4.034414995374594,0.1247680028657277
22.62652,4.027765822652034,0.12431289105586664
22.631108,4.022671149396479,0.12384869157915407
22.6357,4.019008790893781,0.12338672404464307
22.64028,4.009338902134468,0.12309006719735913
22.644872,4.001345697556306,0.12277109448854696
22.64946,3.99286375412156,0.12250240575316412
22.65406,3.988101733191552,0.12215564014931685
22.658648,3.984894211728548,0.12180119145605621
22.66324,3.9838962547519055,0.12144727488184395
22.667832,3.984330612528121,0.12110048076349167
22.672412,3.9872189042189894,0.12072988889200449
22.677004,3.992683314538655,0.1203232944375356
22.681604,4.003955027135273,0.11986045440727917
22.686196,4.016536869770603,0.1194233689393564
22.690792,4.029773777425292,0.11899882969241542
22.69538,4.042277576795105,0.11864912606792632
22.699976,4.061976851746102,0.11817880799591073
22.704564,4.083474995592394,0.11767668365032037
22.709152,4.105261650315606,0.11721766821861695
22.713748,4.127336815915736,0.11681511448150872
22.71834,4.154319849345173,0.11637898864423002
22.722944,4.179914709470378,0.11600525844097183
22.72754,4.211028360995615,0.11554489545445668
22.732132,4.252280160873272,0.11491346938266482
22.73672,4.2956193405231415,0.11430996861195958
22.74132,4.346398365182487,0.11359849413025698
22.745908,4.393745978214014,0.11300922502770408
22.750508,4.442770275426691,0.11241385699694284
22.755104,4.493471256820519,0.11180990193662052
22.759696,4.5430284343384075,0.1112485931942415
22.76428,4.5950395457709465,0.11068090883161011
22.768876,4.6483607872422015,0.11013881972488564
22.773464,4.6989837253705105,0.10965001025248439
22.778056,4.744987306546435,0.10923286225617569
22.782648,4.793444821637013,0.10881100951090693
22.78724,4.84357902090874,0.10837653483441662
22.791824,4.891137101551668,0.10797757742948681
22.796412,4.937917932461096,0.1075805543472774
22.801,4.98813017499834,0.10709344483040001
22.805592,5.038831156392168,0.10658044720001986
22.810184,5.085401519690192,0.10610118084841134
22.814772,5.136424913777828,0.10551799866076328
22.819368,5.1830733203413715,0.1049953682135675
22.823948,5.22228188189544,0.10458593522180666
22.828544,5.256704760334348,0.10419091419594824
22.833136,5.281888924868489,0.10392123369512503
22.837724,5.306007328792207,0.10361456445067221
22.842332,5.3290599721055045,0.10327693238678545
22.84692,5.350147420360731,0.10291585274844031
22.851512,5.372623041920188,0.10251272555934786
22.856104,5.390557349792779,0.10210389254205944
22.8607,5.407792451197384,0.1016367154283035
22.865304,5.419875315344394,0.10120365002412243
22.869892,5.436289025566869,0.10068210842307423
22.874496,5.448816487121833,0.10016391389926038
22.879084,5.458601503885227,0.0996186199796139
22.88368,5.46695420589576,0.09906508273722647
22.888268,5.476040016191168,0.0984596402289743
22.892868,5.483571327019572,0.0978598539316486
22.897456,5.486605465609735,0.09730314427706849
22.90206,5.488085104732894,0.09674375396545074
22.906648,5.483923767741875,0.09625201699307447
22.911248,5.479229550445645,0.09574302933756525
22.915832,5.4758013217395,0.09519958493534098
22.920424,5.475437950518736,0.09460676534005148
22.925016,5.480182675106941,0.09393448963655933
22.929612,5.484927399695144,0.09326122582717436
22.9342,5.485341278207884,0.09266857188206536
22.9388,5.483589733682889,0.0921156216634959
22.943388,5.478118266653158,0.09160130766221497
22.947984,5.47587798327158,0.09108404820862201
22.952568,5.471227907423979,0.09062469825523607
22.95716,5.4700533846528225,0.09014249830545125
22.961756,5.4683901230250855,0.0896982266366662
22.966348,5.468281360864352,0.0892576416590907
22.97094,5.471281597637626,0.08882439252692914
22.975528,5.477635202773199,0.08838358294038286
22.980128,5.485954002966846,0.08797707768582101
22.984716,5.4954607484850575,0.08760348757455873
22.989304,5.5062776240419815,0.08724951451607463
22.993896,5.525311594341883,0.08683626382120839
22.998484,5.546799498556436,0.08642071388908244
23.00308,5.567432109771969,0.08606425869124563
23.007668,5.588597601292714,0.08572832791085237
23.012256,5.610951038138026,0.08542618320611982
23.01686,5.628973628907873,0.08519922388181245
23.021448,5.651126837773522,0.08497011917429735
23.026052,5.678021588305702,0.08469522637825713
23.030644,5.7085140766284725,0.08439803929228244
23.03524,5.747223659694219,0.08404817126453101
23.03982,5.78773211165526,0.08369511054005407
23.04442,5.833881539730482,0.08329993003085878
23.049,5.883873075024585,0.0828746516659539
23.053596,5.931166306975745,0.08246780283001111
23.05818,5.979358973374554,0.08206164107786408
23.062776,6.029594878096948,0.08163893144341107
23.067368,6.078809163657551,0.0812360716551335
23.071964,6.127490568912942,0.0808224395912658
23.076552,6.171919171358386,0.08042003343033124
23.081144,6.220556435165149,0.07996721393077152
23.085728,6.259588430924705,0.07960323805683511
23.090312,6.298087546379051,0.07922414121421749
23.0949,6.335398716508829,0.07881615375869878
23.0995,6.374220244656983,0.07837227659596864
23.104088,6.411853827480569,0.07790708115956471
23.10868,6.45214157219847,0.0773851701940001
23.113276,6.488543068248861,0.07685413124609626
23.117864,6.5274765414794205,0.07628226424611868
23.122448,6.567920372728358,0.07568017995010946
23.127036,6.596549371443726,0.07513903737810579
23.131616,6.619126698453852,0.07461356728354893
23.136212,6.63463073459694,0.0741143454118971
23.1408,6.644860348768287,0.07363275719440203
23.145404,6.655456517082071,0.07313005682689168
23.15,6.661677697871761,0.07263798722835703
23.154588,6.662868826118002,0.07214819073115503
23.159192,6.662872009039676,0.07163293298229494
23.16378,6.659399638884903,0.07112419915778807
23.168376,6.655394388424919,0.07059515760283136
23.172956,6.643294227936105,0.07009330651613514
23.177556,6.6340925987698975,0.0695212544303475
23.18214,6.621415416527245,0.06895130269636654
23.186744,6.612702526217619,0.0683491381847416
23.191328,6.598470844507962,0.06776920635102358
23.19592,6.5794976211317735,0.06721404953800451
23.200512,6.557459540270205,0.06668573728749422
23.205108,6.535299274694491,0.06616176146171038
23.209716,6.5064764138428055,0.06567443784284302
23.214308,6.471890392162794,0.06521964440434189
23.2189,6.443844781044609,0.06473077842210266
23.223496,6.418497473269371,0.06423173038601833
23.228088,6.3939274152276315,0.063733008693221
23.23268,6.370256791633541,0.06322892621719851
23.237272,6.347607787201244,0.06271388782581762
23.241856,6.326757651664241,0.06219125542315506
23.246444,6.306440396432452,0.06168406663234155
23.25104,6.283835533448783,0.06120585593709554
23.255632,6.263151724074556,0.06071452268264971
23.260224,6.24851958640557,0.06022410459306449
23.26482,6.2410829243177695,0.0597182308359253
23.269408,6.23471202284039,0.059250049287394524
23.273992,6.234637162496545,0.0587705546615123
23.27858,6.233418498276762,0.05830888011201912
23.283168,6.240172559371663,0.05784266173274529
23.28776,6.25040217354301,0.057375859458699933
23.292348,6.263207906343155,0.056912131615315394
23.296936,6.2756470850008625,0.0564683661987471
23.301524,6.291561816735017,0.05602666621428002
23.306116,6.310052667097969,0.05558745803404099
23.310712,6.329565136622712,0.05514491203243764
23.315292,6.350754290328608,0.05471030306149123
23.319888,6.377584420148681,0.05426040797411435
23.324468,6.40674629916926,0.053830097177750995
23.329076,6.437462677656846,0.05341557260234214
23.333664,6.471776793935021,0.053001491041179745
23.338264,6.505724356070759,0.052607137413573694
23.342852,6.543514025425381,0.05219937874081055
23.347444,6.581836575085214,0.05181434321584481
23.35204,6.614518148630869,0.05144878139144448
23.356632,6.643357614957639,0.051101617867505944
23.361232,6.674240319607997,0.050744760772208214
23.365832,6.7033241553630605,0.05039357773536764
23.370424,6.730120383366245,0.05006981132814087
23.375016,6.7495989510741,0.04975718179965628
23.379604,6.769077518781955,0.04944551333764263
23.384192,6.788678271203956,0.049129622172815836
23.38878,6.809422827501897,0.04880155284955924
23.393372,6.827102526314457,0.048493061872464834
23.397968,6.840940117908135,0.04819646339619175
23.40256,6.848647994531053,0.04793814891129746
23.407148,6.849693275877996,0.047698516906374805
23.411728,6.8408889197494425,0.04750293834730399
23.416308,6.827709576096795,0.0473006119829569
23.420904,6.8068460180063814,0.04712222975053059
23.425484,6.7776431804588455,0.046954609419073076
23.430088,6.745864224282513,0.046778904939707856
23.434684,6.7079555531354185,0.04664020130059934
23.439272,6.662484852264704,0.04651858498892768
23.443868,6.6150930977845475,0.0464017738245337
23.44846,6.563737051371365,0.0463027766283797
23.45306,6.502653552196828,0.04624063792843441
23.457656,6.436461957213324,0.046208925515661387
23.462252,6.365651005277435,0.04618346922015966
23.466832,6.290753576694372,0.04618440799200415
23.471432,6.21021517199713,0.04619640607819408
23.476024,6.123014172023916,0.046225228851520764
23.480628,6.031071630384172,0.04626294585480442
23.48522,5.936308600687339,0.04630841099195546
23.48982,5.842689374866446,0.046337451485505735
23.494408,5.747271280150256,0.046368401783177894
23.499004,5.650831566272274,0.04640798464367634
23.503584,5.555535656270229,0.04643531725787655
23.50818,5.458196507944598,0.046475025315407426
23.512784,5.365721085999643,0.046491251723016144
23.517384,5.275821782683486,0.04651480432074792
23.521972,5.1838792410437415,0.046553822787524506
23.526568,5.088583331041698,0.04657808563131844
23.53116,4.99815114742033,0.04657696260382038
23.535748,4.907963333227253,0.046555118221170394
23.540336,4.818919322910116,0.046515267359892934
23.544932,4.731019116468917,0.04645924406897671
23.549528,4.641564410560715,0.046382227052938235
23.554124,4.553253508528452,0.04628443168271227
23.55872,4.467108029533922,0.046157362028815305
23.563304,4.380063116091743,0.04602498891980589
23.567896,4.291752214059481,0.04592335576390139
23.57248,4.203319127313072,0.04582666612785591
23.577068,4.115130409994954,0.045705457813917306
23.581668,4.0248984543532496,0.04559667149331425
23.586252,3.9359324873016295,0.045448396358082684
23.59084,3.848110324125949,0.04527235555518109
23.595432,3.761309780112062,0.04507736148875763
23.600032,3.6745092360981744,0.044875380704530184
23.604636,3.5799022929323767,0.044722806378303004
23.609232,3.480675992814193,0.0445743455144632
23.613824,3.385291799914893,0.04439816544454598
23.61842,3.294649148682123,0.04418462075206237
23.623024,3.198121151906884,0.04400963169386554
23.627608,3.098650482360409,0.04384050081933019
23.632208,2.9993019975280797,0.04363386519382287
23.636792,2.8988097088198117,0.04345127684060829
23.641396,2.7989724851309004,0.043290116558252226
23.645984,2.699912511175491,0.043130988186416044
23.650584,2.6034286558488797,0.04298049540668103
23.655168,2.509520919151066,0.04284682571668323
23.65976,2.4180229749192765,0.042613145987417764
23.664368,2.326402845973341,0.04238767258943142
23.66896,2.233638913151467,0.04217902800384116
23.673564,2.144472718120184,0.041970332594180884
23.678156,2.052896730622877,0.04185435525047669
23.682756,1.9658179153638091,0.04172526730797455
23.687352,1.8786169153905956,0.041593529000024346
23.69194,1.7934591537409694,0.04137679851138141
23.696524,1.7143089223479584,0.04102747606982527
23.701112,1.6409218517832715,0.04057540294002327
23.705704,1.565735912323289,0.04004984357588694
23.710296,1.4883845498255739,0.03952957384684597
23.714888,1.416796348156183,0.03890782267673022
23.71948,1.3485615148490921,0.03679607970479397
23.72406,1.2808595618472118,0.03473419783608511
23.728652,1.2178991505118624,0.032651840410334615
23.733248,1.1566154233576629,0.030562643346193095
23.737832,1.0953316962034632,0.028486040284638553
23.742428,1.0331485346016158,0.026416126101663766
23.747008,0.9737858610568577,0.02433574673190675
23.751592,0.9158555022649583,0.02232573591371953
23.756188,0.8625445004254435,0.02031173414234061
