Time,Force,Position
17.975959999999997,2.035447087908808,0.046795744592527964
17.980548,1.9558861609247318,0.04659725280501347
17.985139999999998,1.8751814300647167,0.04641778321560175
17.989728,1.8020387289283213,0.04619235917683523
17.99432,1.7318387005631608,0.04591881489780661
17.998904,1.663804095235733,0.04553095595913841
18.003504,1.5902506985082725,0.04512771801496057
18.008096,1.5155534979048721,0.044748850720349204
18.012684,1.4397124934255332,0.04237927831934729
18.017284,1.3637493042320485,0.04001092882746403
18.021868,1.2876639303244182,0.03768279918921245
18.026456,1.2145212291880227,0.03535915031638406
18.031048,1.1461200697181577,0.03301768821993235
18.035648,1.079151225001152,0.030678514574986136
18.040252,1.0191334864370374,0.028294012710628657
18.044844,0.9622688882555595,0.025910154664540375
18.049436,0.9109333211058533,0.023579085352133582
18.054016,0.8722442173035839,0.021307295643535888
18.058612,0.8417485460591403,0.026011945838261826
18.0632,0.8289293907055836,0.03111892942382929
18.067804,0.8198064956716133,0.03691714626307463
18.072384,0.8225969557002057,0.04320139862643254
18.07698,0.8361128254667939,0.049690670998120495
18.081572,0.8631745930284667,0.05597572838074272
18.086164,0.9053367578522286,0.06223357344219285
18.090752,0.963254384957436,0.06850555004400495
18.095352,1.0399923318294697,0.07476918850890475
18.099944,1.1356727831824749,0.0808706060955853
18.104536,1.2427337092928323,0.08915713692228563
18.109124,1.3660388365412182,0.09740737199905308
18.113716,1.5050994260710495,0.10559757572018998
18.118304,1.6568506203969455,0.1138836312224408
18.122896,1.8201044741943395,0.12216782233615388
18.127488,1.9986589532334866,0.13032842908480932
18.13208,2.186462385809141,0.13843916661953207
18.136672,2.383059934881611,0.14652352290170215
18.141252,2.5797355272195994,0.15460780015462755
18.145844,2.769327589058812,0.16269615604745788
18.150436,2.959309867225611,0.16365566117166022
18.155024,3.139177659225143,0.16417165768602082
18.159632,3.3133059525815023,0.1640507991407824
18.164216,3.485536854513572,0.16334394890909812
18.168804,3.648474661460503,0.16249820568875398
18.1734,3.7990103744882893,0.16183744658369179
18.177976,3.9362445591492827,0.1612619173469827
18.182572,4.061321019319421,0.16074632938485472
18.18716,4.175916439179855,0.16022231139929713
18.191756,4.273612592882905,0.15990390190904658
18.196344,4.364914182923425,0.15935419225954223
18.200944,4.443691494330651,0.1588612497437724
18.205532,4.5067133434564335,0.15847882693171436
18.210128,4.561297390596098,0.1579796594389678
18.21472,4.603479343816619,0.15751238110079982
18.219304,4.6295834220618834,0.1572568845460177
18.223896,4.644228982284279,0.15707304241373748
18.228488,4.650647208131959,0.1569034101438178
18.233072,4.654811728044649,0.1566905761611034
18.237668,4.659464986813923,0.1564310567442331
18.242244,4.6574556503072255,0.15636088366461773
18.24684,4.657367367409969,0.15623643126365466
18.251416,4.659322322836299,0.1560480787375897
18.256008,4.653182368233798,0.15604470243475418
18.260592,4.648552771649674,0.15596277642899864
18.265172,4.639714513704231,0.15602349139760377
18.269764,4.634718362977669,0.1559770696855865
18.274348,4.627434604499229,0.1560202069970952
18.278936,4.621172465182583,0.15602918102415725
18.283528,4.618508063656529,0.15595564103109705
18.288116,4.616498727149832,0.15588502389827147
18.292716,4.618331497862018,0.1557106476598578
18.297312,4.623762006364793,0.15545465571706146
18.3019,4.63033631874351,0.15515809889836274
18.306504,4.645005541151056,0.15469008249005717
18.311092,4.6662151741204285,0.15406247428010797
18.315688,4.689223675985097,0.1533955529098173
18.320272,4.71378667731677,0.15271676709635454
18.324864,4.738349678648441,0.1520469807423923
18.329448,4.7630348646942595,0.15137553979473456
18.334056,4.794016091873613,0.15058106639418373
18.33864,4.82348696103459,0.14986910638261455
18.34324,4.848626984120101,0.14930116068222782
18.347828,4.875854386977829,0.1487262534254469
18.35242,4.905535723750208,0.14812606987553123
18.357016,4.945843947731587,0.1472665621032298
18.361612,4.985907802284676,0.1464429411446533
18.3662,5.031857002380233,0.14547444161158377
18.370792,5.077439648333354,0.1445526966741909
18.375376,5.125842782343565,0.14358783765618058
18.379964,5.175023166087278,0.14263414619119505
18.384548,5.223959180402699,0.14172294526768875
18.389148,5.273672444451621,0.14081609963163036
18.393736,5.321342470176959,0.1399707117710489
18.398328,5.360551031731029,0.13931187869920542
18.40292,5.39742784408459,0.13868353635731484
18.407496,5.440190001980624,0.13794577462074076
18.412088,5.483196529304949,0.13719810579864103
18.416676,5.527224675791066,0.13643896676351921
18.421252,5.568432334220096,0.13573633688260947
18.425864,5.60502063569674,0.13512617257117338
18.430448,5.642874925763469,0.13447860803877704
18.435052,5.685837311639165,0.13371922037382963
18.439644,5.733252728304472,0.13284895212585562
18.444244,5.780013079950423,0.13198836057794788
18.448836,5.818189782710959,0.13129848306592434
18.453428,5.856610854899787,0.13059978332402797
18.458024,5.892211439031529,0.12996038342501062
18.462608,5.926501893124555,0.12931569885097083
18.467208,5.9577274897322,0.12874406006411496
18.471792,5.986621337139337,0.1281893951197665
18.476392,6.012161816184177,0.1276699821371437
18.48098,6.035003991886072,0.1271882333356402
18.48558,6.062954263396934,0.12661223496067567
18.490164,6.0934365120879646,0.125958899567773
18.49476,6.122897141617203,0.12533039669997945
18.499352,6.141075818918084,0.12488116462796356
18.503944,6.15859943119961,0.12443090416148371
18.508548,6.170848621509392,0.12404169374028873
18.513144,6.186162669304557,0.12359478570741944
18.517732,6.200166587061008,0.12313615925982184
18.522328,6.2145370589598965,0.1226576080750317
18.526908,6.224532543334691,0.12222990363002435
18.531496,6.231829724366542,0.1218399493504177
18.53608,6.234629733160153,0.12150323671575011
18.540676,6.241638403315084,0.12108349076883645
18.545264,6.247092574003011,0.12067089379398696
18.549844,6.251769494957434,0.12026171508214868
18.554424,6.256324231197713,0.11986133676492536
18.559012,6.25956883739928,0.11944945611111431
18.5636,6.2626912588867,0.11904626153015493
18.568192,6.270433037326504,0.11858714603086774
18.57278,6.27956298907054,0.11808585370898379
18.577368,6.284728648881545,0.11765408321940121
18.58196,6.288628320102466,0.11725585681648132
18.586556,6.29162855687574,0.11686722724286562
18.591152,6.301413573639133,0.116377163349727
18.59574,6.30850028705958,0.11591669413718002
18.60034,6.319306922984766,0.11540881995611245
18.60492,6.329091939748157,0.11492222227998299
18.60952,6.343251944035641,0.11439859547348658
18.6141,6.352548221942449,0.11394602590831696
18.6187,6.362743934296905,0.11348454119080346
18.62328,6.372573092508924,0.11304917317773035
18.627876,6.385999988511535,0.11257615466761034
18.632464,6.396484211742911,0.11214853612135248
18.63706,6.40353702334647,0.11179359226496118
18.641656,6.41058983495003,0.111439267865505
18.646252,6.419441515448885,0.11106871418705111
18.65084,6.428171011233595,0.11070555201802014
18.655432,6.435878887856511,0.11035907480906139
18.660024,6.437046353917601,0.11009176226917226
18.664612,6.440667753893342,0.10981515946215153
18.6692,6.441346481097849,0.10958002526797278
18.673796,6.4439462619117975,0.10931989924605982
18.678388,6.4492443460686895,0.1090345465577076
18.682976,6.452377007187849,0.1087907379627594
18.687568,6.457841417507516,0.10854417172754911
18.692156,6.462939273684744,0.1083216225241957
18.696752,6.468037129861973,0.10810022814768229
18.701348,6.470070128553821,0.10792758131626412
18.705932,6.476600299483908,0.1077135794125352
18.710528,6.484684969880999,0.10749950742666538
18.715116,6.491992390544589,0.1072868313446629
18.719704,6.502120299265267,0.10704545491416116
18.7243,6.516867564938331,0.10675977040307713
18.728888,6.5377445455821555,0.10638347162866743
18.733492,6.560542579835424,0.1059873993202418
18.738084,6.578721257136306,0.10563734315832751
18.74268,6.602418725837221,0.10523864521252507
18.747256,6.629836117042872,0.10480525954002873
18.751856,6.661995049915054,0.10432048272313203
18.756436,6.690556244996645,0.10386910445883492
18.761036,6.720261243954175,0.10339378208009309
18.76562,6.751887296521145,0.10290246487381147
18.770216,6.783513349088116,0.10241678858176051
18.774808,6.817060455264528,0.10191291670028911
18.7794,6.850196865849875,0.10139048547448934
18.784,6.882023146396509,0.1008555124961967
18.788592,6.912172742761993,0.10032954725044249
18.79318,6.94563156604115,0.09975276695315925
18.797776,6.9794569434627425,0.09916156130964474
18.802352,7.013893244455064,0.09854317327172932
18.806932,7.052293837380414,0.0978857559093612
18.811528,7.087218877229317,0.09725515560064035
18.81612,7.11686949510648,0.0966606126512857
18.820716,7.146764482411934,0.09606251867432522
18.825296,7.173838981660299,0.09549195262598306
18.829888,7.206676641736987,0.09486749890380297
18.834468,7.23411769512779,0.09428465725431284
18.839056,7.261025868213381,0.09369499015119342
18.84366,7.282170880470648,0.09315816990246444
18.848252,7.30625856549915,0.09259399942904431
18.85284,7.335332161622475,0.09198147638555683
18.857432,7.35990858550756,0.09139926486522025
18.862012,7.381131641030344,0.0908275267391466
18.866604,7.400800197086123,0.09025692095693855
18.871192,7.421368187589552,0.08968407107972716
18.875788,7.4445122967217765,0.08910493121678348
18.880368,7.466634786692209,0.08853618420647968
18.884964,7.482871931120171,0.08802504519495821
18.889552,7.4973102066528385,0.0875270914654821
18.894152,7.509338689719481,0.08707322130203864
18.898736,7.514582392796006,0.08667978868933351
18.903332,7.519703911158385,0.08629337680595055
18.907928,7.525480494540121,0.08591392411320731
18.91252,7.528969470169978,0.0855714454918177
18.917112,7.536300553018719,0.08519977165615887
18.921704,7.541832766972163,0.08483987910194246
18.926292,7.546343361763815,0.08448970522518652
18.93088,7.546645295194147,0.08418828484346928
18.935456,7.5566746813858305,0.08380797206574858
18.940056,7.564783013968073,0.0834442575911284
18.944648,7.567661066027202,0.08313987729971284
18.949236,7.575036290324569,0.08281575943315268
18.953828,7.586664317431887,0.08248447621173857
18.958416,7.601645712901503,0.08215189103837434
18.963008,7.620102661447564,0.08181366896894376
18.967596,7.638559609993626,0.08147852455876516
18.972176,7.661513730777928,0.08112581048106712
18.976772,7.691907696571704,0.08073352626010448
18.981364,7.7246334115659865,0.08035090188470247
18.98596,7.758380745722063,0.07996031123957435
18.990544,7.796869621544668,0.07954057581096774
18.995144,7.8358913776724854,0.07913634829123876
18.999736,7.879410306038543,0.07871763316644456
19.004328,7.922029799956952,0.07830463325554998
19.008924,7.963872044141857,0.07789590704444503
19.013504,8.00636935334612,0.07749924842186556
19.018104,8.055407073112208,0.07707220582906292
19.022684,8.108653454239619,0.0766058361301007
19.02728,8.155237240091056,0.07618610198821514
19.031872,8.203742079551933,0.0757585319108692
19.036464,8.257477199535924,0.07528669181138227
19.041048,8.30965782005291,0.07481610439873933
19.045644,8.359506691369392,0.07434285025319518
19.05024,8.404447694856566,0.07386945955197301
19.05484,8.443992091657856,0.07341756148996066
19.059432,8.48312579286808,0.0729519129156387
19.064024,8.521970983201387,0.07246817684950146
19.068612,8.554886686543592,0.07199103496330653
19.073204,8.585959379541872,0.071488721272821
19.077784,8.616743561663235,0.07096560149425839
19.082376,8.645973244317595,0.07044011857371639
19.086964,8.675280970237472,0.069878001335295
19.09154,8.70172406665163,0.06929901761766044
19.096132,8.726857033027079,0.06870434574590466
19.10072,8.750191130507229,0.06811759887518237
19.105316,8.769516794605721,0.06752180521405247
19.109912,8.783568036732472,0.06693731357898203
19.1145,8.797863648287517,0.06634721525624902
19.119112,8.812403629270854,0.06574706884526654
19.1237,8.827310164396625,0.0651363067219852
19.128288,8.837597342570012,0.06454296974445449
19.132872,8.845963467133958,0.06395920360788211
19.137464,8.85522902614555,0.0633757007519658
19.142056,8.864128031014706,0.06280580747814157
19.146636,8.870573101969212,0.0622286867194683
19.151236,8.871665707686457,0.061693001179333365
19.155824,8.87137014009947,0.06118099135425458
19.160424,8.873528506427137,0.06067480040600248
19.165012,8.872133276412843,0.06020645918285633
19.169616,8.872048176437259,0.059756673185470614
19.174208,8.871718707033384,0.05931718623166124
19.1788,8.87077831405878,0.058902786096623104
19.183396,8.87000424724695,0.058517381825825235
19.187992,8.87348298324507,0.058137021528108734
19.192588,8.88055945703378,0.05775470855444418
19.19718,8.891888733632438,0.05737749336375358
19.201768,8.90591631357404,0.05699891275569219
19.20636,8.916512481887823,0.05665315488104623
19.210948,8.93046201856391,0.05631495351086913
19.215536,8.940980143612176,0.05600900954728657
19.22012,8.950354464784503,0.05571318613757134
19.224704,8.95972878595683,0.05541747183651116
19.2293,8.9718014104721,0.05512203023636601
19.233888,8.987471772777964,0.054824484971546135
19.23848,9.007517122607918,0.05452860306668593
19.243068,9.03381437212278,0.054196448609108425
19.247664,9.055858818827698,0.05385819966792746
19.252256,9.075082777475522,0.053527080847670674
19.25684,9.096472159161081,0.05318009889556622
19.261452,9.113486553322547,0.05283163926891418
19.26604,9.12882426330286,0.05247962999147085
19.270648,9.143262538835526,0.05212846440207566
19.275228,9.152304207682308,0.051778853239984574
19.279812,9.154028216233758,0.051436955700321585
19.28442,9.143570838109204,0.05111712963124342
19.289012,9.126450864708676,0.05081275525262306
19.293608,9.09984780797509,0.05052821733773393
19.298184,9.070913002040998,0.05022815841012548
19.302788,9.034005470792218,0.04992361409160228
19.307368,8.991701332857552,0.04961758898164561
19.311964,8.947353956599299,0.04931905904329877
19.316556,8.899941722855667,0.049033138522169645
19.321152,8.838182679398297,0.04878123519557535
19.325744,8.769883225379099,0.048538074929354406
19.33034,8.695698425817435,0.048312971373027015
19.334936,8.612441238513773,0.04812490307368618
19.339532,8.530494181248821,0.04795282873276566
19.344128,8.444582832050845,0.04779323153109643
19.348728,8.357527678976929,0.047640282795563364
19.35332,8.267285483703484,0.047504203557838263
19.357912,8.168992519849839,0.047401979188103065
19.3625,8.062893156844282,0.0473241693322151
19.367088,7.95859266273402,0.04724295445389944
19.371676,7.855724483376616,0.04717505837188411
19.37626,7.754166434057928,0.04712911588389228
19.380852,7.656328307243975,0.047075422281260576
19.385432,7.5638867871159094,0.047020045427344406
19.390032,7.469812724255322,0.046996142387796126
19.394608,7.376804422005156,0.047004585593315586
19.399196,7.2890705417267325,0.0470185517544438
19.403804,7.199415607838867,0.047037476718454714
19.408388,7.108616870075062,0.04706810666575538
19.412984,7.0214158701018485,0.04710257300946755
19.417564,6.935114304576283,0.04713592703392292
19.422152,6.849589988784219,0.04717654849478072
19.426748,6.769584464392188,0.047212533435125305
19.431336,6.685614648067128,0.047268101495514976
19.435932,6.606264188694454,0.04731736951317926
19.440512,6.522050002941104,0.047385178691876875
19.445112,6.437713632473608,0.04746135570498268
19.449692,6.364004149215112,0.047499740445761045
19.454292,6.297079445946734,0.047512586316554126
19.458888,6.227089885192977,0.047544710200035624
19.463488,6.155179270829777,0.04758454966926104
19.468072,6.088254567561398,0.04759913365601768
19.47266,6.014545084302903,0.04764139997943385
19.477264,5.93519462493023,0.04769811034998461
19.481856,5.85236861248111,0.047751484489919706
19.486456,5.76618923166969,0.04779294389408206
19.491052,5.675757048048323,0.047817079384206804
19.495628,5.586224298874602,0.04784160596758587
19.500212,5.49705810384332,0.047841524992643714
19.5048,5.412222754887501,0.047791187708343286
19.5094,5.323667483426947,0.047745774217336605
19.513992,5.231758843604092,0.04768168790947636
19.518576,5.1328990976283455,0.04759420639295065
19.523168,5.032484852185595,0.04748923790412135
19.527748,4.924508577019225,0.04740903670568957
19.53234,4.816654486567,0.04731878805090056
19.536932,4.709166950257212,0.047194906822525064
19.54152,4.591419080880861,0.04708697460378151
19.546112,4.468030235390331,0.04698848701505433
19.5507,4.3438641401663,0.04687791262175122
19.5553,4.215200872704029,0.04676627330334671
19.559892,4.08228480243181,0.04661205572507944
19.56448,3.949490916873737,0.04644879177729473
19.569072,3.8166970313156643,0.04628446241785031
19.573668,3.685946384081178,0.046085575365725696
19.57826,3.5568724210278417,0.04589572464368876
19.58284,3.427431903832068,0.045733630841840525
19.58744,3.2961925177409994,0.045561225231168956
19.592024,3.1647087622216397,0.04539899772349458
19.596616,3.0290163453409598,0.04528401975975462
19.601208,2.8941011781937824,0.045182539703552786
19.6058,2.759963260780107,0.04507969343121514
19.610392,2.6289343423004405,0.04504619234130493
19.614988,2.5016253463255107,0.04497948318115676
19.619584,2.377503392550107,0.044816272283957743
19.624176,2.2571013612794397,0.04461164092440506
19.628764,2.13735439502813,0.04441022810741061
19.63336,2.0209607971391206,0.04426172931260705
19.637948,1.9062438834312607,0.04413194267757117
19.642532,1.7933258386186965,0.043979604172559056
19.64712,1.6870703890821044,0.04170434399195729
19.651712,1.5811034504224317,0.039479425287083154
19.656304,1.4829429109146701,0.0372483036762249
19.660884,1.3913227819687348,0.035010250984279824
19.665476,1.3049770749945413,0.032798249072181936
19.670064,1.2243945288486717,0.0305768588921733
19.674652,1.1448336018645955,0.028345116129456498
19.679256,1.0696476624046134,0.026123786059964377
19.683844,0.9943395382304849,0.023910724082202697
19.68844,0.9237729557228874,0.02168769804199762
19.69302,0.8606462182247641,0.01945318217240661
19.697608,0.8036933371460301,0.017232027283610805
19.702204,0.7517263671621177,0.014964954996981404
19.706796,0.7013138966452099,0.01273469453076233
19.7114,0.6550320442241042,0.010583225432988813
19.71598,0.6085058223747074,0.008476095633552963
19.720576,0.5634119152781693,0.00639196132157954
19.725156,0.5249806034576029,0.004260995370457029
19.72976,0.4930897021988629,0.0021166735456089932
19.734348,0.46491872344486,0.0
19.738944,0.43511520195833525,0.0
