Time,Force,Position
18.394136,1.6321333832363087,0.047843841932905445
18.39872,1.538592200680932,0.045375851937990236
18.403316,1.4460726372873491,0.04287000743717077
18.407896,1.359438419436236,0.04033988350890731
18.412488,1.2791002427186577,0.037800964730604396
18.417076,1.1963522735350554,0.03527644394252414
18.421664,1.1149144343901656,0.03276956970992834
18.42626,1.0320103786755286,0.030301508128700548
18.430844,0.960965296943087,0.027781629914160756
18.435432,0.9014567764990324,0.02520370362235463
18.440024,0.8527958505071193,0.022670324985867428
18.444624,0.8110182270343186,0.02016188976789248
18.449216,0.7818870669089548,0.02565959944112066
18.453796,0.7645029356833801,0.03151650650809047
18.458396,0.7547793567104204,0.038098126227613785
18.462984,0.7580687952273346,0.04466964227260631
18.46758,0.7797678579200097,0.05097290396148306
18.47216,0.818854925626652,0.05707360175950727
18.47676,0.8665019800335575,0.06345890961037737
18.481344,0.9327249847789975,0.06973968710300234
18.485936,1.0163359945384052,0.07835949925695519
18.490544,1.1199111279405778,0.08678576945237586
18.49514,1.241773700804366,0.09505372334011063
18.499736,1.3746501942830693,0.103355670384429
18.504328,1.5171082936238287,0.111750463096836
18.508916,1.6801414401780819,0.12000234662508359
18.513512,1.8566763430787914,0.12815549921389024
18.5181,2.048956468629208,0.1362417608465066
18.522684,2.24246868095282,0.14434974288592656
18.527264,2.4334828179131516,0.15245512603527409
18.531856,2.615736740193558,0.16062358007297767
18.536452,2.7920067944024987,0.168778973010095
18.541032,2.9532205927979787,0.1691179963073529
18.545624,3.1109044570366455,0.1689820178305074
18.550212,3.2683676140321714,0.16801409956012087
18.554804,3.4184587296520026,0.16696659675923825
18.559388,3.560400554162636,0.166021186565299
18.563968,3.6903509803451886,0.16524974686108646
18.568556,3.8167714723709287,0.16419238775227304
18.573152,3.9333659891063215,0.16324528294825086
18.57774,4.040256715265512,0.16237342221853177
18.582336,4.134378793363121,0.1616742449170809
18.586912,4.214832788951499,0.16113338392331591
18.591512,4.287748417001407,0.1604734898419792
18.5961,4.356601230589293,0.15961029210542255
18.600696,4.414362080296746,0.15883251636987014
18.605284,4.458865543086033,0.1581838096644397
18.609884,4.495918921234109,0.15755638219015744
18.61448,4.52552221474097,0.1569260738230942
18.619068,4.552505248170406,0.1562907122418648
18.623656,4.585373627142311,0.1554889532085074
18.628248,4.620040875009512,0.15465350187952243
18.63284,4.660349098990892,0.15365507377586457
18.637432,4.698736269362829,0.15273400657296388
18.64202,4.734180766963533,0.15191907390573017
18.646616,4.7715463181736775,0.15106597563045368
18.651196,4.804825392736648,0.15034222746413825
18.655792,4.841702205090211,0.14954322449758872
18.66038,4.872405161024385,0.14887203184634745
18.66498,4.900531998329761,0.14825577360756872
18.669572,4.925838347578048,0.1477168547501231
18.674152,4.951144696826336,0.14718189196507606
18.678744,4.977228295808125,0.14664057048582577
18.683324,4.998448168409238,0.14622859036838162
18.687908,5.012472565429166,0.14596811074135746
18.69252,5.024820278267945,0.14573720060335477
18.697108,5.040110663877959,0.1454312822592298
18.701704,5.051925496411526,0.1451879523926693
18.706284,5.065417013126245,0.1449193112871007
18.710872,5.0800523337169015,0.14461422027182205
18.715464,5.0908455470886755,0.14440620434871473
18.72006,5.09743009909913,0.14432033316763515
18.724652,5.1043812052520225,0.14420441916275806
18.729232,5.113497734442645,0.1440269168585261
18.733832,5.123269328652626,0.14385538530065892
18.738424,5.130098250091373,0.14375535811154438
18.743028,5.140358583157934,0.14354517670068012
18.747616,5.148164982309845,0.14336508018640873
18.752216,5.161490172861787,0.14307816642801882
18.756808,5.178413101204322,0.14273190015437806
18.761404,5.198689397909156,0.14234727159149352
18.76598,5.217944075452198,0.14198911511110324
18.770576,5.238586926299471,0.14158005796169854
18.775172,5.262172449917976,0.14110311701957554
18.779768,5.291154580222373,0.14053402151706165
18.784356,5.318215656917328,0.1400066503361022
18.788948,5.340535191945751,0.13957536732511466
18.793528,5.367351899212412,0.13907119894557815
18.798124,5.39519022564087,0.13854608125204007
18.802712,5.42290636735518,0.13803799106072354
18.807308,5.45098906321193,0.13750447001960453
18.8119,5.487244712363025,0.13678160014003718
18.81648,5.521457123190533,0.13611334958163734
18.821072,5.552482491818518,0.13553781784783847
18.825652,5.581708991551204,0.13499305191513783
18.830232,5.615677032950421,0.13436707809007703
18.83484,5.650300139368996,0.13375788619571571
18.839428,5.689786972168246,0.13306579001098187
18.844016,5.727474936072201,0.13240999017590682
18.848612,5.761565162185563,0.13181567430195024
18.853208,5.790625335755477,0.13127629854887268
18.857804,5.820951497915473,0.13069910547081248
18.862396,5.8501338561995295,0.13015948840879443
18.866988,5.879194029769444,0.12963222587482318
18.871568,5.905555899996412,0.1291477506406152
18.876168,5.932939389385171,0.1286411506329887
18.880752,5.965308789868757,0.12803624312583997
18.885356,5.9953464411518365,0.1274517509893434
18.889948,6.026650081024997,0.12683833319763432
18.894544,6.057298655878803,0.126225398723082
18.899124,6.08398293879958,0.12568373824337747
18.90372,6.105148430320326,0.12523165147997026
18.908328,6.128601529592951,0.12472643688413226
18.912924,6.148945629931563,0.12423180782223982
18.917508,6.171699522736202,0.1236755044240812
18.922104,6.187502309387949,0.12319675813162309
18.92668,6.201628411858546,0.12273672577813549
18.931276,6.20794811517723,0.12240843832944974
18.935864,6.214512187924208,0.12206544257907147
18.94046,6.220299010937682,0.12172486279225522
18.945048,6.227884702846452,0.1213620306857652
18.94964,6.234693145021718,0.12100320940025681
18.954236,6.240724337463485,0.12064794512142417
18.958824,6.247244268761832,0.1202618467245749
18.963408,6.252986950326678,0.11987790694480664
18.967996,6.260772870215112,0.11945880938869585
18.972584,6.267414986227604,0.11906904304214744
18.97718,6.272136048630655,0.11870851386015384
18.981768,6.273503742671407,0.11837424815846846
18.986356,6.272173133369215,0.11806976388425526
18.990948,6.276727869609491,0.11767359752594582
18.995536,6.276296694754947,0.11735712733097901
19.000132,6.273577912148524,0.11709378496844296
19.004724,6.274090313190258,0.11681403157692208
19.00932,6.27153785674661,0.11658867176098538
19.0139,6.272460953379406,0.11633133605042296
19.0185,6.273506234726349,0.11606709367016523
19.023076,6.280681231044053,0.11569707690944515
19.027676,6.286712423485818,0.11535386298729683
19.032268,6.294786854251169,0.11497655013845426
19.036864,6.303882904178313,0.11458340335077032
19.041448,6.312856769391314,0.11419908578318476
19.046036,6.3230966231944,0.11378390718806242
19.050636,6.330393804226251,0.11341260429128698
19.055228,6.33883478913404,0.11301678681500332
19.059816,6.348297393203625,0.11260887864616083
19.064404,6.359148170577439,0.11216460165936917
19.068992,6.369343882931895,0.11171267466024032
19.073572,6.380194660305711,0.11126832139201749
19.07816,6.394110295164905,0.11077554237265497
19.082744,6.406471430557096,0.11029003302572296
19.087336,6.427538399548845,0.10968976943437202
19.091916,6.450115726558971,0.10904590387359159
19.096508,6.473303977139823,0.10836842493016437
19.101096,6.496736597148968,0.10767487809173625
19.105684,6.519391967424611,0.10698529011249565
19.110288,6.53934903435731,0.10632139957884232
19.114876,6.554442374909335,0.10572408242657488
19.119464,6.571046073479734,0.10508435603103891
19.124056,6.586505968174194,0.10447035347534929
19.128648,6.601066428421006,0.10386688434323442
19.13324,6.616648507829612,0.103250691733583
19.137828,6.63186403309578,0.10266065025829199
19.142428,6.651576730600189,0.10203513816376436
19.147008,6.674764981181043,0.10139401850501124
19.151608,6.693211690095366,0.10080712943959698
19.156196,6.7083491720960176,0.10028046032825604
19.160784,6.729416141087767,0.09972969478613491
19.165376,6.750893805670581,0.0992021719317705
19.169968,6.774581034739758,0.09868890825950948
19.17456,6.798434589971707,0.09821531094163627
19.179152,6.821266526041862,0.0977635036633092
19.18374,6.845652961579023,0.09731828866857031
19.188336,6.872493331030835,0.09687441021310308
19.192924,6.902931438273239,0.0964093651310823
19.197508,6.936845098592089,0.0959319724650068
19.202096,6.9729683233973,0.09546327096781082
19.206696,7.013466535726603,0.09497316821167652
19.211288,7.051432770875737,0.09453839752146243
19.21588,7.093118928529608,0.09407894767436242
19.220476,7.139180073707573,0.09360407646706256
19.225064,7.186140653333185,0.09312940560134117
19.229656,7.231180179349357,0.09267421356766782
19.23424,7.274420836470232,0.09223576373320497
19.238836,7.317539308876962,0.0918129605913505
19.24342,7.364255519074282,0.09137042032328868
19.248,7.414813836490486,0.09089631054151723
19.252604,7.463162589420329,0.0904219902831581
19.257196,7.514043319530343,0.08990500839116959
19.261784,7.562347931011558,0.08940324960410592
19.26638,7.6106084010441455,0.08886792182567453
19.270972,7.657314371609728,0.08833756084513235
19.275576,7.69927880050878,0.08784635206637026
19.280152,7.736623872455447,0.08738945414177487
19.284752,7.7724144449351105,0.08693558755071366
19.28934,7.800110107385943,0.08652350900834621
19.293944,7.828538878121649,0.08607754006462764
19.298532,7.858722376304022,0.08559267814739976
19.303132,7.892215101400067,0.0850672449662105
19.30772,7.918267981486639,0.08458946769352209
19.312312,7.938147005153821,0.08413871165943396
19.316892,7.956349344639853,0.08369311837988751
19.321488,7.979781964648999,0.083195556017321
19.32608,8.007423246019464,0.08265952154312926
19.330676,8.031711159027628,0.08213208484525356
19.335264,8.055588376444728,0.08158968042620886
19.339852,8.077256029375468,0.0810397781869285
19.344432,8.098024247858557,0.0804979452067303
19.349024,8.115849793570414,0.07998178262821773
19.353616,8.131343590081762,0.07945999168350745
19.358208,8.14467196355538,0.07896347360448185
19.362804,8.158655402048353,0.07847784888837987
19.367392,8.175825882740853,0.07796047687542544
19.371984,8.194140167309293,0.07742923665652234
19.376564,8.211310648001792,0.07691456433051898
19.381156,8.23976308092265,0.07634262944686654
19.385752,8.271036001900596,0.07576262883293425
19.39034,8.296057023193633,0.07524278662614667
19.394924,8.322876913381968,0.07472338941861101
19.39952,8.355459964398626,0.07417046248794075
19.404104,8.389964069024728,0.07360704232545455
19.408708,8.426267042546124,0.07304187845351788
19.413288,8.457339735544405,0.07252705742221403
19.417884,8.479584410228982,0.07207088805104898
19.422472,8.499130781570619,0.07162256276199684
19.427072,8.517288979608022,0.0712000271787679
19.431652,8.53982216516952,0.07077478202233377
19.436252,8.559046123817346,0.07038361875212915
19.440844,8.576349028855729,0.07000249592224422
19.445436,8.597005302256415,0.06962363331469419
19.450024,8.61958262926654,0.06923612660995655
19.454616,8.641382706543164,0.06884845673699047
19.459208,8.66306059910564,0.06846857527876912
19.4638,8.687558979725207,0.0680800702174439
19.468388,8.713978413954216,0.06768453839573804
19.472976,8.729115895954868,0.06733672361039118
19.477564,8.741432889898428,0.06700333052254674
19.48216,8.757836360489165,0.06664270967015169
19.486744,8.771419343022812,0.06629601129342505
19.491328,8.78639049886069,0.06593105215825068
19.49592,8.804548696898093,0.06554400851523841
19.5005,8.821929645201998,0.06515635939365623
19.505092,8.843641439581363,0.06473495821382087
19.509684,8.869561895322049,0.06428205695872824
19.514272,8.899979523300976,0.06382247465998682
19.518864,8.931663139869986,0.06334882543784155
19.523452,8.95795014975311,0.06288840538395302
19.52804,8.987912940692345,0.062386084375740426
19.532628,9.025149250478277,0.06184003563881664
19.53722,9.059398746044346,0.06127821511151878
19.541816,9.094914230200501,0.06070543673363181
19.546396,9.126054726832564,0.06013448909830028
19.550992,9.160260080950007,0.059551503379695885
19.555572,9.191889316438651,0.05897170834127606
19.560172,9.22004299885085,0.058393544751935866
19.564764,9.257801949310254,0.05778384545074371
19.56936,9.290819358103128,0.05718870943120512
19.573944,9.320239029105412,0.05659974887879963
19.57854,9.3470825814789,0.05601020561103081
19.583128,9.371638526100506,0.05544578037303773
19.58772,9.386100463818323,0.05493004792313117
19.592308,9.396720294317257,0.05442664294030726
19.596896,9.400433160111929,0.053951816122944675
19.601484,9.400958983707072,0.05349674194594117
19.606068,9.395966015902186,0.05304956300876072
19.610656,9.38610932171662,0.052618163372255326
19.615252,9.372166150883883,0.052205178439215884
19.619844,9.354913753137472,0.051816401724013354
19.624432,9.329366217382569,0.051473255811318445
19.629024,9.303862823076292,0.0511604059247371
19.633604,9.272229713799257,0.050876317055220686
19.638196,9.244971592046314,0.05059327668453595
19.642784,9.207986017532019,0.05033971486403133
19.647368,9.165115097475253,0.05010368620359418
19.65196,9.11905713521896,0.049884408974075437
19.656552,9.062494470467813,0.04968860530848115
19.66114,9.005565251574229,0.04950467106136922
19.665732,8.944427371319327,0.049342372950219975
19.670328,8.87805921054131,0.04920697391839603
19.67492,8.804906269773173,0.04908977289186746
19.679508,8.738660293709305,0.04894553147481493
19.684108,8.672292132931286,0.04880355658480073
19.688688,8.603880733829685,0.048669464917817075
19.693292,8.537390388337524,0.04852789501385703
19.69788,8.472576727026512,0.04838850264361007
19.70248,8.408540315449,0.048251970525928056
19.707064,8.345403338319139,0.04811338825223931
19.711656,8.277280450094453,0.047993076839541876
19.716264,8.205437639365034,0.0478761676868528
19.720856,8.128731102254935,0.047774383180802016
19.725456,8.051247315411334,0.047664865281382064
19.730056,7.96775599831112,0.047579521724476576
19.734644,7.884919746230262,0.04750378566200077
19.73924,7.802494189740468,0.04744871818062295
19.743828,7.723666371041266,0.0473922623834136
19.748416,7.646393051809068,0.04734509224973125
19.753004,7.568342482843368,0.04729120623613575
19.757596,7.491191348325316,0.04723660218030092
19.762192,7.415061832969058,0.0471759738402066
19.766784,7.337910698451006,0.04712066153814133
19.771376,7.2539747839428355,0.047085294441380224
19.775956,7.1697945000063745,0.047060066945059306
19.780552,7.088312519412857,0.04703472351644892
19.78514,7.001844627724517,0.047031325472254276
19.789728,6.910513009655501,0.04704483867943706
19.794332,6.81738252269119,0.04705648383291415
19.79892,6.725151470174527,0.04706654589195733
19.803528,6.635740905714952,0.04707148996918393
19.808124,6.547229775703026,0.04707641527011664
19.812728,6.458185765385889,0.047062203911515006
19.817316,6.367753581764521,0.04707411451991108
19.821904,6.274745279514356,0.04707971951874739
19.8265,6.180060293083039,0.047078982117276666
19.831076,6.085741860794161,0.04705791346633749
19.835676,5.982961964334015,0.04705781258586032
19.840264,5.87454109175969,0.04707419396980044
19.844864,5.765098600023572,0.04709665901983642
19.849452,5.6557782930016,0.047110065946653824
19.854044,5.547357420427274,0.047123553957479275
19.858628,5.440979786176537,0.04712127374092244
19.863228,5.339221508878183,0.04710985000602319
19.867816,5.234887112951032,0.04708750868587853
19.872412,5.125033925623848,0.047073120310614454
19.877012,5.014403488563163,0.0470508274390845
19.8816,4.9038952362166235,0.04702038462040283
19.886192,4.7914659302606415,0.0469953019111428
19.89078,4.669797910399891,0.04698528743792285
19.895372,4.5463310216438435,0.046973982191732946
19.899964,4.421964698440149,0.04696123959761385
19.904548,4.298375624969957,0.0469549234466064
19.909144,4.1722104328709655,0.04694509223149
19.913732,4.048621359400773,0.046949376487054176
19.918312,3.9232334170352847,0.04695227014023834
19.922912,3.7958022363462094,0.04697828485408219
19.9275,3.6741342164854585,0.04697177909239674
19.932084,3.5564304885577354,0.046929583141544426
19.93668,3.4380716956106556,0.04684744319607955
19.941268,3.3147269915687545,0.046825697883241466
19.945864,3.186885115288614,0.04679926260792839
19.950448,3.0552011317895906,0.04680134118635726
19.955036,2.917876172176389,0.04683570715592076
19.959636,2.7767091053443043,0.04690829177267632
19.964228,2.6386068959976003,0.04690947007627147
19.968824,2.502547924974483,0.04683973644903219
19.9734,2.3676327578273053,0.046684808324108096
19.978004,2.233739209841921,0.04646773430470502
19.982588,2.1080627565995136,0.04622132804164275
19.987188,1.9816090536236035,0.0458791525601357
19.991776,1.854910981219402,0.043542985698747434
19.996376,1.7271912896534072,0.0412090015464766
20.000972,1.6042131397539432,0.03886443532491421
20.005564,1.4785366865115352,0.03650696048361236
20.010156,1.3571130360790753,0.034151987049829455
20.014752,1.2368331895225546,0.03178288641018574
20.01934,1.1137328549089447,0.029431411461049217
20.023932,0.9943579369618905,0.027099571046785655
20.02852,0.8810346907200803,0.02480825727372101
20.033104,0.7770723430971855,0.022466249066469338
20.037692,0.6837755299701005,0.02012964324229971
20.04228,0.5995952460336396,0.017774826307538415
20.04688,0.5201619979255282,0.01539773585894369
20.051476,0.4498452790080411,0.012993727982551594
20.056068,0.3846807973481497,0.010653563720505495
20.060656,0.3237691184982063,0.008386231298054256
20.065248,0.26800967690585853,0.0062061400721291175
20.069824,0.21752465728525236,0.004090381218244272
