Time,Force,Position
20.305108,0.013880203221734862,0.0
20.309688,0.011846944089017462,0.0
20.314288,0.008792065794506539,0.0
20.318876,0.007526077204421672,0.0
20.323475999999992,0.011123814995013078,0.0
20.32806399999999,0.014300878003669672,0.0
20.332655999999997,0.014535268241091368,0.0
20.337236,0.018367396269104472,0.0
20.341832000000004,0.022199524297117575,0.0
20.346432,0.026153837039276352,0.0
20.351027999999992,0.02591944680185465,0.0
20.35561599999999,0.026808902058632855,0.0
20.360204000000003,0.02644234791619584,0.0
20.364792,0.028285358260119693,0.0
20.36937199999999,0.03204942221348492,0.0
20.373968,0.04067721254752642,0.0
20.37856,0.05313713090958102,0.0
20.383155999999996,0.06727373345278564,0.0
20.387731999999996,0.08206540101534679,0.0
20.392328,0.09751213359726445,0.0
20.396916,0.11553498480797998,0.0
20.401504,0.13499015077155418,0.0
20.4061,0.15293495871675222,0.0
20.410676,0.16974594197688067,0.0
20.415276,0.18798923998986783,0.0
20.41987199999999,0.20742048332742236,0.0
20.424460000000003,0.23506882140795315,0.0
20.429056,0.25977448671724906,0.0
20.433648,0.28219254427466667,0.0
20.438252,0.30297805909956227,0.0
20.442832000000003,0.33299230863835816,0.0
20.447432,0.3636716023873803,0.0
20.452012000000003,0.3932070922604631,0.0
20.456612,0.42184314768589815,0.0
20.461204,0.4483137800736004,0.0
20.465799999999994,0.4706979358141286,0.0
20.470384000000003,0.4910388532310697,0.0
20.474979999999995,0.508437097876776,0.0
20.479584,0.5268569616842756,0.0
20.484171999999997,0.5440108369016906,0.0
20.488768,0.5626411683205923,0.0
20.493363999999996,0.5820928909216243,0.0
20.497955999999995,0.6028547435613694,0.0
20.502543999999997,0.6267697365837515,0.007451528394484937
20.507136,0.6439440910646438,0.007451528394484936
20.511723999999997,0.6643496291936908,0.015677638710433008
20.516304,0.680957201552483,0.024180798213072827
20.520887999999992,0.6991634148269077,0.0328821750683014
20.525484,0.7252643101505,0.041428265852327624
20.530064000000003,0.7566837688944618,0.05004200399398702
20.53465599999999,0.7850825116016711,0.058810095836051894
20.539244000000004,0.8140582760627196,0.06776878353306931
20.543823999999997,0.8455321158870485,0.07690510330673195
20.54842,0.8804034655223055,0.08597726845636426
20.553012000000003,0.9163847172166123,0.0953358294092586
20.55760399999999,0.9621817045695279,0.10422089420987574
20.562188,1.0080669748196998,0.11339612371626295
20.56678,1.0627463615666872,0.12227097747596544
20.571372000000004,1.1213561384298134,0.13104670292062917
20.575963999999992,1.1865504673033944,0.1396469337086885
20.58056,1.2479807322236098,0.14833561563288405
20.585148,1.3102662901428455,0.15691378833477138
20.589744000000003,1.3772933897286113,0.16536512591978966
20.594332,1.4431325439898097,0.16639743424587372
20.598932,1.5188213357265061,0.17457644278817477
20.603524,1.593366323587264,0.17456674942306313
20.608116000000003,1.6704432886281912,0.17415705627754843
20.612695999999996,1.7464544930586967,0.1735792874342069
20.617292,1.8193125571065654,0.1730780419897122
20.62188799999999,1.8909385343812386,0.17241170995160868
20.626484,1.9614987510454902,0.17162105802259786
20.631072,2.0340580645847006,0.170513868119539
20.635664,2.1105375286083112,0.1690220076532913
20.640252,2.183497298106848,0.1676192404995981
20.644844,2.257512588584068,0.16581108218450633
20.649424000000003,2.3229781319927634,0.1644764200216917
20.65401599999999,2.3906430002560812,0.16268775461725685
20.658612,2.4479592525555787,0.1613120554235871
20.663195999999992,2.4976251922342008,0.16013872076949798
20.667792,2.542339122634891,0.1590888926192412
20.672372000000003,2.5879083460345997,0.1578804578861137
20.67696,2.6294691360526525,0.1568145470875415
20.68156799999999,2.667876785688068,0.15576814773898162
20.686156000000004,2.7041529141026404,0.15462654320347172
20.690752,2.7316349260203974,0.15377646873977024
20.695339999999995,2.7572297861456025,0.15279484590766285
20.699927999999996,2.7763622789744993,0.1519907630756968
20.704524,2.7956949997830582,0.15104984134428268
20.709116,2.8092204183146663,0.1502731362202058
20.71372,2.821557891521706,0.14948588713264285
20.718296,2.835239396584348,0.14849607117161037
20.722896,2.8434801535124743,0.14761549961301434
20.727484,2.84141643592541,0.1470532599225472
20.732083999999997,2.841351815213304,0.14629121646706514
20.73667199999999,2.835890587815311,0.14571764046889402
20.741272,2.8271981767691634,0.1452076800901181
20.74586399999999,2.8141307781989227,0.14483300623886566
20.75046,2.8070709098852973,0.1441766720001072
20.755052,2.8063851259707246,0.14319123083238275
20.759644,2.800180550656119,0.14239694160195088
20.764232,2.7920549217320723,0.1416823526755534
20.768832,2.785073096683964,0.14089705940629688
20.773419999999994,2.7750264141504757,0.1402575970048903
20.778016,2.7657569813504894,0.13960277904259602
20.782604,2.757020428855714,0.13897052773860377
20.787192,2.7462406380373516,0.1384314852633417
20.79178,2.740979638619022,0.13769426377253746
20.796384,2.729588924229932,0.13724643686620996
20.800976,2.7237170012408733,0.13659523211691182
20.805564,2.7147802207664347,0.13608996525279737
20.810156,2.6986921061594416,0.13592909500116232
20.814736000000003,2.6792947646387764,0.13596980638419115
20.819332,2.663372976194557,0.1359115392531059
20.823916000000004,2.6438975914083747,0.136084882278758
20.828504,2.6300631827363703,0.1360213409662553
20.833108000000003,2.62228044576961,0.13577655450605855
20.837696,2.615152773822206,0.13553947173841524
20.842288000000003,2.607902917160656,0.13531908482387367
20.846884,2.595422779975993,0.13535417130429403
20.851471999999998,2.590382487800804,0.13512286165433282
20.856068,2.5880404989685584,0.1348067829833766
20.860660000000003,2.585698510136314,0.13449060410424707
20.86525199999999,2.5878536935423075,0.13403751058960967
20.869831999999995,2.5910746375587226,0.13364870994928718
20.87443199999999,2.5949506465944947,0.13326930262251105
20.879020000000004,2.602712904297778,0.13285208420541433
20.88362,2.607288119801535,0.13259678895057397
20.888212000000003,2.6212242339242073,0.1320198356688372
20.892807999999995,2.633772174742649,0.1315551077428053
20.8974,2.6495512992092447,0.13104120885303971
20.901996000000004,2.674569137580611,0.13022760807746953
20.906584,2.71152399319969,0.12904951771521345
20.911179999999995,2.7528538363428634,0.12778307289746146
20.91577999999999,2.7940614947718903,0.12650963197378198
20.920376,2.831837741573101,0.12545036480824023
20.924964,2.865527511727137,0.12457542224891906
20.92956,2.900771781348176,0.12369771107318932
20.934148,2.9336062585031923,0.12298406400901962
20.938731999999995,2.9681174198393583,0.1222369145316401
20.943319999999996,3.003405830909027,0.12152612882248282
20.947911999999995,3.036651003655108,0.12090564985577956
20.952496000000004,3.073371729477635,0.12023667039781236
20.957075999999997,3.1082935864048657,0.11963392035723992
20.961668,3.14538086636983,0.1189625563547338
20.96625199999999,3.1815687118871456,0.1183035359992618
20.97082799999999,3.21530262348981,0.11768325786525075
20.975424,3.2492809045207647,0.11703032849982364
20.980011999999995,3.2787620133134805,0.11650206223807659
20.984599999999997,3.306688622639192,0.11598190621526648
20.989203999999997,3.335103970821486,0.11541143353400779
20.993791999999992,3.3626198845561324,0.11489124179091922
20.998383999999994,3.3821630729760934,0.11453855583286449
21.002971999999996,3.3991301427672567,0.11423270420321839
21.007572000000003,3.4221047428150357,0.11376249507988843
21.01216399999999,3.4440135822523934,0.11323420293850402
21.016764,3.467432779708127,0.11261245477980922
21.02134,3.4874986088015607,0.11202958427215748
21.025944000000003,3.5053548734086335,0.11143694555166525
21.03053599999999,3.5226782577104956,0.11082101493580548
21.035127999999997,3.5356266544882633,0.11028317967451086
21.03972,3.5489416054084684,0.10970306242042403
21.044312,3.558003753518726,0.10918367399913795
21.048916,3.5664108366096268,0.10865573642183465
21.05351199999999,3.568766247995284,0.10821136412666962
21.058100000000003,3.5734092671328193,0.10768107094082031
21.062695999999995,3.5776415906792893,0.10711006517322624
21.067283999999997,3.580852295063966,0.10656702165888277
21.071868,3.582508499981638,0.10602457076940469
21.076456,3.587351747098837,0.1053846216750226
21.081056,3.5870427569584398,0.10480443502177278
21.08563999999999,3.579005410931649,0.10431358634283229
21.090231999999997,3.5709680649048585,0.10382028009794693
21.094828,3.562520023287003,0.10328574197523278
21.099416,3.545977071640317,0.10287688302726777
21.104008,3.5322546080507196,0.10240910716784868
21.10858799999999,3.5205753827847093,0.10188646109831567
21.113179999999996,3.5083632772134883,0.10133012618945753
21.117776,3.4943523027469716,0.10079431773646044
21.122364,3.478909013527596,0.10023934221422307
21.126952,3.4625662898605722,0.0996937307551819
21.131548,3.445568501174192,0.0991297621274441
21.136136,3.424484235840638,0.09867237007800472
21.140731999999996,3.398536244126408,0.09832496354511897
21.145312,3.3763081749169155,0.0979005624937085
21.14992,3.3543244751357135,0.09744145608683007
21.154508,3.331074786764427,0.09703412313962732
21.159108,3.3102348908591646,0.09652418838590561
21.163688,3.2932371021727844,0.09592878076550573
21.168292,3.272930086572733,0.09544038234555277
21.172884000000003,3.2549548201731877,0.09495084474893632
21.177472,3.2391891182600023,0.09447387189683597
21.18205199999999,3.22252398189917,0.09400572695811836
21.186643999999998,3.2025496186246665,0.09364589789296504
21.191247999999995,3.1878496773219034,0.09321884947902964
21.19584,3.17290536659085,0.09281930983054827
21.200432,3.156939436698002,0.09244425606943903
21.205024,3.147924612958046,0.09200226131778744
21.209612,3.144184211189831,0.09150220345840439
21.214204,3.1425311891938317,0.09103812743850084
21.218783999999992,3.1444759049884237,0.0905289545461139
21.223368,3.146709131659935,0.09007937384434118
21.227963999999997,3.155604953607418,0.08950225161367673
21.232548,3.171940620564376,0.08880027242876645
21.237143999999997,3.1857443103411645,0.08821064284795134
21.241731999999992,3.198814891833078,0.08771486375463075
21.246328,3.2163826455632307,0.08716686532461063
21.25092,3.2323178565608623,0.08672120017454876
21.255508,3.2493188281689154,0.08635209160037952
21.260116000000004,3.2700397222817053,0.0859321207091332
21.26470799999999,3.292970180880856,0.08553653311181172
21.269296000000004,3.321297246165894,0.08508317160033545
21.273887999999992,3.3529776798132316,0.08461931178514387
21.27847599999999,3.390054720146457,0.08409381338012296
21.283072,3.4259879566037426,0.08361669446195048
21.287664,3.4614324542044455,0.08319876176572567
21.29225999999999,3.4983092665580076,0.08281495114634406
21.29684799999999,3.531343971692687,0.08250897809960955
21.301448,3.5651559265608683,0.08221644006270681
21.30602799999999,3.601666184771993,0.08190563876227593
21.310628,3.637932073554827,0.0816294072107595
21.315223999999997,3.6744423317659516,0.08132781521112796
21.319824000000004,3.7145503277676677,0.08101174275164978
21.324408,3.7554355735028864,0.08071535937941446
21.32900399999999,3.801306730332927,0.08033722740739656
21.3336,3.847544441305405,0.07992809708600473
21.338196000000003,3.8946815867255298,0.07952746751721929
21.342792,3.9429625360215947,0.07909780321610996
21.347391999999992,3.986990682507711,0.07868589383464093
21.351983999999995,4.026399472041442,0.07832374778876774
21.356576,4.0697284120595745,0.07784284192281964
21.361163999999995,4.110603418163054,0.07737047671172799
21.365748000000004,4.153766032018412,0.07685625606302625
21.37033999999999,4.19357527751147,0.07635071344077334
21.374931999999998,4.231707838823378,0.07584758318183012
21.379524,4.26775302036307,0.07530729828803488
21.384111999999995,4.298523779931022,0.07479336954398728
21.388708,4.331704331964997,0.07422462130360082
21.39328799999999,4.360632081189024,0.07366664380796425
21.397879999999997,4.382608724260161,0.07313401361326517
21.402464,4.401354183683143,0.07259348000086221
21.407052,4.421243446982063,0.07203015851487564
21.411656,4.432138365804506,0.07152458674574383
21.416248000000003,4.437881047369352,0.07103233174106006
21.420836,4.435651003619514,0.07057410010173074
21.425419999999995,4.431744275688525,0.0701153573611489
21.430012,4.42382911437588,0.06964106240629908
21.434616,4.412560584700935,0.06916198613156291
21.43921199999999,4.401536424454282,0.06865983963961285
21.443803999999997,4.38985719918827,0.06813621020295021
21.448395999999995,4.3702493900562045,0.06770969587411034
21.452992,4.348187647009485,0.06727188396154181
21.457584000000004,4.317542255077353,0.06690948035072841
21.46218799999999,4.2899617206305996,0.06650054626694366
21.466776000000003,4.261848305878638,0.06605963614393572
21.471376,4.237332628917266,0.06560088973491411
21.475959999999997,4.213061321384185,0.06511477042842044
21.480552,4.179839810823254,0.0647307159842206
21.485151999999992,4.1477621041382635,0.06431605523437141
21.489743999999995,4.1155622127391265,0.06390494181164497
21.494336,4.082340702178197,0.0635013631001833
21.498932000000003,4.050018626064914,0.06309179082607733
21.503511999999997,4.0182294302568415,0.06270622346315556
21.508096,3.9881169186299203,0.06232004008829412
21.512684,3.9630344595464484,0.06194236376988783
21.517284,3.9396286846441266,0.061566392013568574
21.521871999999995,3.9139353019899263,0.061234719808758276
21.526464,3.89094022267867,0.06088875231640555
21.531056,3.868722393100915,0.06054764034130736
21.535636000000004,3.853044974084987,0.060163233866181366
21.54022,3.8400658584120024,0.05976776190847248
21.544812,3.8276196230442285,0.05939910924572393
21.5494,3.8218359829524267,0.058976017201471
21.553992,3.8096782584615725,0.05865541695622953
21.55858,3.799730098457079,0.05837025806807105
21.563172,3.7867170809672053,0.05812552504910758
21.567767999999997,3.776035812677838,0.05790483196315584
21.572355999999992,3.7732831282545276,0.057595698401772914
21.576952,3.7719627585840763,0.05731578962368963
21.58154,3.7788594836566007,0.057006174460816086
21.586132,3.7901311962532187,0.05669732947968535
21.590724,3.798338051364457,0.0564299274436427
21.595319999999997,3.8163945439511924,0.056071176494532006
21.599907999999992,3.8343288518237824,0.05572526246754067
21.604508000000003,3.8536513330006033,0.05533917571016983
21.609092,3.8699089566920426,0.054990476042251386
21.613688000000003,3.888620514298135,0.05465602148387778
21.618264000000003,3.9059438985999964,0.054367542223295
21.62286,3.9260877709589472,0.05406875729061927
21.627447999999998,3.940346297775428,0.0538254156412223
21.63204,3.953827574858407,0.053573365589859444
21.636632,3.9671866672272413,0.053331350600058815
21.641215999999996,3.976581467663046,0.05312780554214611
21.64580399999999,3.9892854950125227,0.052863044655023984
21.6504,4.001334457342643,0.05257920314383677
21.654992,4.014527223548702,0.05227254885481023
21.659584,4.027719989754762,0.0519658945657837
21.664179999999995,4.035027410418351,0.05170962237382127
21.668767999999996,4.038614908577204,0.05146742242928504
21.673368000000004,4.037827419211964,0.05122237417815761
21.677956,4.0342194417896335,0.050991145725366824
21.682551999999998,4.028934780186153,0.050748509786088726
21.687148,4.013023231373673,0.05057846547003761
21.691736,3.9973560519894833,0.05038542492891278
21.696328,3.974781907901031,0.05024709306134587
21.700916,3.953718121830955,0.05005145100992607
21.70552,3.929300967398578,0.049833589435319535
21.710115999999992,3.904228747946845,0.04959252253132644
21.71470399999999,3.8675080221243188,0.049432173460065364
21.719295999999996,3.8288662426923503,0.04928313150561077
21.723876,3.7892028440985888,0.04914154349158084
21.72848,3.750683249380766,0.04897387737481863
21.733068,3.7131852738247364,0.04879202325144922
21.737667999999992,3.6745434943927684,0.04863018821072845
21.74225599999999,3.6329590421895652,0.048488836035119
21.74685999999999,3.590230786110423,0.04836823831882241
21.751448000000003,3.544026976954835,0.04823349086977175
21.756048,3.501420905589838,0.048097087971492286
21.76064,3.459592083958344,0.04797251127905841
21.765235999999994,3.4127773512320276,0.0478933633493226
21.769823999999996,3.3642859343245615,0.04779929292249923
21.774415999999995,3.318492820760038,0.04770100332084421
21.77901599999999,3.272455337767224,0.047629876669133
21.783616,3.223230812574884,0.0476067491594378
21.788204,3.174905721830191,0.04758707778359106
21.792799999999996,3.1220054155817416,0.04767734442185184
21.797391999999995,3.0727028471238835,0.0477634409720322
21.801984,3.0253213322754666,0.047829482823982826
21.806576,2.986767835740754,0.04781629259457465
21.811171999999992,2.9520564464249253,0.047774399678094714
21.81575999999999,2.9169785029666593,0.047777007060345426
21.820351999999996,2.877036833127717,0.04782223458720695
21.824948,2.8332530560698923,0.04789882750085061
21.829536,2.790368713459715,0.04797609916570793
21.834128,2.74826162058304,0.04807247070580582
21.838716,2.7015351707539796,0.048191008585777656
21.843308,2.658284274001365,0.048323696198503546
21.847903999999996,2.6095145858487174,0.048480665264911856
21.85249199999999,2.560089832676714,0.04860717940611347
21.857088,2.5134855675617986,0.0487222553523137
21.861664,2.4676585521803864,0.04885371987000193
21.866263999999997,2.4191332334560305,0.04898066389204072
21.870867999999994,2.370852284159966,0.04908253403933166
21.875455999999996,2.3206502812544603,0.049221073111167475
21.880059999999997,2.2771108736249266,0.049294630436853136
21.88464,2.2379023120708585,0.049258665059280934
21.889236000000004,2.19701706633564,0.0491929664111949
21.893815999999998,2.1569090703339238,0.049136371297938526
21.89841599999999,2.1129589671133244,0.04911050241482467
21.903,2.0643895069403406,0.04909892792030943
21.907604,2.0161866009097937,0.04902895604154902
21.912196,1.9745241054410727,0.04891795855455318
21.916791999999997,1.9359264674577328,0.048735623703317466
21.921379999999992,1.8948748955597405,0.04849372795455819
21.925971999999994,1.853046073928246,0.0482263151040948
21.93057199999999,1.8158366092491367,0.04793448968973726
21.935168,1.7768282756747316,0.04763765966586751
21.93976,1.7435831029286504,0.04726003224836646
21.944352,1.712136799077865,0.046868000793698024
21.94894399999999,1.6787694416176382,0.04648871467537378
21.953532000000003,1.64348103054797,0.04612376680718992
21.95812,1.6080704347641561,0.04576611591127191
21.962712000000003,1.5754803270374313,0.04536783556965403
21.96730399999999,1.544933457634294,0.04490380846633669
21.971895999999997,1.5088677968311235,0.044437123272387455
21.976483999999992,1.470758897704366,0.043996282233668006
21.981064,1.4302402061115849,0.043695912760215005
21.985656,1.3810156809192442,0.043562303723971685
21.99025199999999,1.3335900246221994,0.041192991942333425
21.994836,1.288862671668098,0.03882529180310887
21.99943199999999,1.241192645942762,0.03648397978384176
22.004020000000004,1.1860827752079515,0.03416648249773698
22.00862399999999,1.1306063503307042,0.031901789621093246
22.013212000000003,1.0746411865968741,0.029696296138541106
22.0178,1.0189203922913357,0.02749770916678605
22.022392000000004,0.9596018601952057,0.0253015352121979
22.026988,0.8995060783655734,0.023110365867121955
22.03158,0.8354460046029129,0.020975712461994908
22.036172,0.7676660083355151,0.018872810157212976
22.040767999999996,0.7027065001252066,0.016755472123039912
