Time,Force,Position
28.305739999999997,0.02704608735195926,0.0
28.310328,0.018614842431652855,0.0
28.314904,0.012104651120787823,0.0
28.319503999999995,0.006493894257570642,0.0
28.324091999999997,0.0038258101655883575,0.0
28.328688,0.00038047634010389425,0.0
28.333284,0.0017384303933731604,0.0
28.337867999999997,0.0017384303933731602,0.0
28.342464,0.001357954053269266,0.0
28.347047999999997,0.0013579540532692661,0.0
28.351643999999997,0.006313645897129939,0.0
28.356232,0.013967641083934161,0.0
28.360831999999995,0.01945621323300567,0.0
28.365412,0.025599850401433692,0.0
28.370012,0.028556445370335467,0.0
28.374596,0.032534659501030766,0.0
28.379188,0.03794518838458476,0.0
28.383776,0.04707563977287582,0.0
28.388372,0.05404066812343418,0.0
28.392968,0.06538068399808611,0.0
28.39756,0.07635414573030101,0.0
28.402148,0.08606161887243108,0.0
28.406735999999995,0.09348148426268275,0.0
28.411323999999997,0.10335528356758661,0.0
28.415912,0.11016422538710993,0.0
28.420503999999998,0.11967147054957679,0.0
28.425092,0.13231793389701366,0.0
28.429683999999995,0.14889846992651767,0.0
28.434271999999996,0.16805512458481958,0.0
28.438863999999995,0.18300311788180165,0.0
28.443451999999997,0.18788732352595552,0.0
28.44804,0.18868505252293527,0.0
28.452639999999995,0.1942243231864456,0.0
28.457227999999997,0.20078521301174948,0.0
28.461816,0.214130882827171,0.0
28.466407999999998,0.22584400991007061,0.0
28.470996,0.2356360833835289,0.0
28.475604,0.24032006104801956,0.0
28.480196,0.24733578791301672,0.0
28.484792,0.2504313642936137,0.0
28.48938,0.25986712325637373,0.0
28.493976,0.274743630353649,0.0
28.498555999999997,0.29902517751846797,0.0
28.503148,0.32449467000785426,0.0
28.50774,0.3591248331364929,0.008476898170515439
28.512336,0.3943320180189705,0.016976663060113105
28.51692,0.428972420779348,0.02549980333978267
28.521511999999998,0.4672988442275732,0.03389626013254922
28.526112,0.505591365858909,0.04261022074929657
28.530703999999997,0.5528001887012057,0.05128363708180698
28.535304,0.6144441041544961,0.059489734839750105
28.539896,0.6823060174758043,0.0676574156010653
28.544484,0.754220505627397,0.07566687553963364
28.549071999999995,0.8296988297526918,0.08372266620034395
28.553659999999997,0.9057983170804538,0.091905237496378
28.558255999999997,0.9877492481337962,0.1001203600792805
28.562844,1.0764510573603667,0.10828710208549608
28.567423999999995,1.1774225361601984,0.11616234526288154
28.572016,1.2865330664374888,0.1238891325113978
28.576604,1.40038513838131,0.13154694602355746
28.581196,1.5110060266769765,0.13920650502817217
28.58578,1.6216269149726432,0.14685843147318547
28.590368,1.7276284463159248,0.15455185579374786
28.594959999999997,1.8337963038219802,0.1622950723490041
28.599548,1.9381652924327404,0.16153308554962603
28.604152,2.0427786504717913,0.1607350617604291
28.608735999999997,2.142606325395684,0.16004288473260192
28.613316,2.238625794917583,0.15941680752837148
28.617912,2.3386434581894,0.15822354484608614
28.622499999999995,2.440249522745111,0.15687391915176882
28.6271,2.5340830899657996,0.1559706243627115
28.631688,2.6236197129279124,0.15512784907948743
28.636287999999997,2.7062832730026507,0.15447583940739207
28.640876,2.783828497636683,0.1537612146219752
28.645484,2.857521375420094,0.15287109977975
28.650076,2.925563037457587,0.15191003487678562
28.65466,2.9888529181968115,0.15089090253717916
28.659256,3.035331815675907,0.15029893224465546
28.663839999999997,3.0714179557425547,0.14985372497495447
28.66844,3.1013641412067035,0.14941401865692353
28.673032,3.1282793710023604,0.14891511437502064
28.67762,3.150442819499748,0.1483083057276713
28.682216,3.1692868014517246,0.1475774215267018
28.686803999999995,3.1797812643148404,0.1468367019017304
28.691391999999997,3.1833585228419543,0.14609295043558648
28.695972,3.180673642052422,0.14534796812311068
28.700563999999996,3.1770010439179863,0.14443059597495062
28.705152,3.166088828753739,0.14365337414514112
28.70974,3.143606150484216,0.1432505136575126
28.714336,3.1118406168612944,0.1430720567836789
28.71892,3.0747565198180036,0.14295597835482268
28.723519999999997,3.037095401020874,0.14270515725400798
28.728115999999996,2.9956702182703787,0.14250528101161677
28.732699999999998,2.9521576557476683,0.14229545507117797
28.737312,2.9101554512433343,0.14192783430175962
28.741888,2.8691748659007943,0.14149252365871506
28.746483999999995,2.8254959772153097,0.1411214449013385
28.751076,2.785170456892126,0.14069064160866923
28.755675999999998,2.74742105519774,0.14017466231611483
28.760268,2.710082349094419,0.13968946655945966
28.76486,2.6694344160774257,0.13939465116781383
28.769451999999998,2.626787386185474,0.13929743279089518
28.77404,2.584306682456296,0.13927221851438948
28.77864,2.547511096289925,0.1391256588708585
28.783227999999998,2.5114147165915384,0.13910448653200935
28.787831999999995,2.4780607816847233,0.13909771531022871
28.79242,2.450269779626569,0.1389715422929664
28.79702,2.4300849487406633,0.13864504526117505
28.801616,2.411865312912827,0.13835965895486022
28.806208,2.3974097410383552,0.13803526621253698
28.810799999999997,2.389294351746047,0.1375920722817868
28.815396,2.3808565497599297,0.1373272489488084
28.819984,2.380802168679563,0.13684035394063046
28.824575999999997,2.386843600753068,0.13629107678497374
28.829156,2.389497762647383,0.1360807141302701
28.83374,2.3910522621143873,0.13605945179664122
28.838331999999998,2.392162164173437,0.13623878653163757
28.842927999999997,2.401122606833026,0.1361732705401064
28.847516,2.4128254942841867,0.13613528860883797
28.852112,2.426371392079272,0.136150084824847
28.856708,2.4480121999031876,0.13589119516594877
28.861284,2.475993190309266,0.13552725235126933
28.86588,2.50773824466871,0.13514206726360928
28.870467999999995,2.5413263093720775,0.13482523420717304
28.87506,2.5835421644094865,0.1342896313132066
28.879644,2.627967583933257,0.13375085571887213
28.884235999999994,2.670105395705148,0.13337799332098396
28.888824,2.7098334150110155,0.13316802114389586
28.893415999999995,2.7608433865452398,0.13258105279116503
28.898003999999997,2.8132856728323223,0.13200484636380538
28.902612,2.8654835896911144,0.13149044904319973
28.907211999999998,2.9206241793211407,0.1308658720734551
28.911815999999995,2.973066465608224,0.13035578240434756
28.916396,3.0202343299235657,0.12998269633228796
28.920987999999998,3.0740647895148796,0.12939167548486377
28.925568,3.132103910467513,0.12863111181989428
28.930167999999995,3.199337603876288,0.1275360560627126
28.934755999999997,3.262196309760969,0.12659375935369113
28.939356,3.3237448856069376,0.12566604631609468
28.943952,3.389502122814226,0.1246140399206514
28.948544,3.452561056678571,0.12367343345131575
28.953135999999997,3.5159424032367244,0.12265040906334011
28.957731999999996,3.576336935575015,0.12164717722857535
28.96232,3.636931695892969,0.12056905869901828
28.966911999999997,3.688487970285816,0.11961981717594496
28.971492,3.7389784840682414,0.11863679970693415
28.976076,3.789180486973747,0.1176138936223556
28.980664,3.844202074811301,0.11641738898177899
28.985263999999997,3.88957425315302,0.11542185876385287
28.989852,3.9335921600073975,0.11434722262455409
28.994443999999994,3.976788675679645,0.1132202103535841
28.999036,4.016876192417884,0.11211514092662624
29.003615999999997,4.053199645202757,0.11101129386707585
29.008208,4.090378390986651,0.10981344437114073
29.012795999999994,4.114920913054846,0.10874540600834523
29.017384,4.131612894522502,0.10778725133777645
29.02198,4.136734412884881,0.10701723796330963
29.026568,4.140912355350984,0.10618958845816776
29.031156,4.141081864435431,0.10538102908060157
29.035748,4.129925279842893,0.1047120234438827
29.040339999999997,4.113860827421051,0.1040712872267893
29.044932,4.088924215236875,0.10354758332297259
29.049527999999995,4.061778038566338,0.10300821461977017
29.054132,4.029357439924062,0.10252842787993795
29.058719999999997,3.9953823418147785,0.10204200037415617
29.063312,3.9584204294856336,0.10153473094461507
29.067891999999997,3.9191267679559814,0.10102008621947259
29.072492,3.872515446131001,0.10060539953255064
29.077084,3.8251268745725184,0.10018304956984038
29.08168,3.774429076100364,0.09985141460419927
29.086276,3.7182124862281767,0.09959658635259395
29.090867999999997,3.6640391346795766,0.09927619303564865
29.095456,3.608477609826746,0.0990175072637409
29.100052,3.552671715545624,0.09877254555032147
29.104643999999997,3.50561579631269,0.09842461478320602
29.109236,3.4639564837656422,0.09799558157088345
29.113823999999997,3.4240960401138905,0.09753288679048736
29.118419999999997,3.3817036192819683,0.0971675948814774
29.123008,3.3380452098599624,0.09685024144408769
29.127599999999997,3.301582276019138,0.09642197266752471
29.132188,3.2675732760929663,0.09597672328886284
29.136788,3.2384721439960997,0.09550433448577977
29.14138,3.212724380261532,0.09500079498776871
29.145956,3.1884089312798243,0.09450721767365425
29.150547999999997,3.1706780343085703,0.09397984807620179
29.155128,3.156589016576537,0.09348677736490356
29.159707999999995,3.1408674561119794,0.09308826497391638
29.164316,3.123391168200756,0.09280216401711266
29.168904,3.1072250103282455,0.09254694694333242
29.173492,3.0953116552656827,0.09225504479350408
29.178087999999995,3.0870401794423397,0.0920011005486186
29.182675999999997,3.0772583456006197,0.09183522773918132
29.187271999999997,3.0764708562353786,0.0915397918863827
29.191868,3.076094062461203,0.09129127039371253
29.196468,3.076127964278093,0.09109220114053684
29.20106,3.076694746400193,0.09092715099085448
29.205659999999995,3.0825800919426634,0.09079531181554493
29.210247999999996,3.0945171091903765,0.09060864791999426
29.214844,3.1161035359339246,0.09032442094271821
29.219435999999995,3.1367124849643075,0.09015937848869826
29.224031999999998,3.162351486538141,0.08997406812378733
29.228615999999995,3.190322237312481,0.08980031974730697
29.233211999999995,3.2185814989637405,0.08969140920717995
29.237787999999995,3.2508491939966557,0.08958728146362
29.242383999999998,3.284915757924867,0.08947231546122893
29.246976,3.318860137138933,0.08937479530031987
29.251568,3.359222742200679,0.08919094932171705
29.256156,3.4079246267195478,0.08888340281721235
29.26074,3.462922552371951,0.08851399448094774
29.265328,3.520863150795589,0.08810955336515937
29.269924,3.5810913569711054,0.08763256692416
29.274516,3.642096812880125,0.08715915620712697
29.279104,3.700281780732055,0.08675484842381946
29.283691999999995,3.760509986907571,0.08631078921996267
29.288276,3.8217598122448813,0.08585536092007481
29.292868,3.885052875905779,0.08537643682607973
29.297459999999997,3.9466251139368977,0.0848387238951752
29.302048,4.0049661683198625,0.08431190820799453
29.306639999999994,4.057133366283439,0.08385023786293394
29.311228,4.112076910855475,0.08328689083819994
29.315819999999995,4.161868218169916,0.08275770414728643
29.320415999999994,4.210471580159789,0.08219688706232894
29.325011999999997,4.261606919329831,0.08156896208569515
29.329607999999997,4.305913337061129,0.08096627652671197
29.334204,4.3424913989060325,0.08040267780331399
29.338795999999995,4.37673771155043,0.07983054282952462
29.343383999999997,4.403910733327789,0.07930595323757868
29.347984,4.42323321450461,0.07882604406140585
29.352571999999995,4.433028470899741,0.07839217174129907
29.357172,4.432929948370746,0.07803288735005796
29.361763999999997,4.4313991110888935,0.07765621786419256
29.366347999999995,4.429701947644265,0.0772223255585017
29.37094,4.423996350817981,0.07677807295424914
29.375536,4.416980623952984,0.0763049719525848
29.380135999999997,4.405057029258682,0.0758249077676858
29.384724,4.383117470926107,0.07541768197037675
29.389312,4.358235239822299,0.07504604133516343
29.393904,4.330654705375547,0.07468827079340208
29.398495999999994,4.3022969211952935,0.07432328445292191
29.403088,4.266499292005565,0.07402033188835737
29.407675999999995,4.229391532777124,0.0736793657222704
29.412276,4.189707654919884,0.07333748293679959
29.416864,4.142583932053171,0.07305383740784598
29.421456,4.099546685833631,0.07269878059151148
29.426052,4.059207742957035,0.0723208788458693
29.43064,4.018091550346938,0.07193121973113838
29.435239999999997,3.980162399936366,0.07147433164211818
29.439828,3.9458309873163855,0.07099162048303359
29.444424,3.917917800544086,0.07045592890381293
29.449008,3.895279035743527,0.06989474347678801
29.453596,3.8695754134575884,0.06937684353596912
29.458192,3.84272798729571,0.06888076033490512
29.462779999999995,3.8165356261531884,0.06839660120781559
29.467367999999997,3.787034038096995,0.06797756560503661
29.471964,3.759209134221951,0.06755345366614375
29.476552,3.7388240753563817,0.06706376634984848
29.481143999999997,3.718316831776667,0.06658066467367296
29.485736,3.702306760435191,0.06607296418514935
29.490331999999995,3.6862966890937154,0.06556188313531013
29.494919999999997,3.6774820933334222,0.06501354724263755
29.49952,3.6688338237359033,0.06452548244647811
29.504107999999995,3.6587973808341534,0.06408354025669097
29.508716,3.651214871847056,0.06364774096224014
29.513307999999995,3.645964112060465,0.0632379942610154
29.517903999999994,3.645210524512114,0.06281193579501419
29.522488,3.6470330555925603,0.06238621539109668
29.52708,3.652986204768809,0.061982820830209444
29.531679999999994,3.664580330059236,0.06154525126407109
29.536272,3.6758079012072256,0.061148513328173004
29.540859999999995,3.689733775698159,0.060746945140394075
29.545455999999994,3.710200060750919,0.060306366609875706
29.550044,3.7308326719664526,0.05992906550217432
29.554632,3.7522425329154885,0.059561330646485486
29.55922,3.7810922388739985,0.05915287259986277
29.563812,3.814194747642456,0.05876067375181955
29.568408,3.8508949942015054,0.058371585620273655
29.572999999999997,3.893114032160588,0.05796306489397097
29.577583999999995,3.9344336356720224,0.05756525547457682
29.582168,3.980494780849987,0.057146268918203874
29.58676,4.024757057132656,0.05674100990339573
29.591348,4.0777251670148855,0.05627577716194869
29.595935999999995,4.135434818563644,0.05578174380360885
29.600551999999997,4.196209327597783,0.05525675228480698
29.605144,4.255840032755983,0.054764536565509774
29.609751999999997,4.3097075770858595,0.05432044431755374
29.61434,4.363330751987443,0.05390188182956541
29.618931999999997,4.41605449244138,0.0534975931105239
29.623524,4.460194584009903,0.053152615852936846
29.628111999999994,4.5015141875213365,0.05282302811707798
29.632707999999997,4.540502041832265,0.05247485905202277
29.637303999999997,4.575892158352602,0.052139271290504226
29.641904,4.613281371747897,0.0517199245996416
29.646496,4.650792769857338,0.051293763785638845
29.651095999999995,4.679842703795511,0.05090521168293437
29.655683999999997,4.700675542990708,0.05053275782037013
29.660284,4.709082626081607,0.0502244442307588
29.664868,4.711193668038973,0.04992201054977024
29.669467999999995,4.709462602777457,0.04963983228678094
29.674063999999998,4.696982465592795,0.04942869140573308
29.678659999999997,4.680782405903395,0.04922748858669067
29.68324,4.654199828433286,0.049068407791456325
29.687831999999997,4.622875709296644,0.048928685127688776
29.69242,4.587587298226977,0.048816769927509045
29.697016,4.543426727394976,0.048695634331775206
29.701604,4.498488906829474,0.04856280944692403
29.706191999999994,4.451097152349319,0.04840862899306014
29.710767999999995,4.395243933697895,0.048283570421617565
29.715368,4.334771358094086,0.04816821870856742
29.719967999999994,4.268779991090245,0.048064271621228914
29.72456,4.199601581886878,0.0479955638078683
29.729156,4.125437261588689,0.04796588875166394
29.733735999999997,4.042200553548504,0.048015767718001146
29.738328,3.9532006846799947,0.048098252179366786
29.742915999999997,3.8682872924586604,0.04813115536270228
29.747508,3.7854171385609128,0.0481368549771467
29.752104,3.712274437424517,0.048074313618970445
29.756691999999997,3.6349230749268013,0.048071034124336394
29.761287999999997,3.5585933315908793,0.048053235392012505
29.765876,3.4854506304544843,0.04799087780061443
29.770464,3.4092430718327087,0.04796740857919333
29.775068,3.330092840439698,0.04797568160607707
29.779656,3.250165359313185,0.04796768460949235
29.784256,3.1666401403960798,0.04795982100014903
29.788836,3.0903103970601586,0.0479446824675069
29.793436,3.01500227288603,0.0479048268896609
29.798016,2.9376509103883146,0.04788532720879765
29.802615999999997,2.8632422206618346,0.047835737981302986
29.807199999999995,2.795251756783035,0.047774694375875254
29.811803999999995,2.7338017034660616,0.047683158727903956
29.816396,2.6694089773778535,0.0476264149786874
29.820992,2.605915685737293,0.047575486942011025
29.825579999999995,2.5508838582680005,0.047477380583931
29.830175999999994,2.5013708221987403,0.047363977751485264
29.834771999999997,2.4485485592158085,0.04733187573118904
29.839367999999997,2.4001012837569697,0.04730704272046745
29.84396,2.349488585260399,0.047323163270290486
29.848552,2.305782851468091,0.047257840946421624
29.85314,2.2638759865710787,0.04718680033976694
29.857736,2.223523621141071,0.04715017158604874
29.862323999999997,2.190855470148829,0.04704502666171644
29.866919999999997,2.1658715335943524,0.04686887404340793
29.871512,2.1452625845639695,0.04671014033377185
29.876099999999997,2.131726926400624,0.046573230238807405
29.880683999999995,2.115248595466043,0.04647038982149565
29.885271999999997,2.0984037103890247,0.04642143796218624
29.889864,2.0842571286549507,0.04637310109396129
29.894451999999998,2.0716650463878814,0.04636449133432145
29.89904,2.0602167679967502,0.046314763981689974
29.903648,2.0451707518150286,0.046257771492193074
29.908235999999995,2.034866277299837,0.04616456384743646
29.912848,2.0302027788988237,0.04603421126707871
29.917435999999995,2.0216971732789277,0.045940993854583174
29.922036,2.0104932643160884,0.04584346135286169
29.926627999999997,1.9987564750480384,0.045676197916214564
29.931228,1.9831775785611052,0.04554929272400417
29.935827999999997,1.96514474815952,0.04536797341130023
29.940428,1.946090298596141,0.04520032632965458
29.945032,1.9231937418138796,0.04506793925872807
29.949608,1.904139292250501,0.044896284659912536
29.954204,1.8794438665729438,0.04475244373661351
29.958783999999994,1.852949572000091,0.044591331579495186
29.963379999999997,1.8237569740842947,0.044421381386689544
29.967968,1.7874910853014612,0.04420450582321858
29.972567999999995,1.7503257620709798,0.04398301908628523
29.97716,1.7134048082687898,0.04370209812150598
29.981756,1.6755844200189516,0.043411266266554116
29.986335999999994,1.6381305859115507,0.043029191947422295
29.990928,1.5995329479282105,0.04268206447080018
29.995515999999995,1.5654324821831096,0.04233497991312491
30.000111999999994,1.5297775169710048,0.04189935238314194
30.004704,1.4905248139683083,0.041429687656274514
30.009288,1.4533153492891986,0.04089787259725248
30.013876,1.4181491229336762,0.040288944698876866
30.018468,1.386580634368745,0.03967450155133558
30.023064,1.3514144080132227,0.038995282729879836
30.027648,1.312938954744028,0.03840191410771348
30.032244,1.27344188231304,0.037802514406261506
30.036832,1.234066994596198,0.035630963634078264
30.041424,1.1901949346411163,0.03347970382564683
30.046004,1.1481217435813302,0.031339871819783496
30.050591999999995,1.1028615103220183,0.029256347516001903
30.055187999999998,1.0567018426150583,0.027180335362641066
30.059776,1.0131182935368963,0.02512917097011781
30.064364,0.9743984708394108,0.023065983145324515
30.06896,0.9342904748376945,0.021043807571628614
30.073547999999995,0.8950819132836261,0.01903239920890813
30.078143999999995,0.8507652559205899,0.01709224553829106
30.082724,0.8054269793957602,0.01515881308396517
30.087323999999995,0.7571460300996958,0.013251285240424907
30.091911999999997,0.7111968300041378,0.011433658824721943
30.096512,0.6623049571373449,0.009668652863335481
30.101099999999995,0.6143125187181999,0.007948598227734792
