Time,Force,Position
19.955208,0.0,0.0
19.9598,0.0,0.0
19.964388,0.0,0.0
19.968992,0.0,0.0
19.973572,0.0,0.0
19.978176,0.0,0.0
19.982764,0.0,0.0
19.987356,0.0,0.0
19.991936,0.0,0.0
19.996536,0.0,0.0
20.001128,0.0,0.0
20.00572,0.0,0.0
20.010312,0.0,0.0
20.014908,0.0,0.0
20.019508,0.0,0.0
20.0241,0.0,0.0
20.028688,1.2017473323086897e-05,0.0
20.033288,0.0010456541084396967,0.0
20.037876,0.0019571060294106346,0.0
20.042464,0.0038901771121750955,0.0
20.047052,0.00852155153788311,0.0
20.051648,0.013275110677736797,0.0
20.056248,0.017662115675153467,0.0
20.060832,0.02090531679663095,0.0
20.065428,0.025703017385112787,0.0
20.070012,0.02833529493586191,0.0
20.074608,0.03378806054370025,0.0
20.079184,0.0406731409043973,0.0
20.083772,0.04629223267500947,0.0
20.088368,0.04974590140788892,0.0
20.092956,0.05091196238888998,0.0
20.097544,0.05363252283689541,0.0
20.10214,0.056885963590111666,0.0
20.106728,0.057973981305595224,0.0
20.111332,0.05797398130559521,0.0
20.115924,0.06114937879329395,0.0
20.120516,0.06574507356052829,0.0
20.125108,0.06948547532874294,0.0
20.129708,0.07555762629746413,0.0
20.134296,0.08077448426716562,0.0
20.138892,0.08460316893263656,0.0
20.14348,0.08859817976088134,0.0
20.14808,0.09541367864621535,0.0
20.152664,0.10582691532214075,0.0
20.157248,0.11624015199806617,0.0
20.161844,0.13049549589287432,0.0
20.166436,0.14131942815986487,0.0
20.171024,0.15459729434150765,0.0
20.175616,0.17204992006758082,0.0
20.180204,0.19727504312867578,0.0
20.184796,0.2302726635247926,0.0
20.189384,0.26527962042760705,0.0
20.193976,0.3066267599125846,0.008951315289551766
20.198568,0.3572567547509602,0.01732465430990579
20.20316,0.414704026316254,0.02553936146126458
20.207748,0.4730284752241338,0.033745189814199085
20.212336,0.5336066300670027,0.042072167989265226
20.216928,0.5996255330443869,0.05031396659213854
20.221516,0.670307934422784,0.058308189981045526
20.2261,0.7465532686498422,0.06621918422555889
20.230696,0.8252966782401808,0.0742014784480671
20.235284,0.9076819670697387,0.08221856712878653
20.239888,0.9903999082248444,0.09038094911652994
20.24448,1.0743499361531457,0.09862588096758057
20.249068,1.161453104464084,0.10686776255385064
20.253664,1.2550627815199589,0.11494211192879222
20.258256,1.3521921531009078,0.12311081317853041
20.262852,1.444213428872889,0.13152891699368802
20.267436,1.5377009212146184,0.13973905487216884
20.272036,1.6308557612308006,0.1477147977887177
20.27662,1.7212240150067821,0.15556970736945766
20.28122,1.8068846289331224,0.16350911708338484
20.285816,1.8860828755631545,0.16254645558567302
20.290408,1.9611505040973842,0.16211262908566829
20.295,2.0298779500494506,0.16194719891379897
20.299584,2.0922652134193536,0.16196255617121716
20.304192,2.1518658905490575,0.16181479891103237
20.308784,2.2062260475239093,0.16168512287716955
20.313388,2.2516699032878,0.16193184235652391
20.317984,2.290607250306753,0.16228179929672348
20.322572,2.3285568799808023,0.1624116276432258
20.327168,2.3655187923099477,0.16234274055976403
20.331748,2.4035362256177755,0.1619352395253364
20.33634,2.439011442113695,0.16136770312980236
20.340928,2.4688795843123255,0.16083913351438456
20.345524,2.4910532724414516,0.16039541754596837
20.350116,2.5113398087780263,0.1598017174117522
20.354696,2.533869811417851,0.15890382620749924
20.359288,2.554068064857169,0.1581067796498053
20.363868,2.5635952896388585,0.1577501164254434
20.36846,2.571568014953543,0.15743763587154624
20.373056,2.5828499671819,0.15691132867577792
20.377644,2.593965593247483,0.15629566930973735
20.382252,2.602583143949786,0.155649369341867
20.38684,2.6143435954029863,0.1547124261102704
20.391444,2.6313343273793004,0.15347540979187904
20.39604,2.649468863231553,0.1521855200132372
20.400628,2.667114660227224,0.1509812272096495
20.405232,2.688724749155923,0.14957380128528497
20.40982,2.712011522265772,0.14811897706222243
20.414416,2.730801123137382,0.1468497762083256
20.419,2.7438275631806675,0.14584814285406864
20.4236,2.7513352118239207,0.14507950019933133
20.428192,2.7569218068577324,0.14439896155454268
20.432788,2.7608317177103934,0.14375416045427997
20.437372,2.7623318360970304,0.1432744940086773
20.441972,2.762033085588372,0.14286245805363743
20.446568,2.762633769527362,0.14242211054719076
20.45116,2.758492911799821,0.14218412322641086
20.455748,2.761791899081754,0.14163659404449844
20.46034,2.764069267201894,0.141145951407573
20.464944,2.7643033969984465,0.14076490696027852
20.469536,2.764537526794999,0.14038462098274507
20.474124,2.7615846143920253,0.14017769979889
20.47872,2.7512359984282053,0.14037955196727805
20.483308,2.73908851356909,0.14063337963398936
20.487896,2.7219551176151535,0.14112852496098216
20.492476,2.7021234183182723,0.14173654227155025
20.497068,2.6816366540020344,0.14231618947685679
20.50166,2.6604948246664413,0.14287975556281285
20.506248,2.639352995330847,0.14345735111566957
20.510848,2.620132219604695,0.1439683504068818
20.515436,2.5987460208408093,0.14463975910495086
20.52002,2.5792808756863654,0.145214975332883
20.524608,2.5663561410937477,0.1455010595923342
20.529196,2.5557190142530084,0.14563915683625758
20.533792,2.545081887412269,0.14577916812937072
20.53838,2.5344447605715303,0.1459099322653928
20.542968,2.527405371521383,0.14591099504335006
20.547564,2.520121613042944,0.14594814647449367
20.552156,2.511816235402711,0.14603855455731002
20.55676,2.500446000277098,0.1462955606912917
20.56134,2.4878097765613996,0.14664977732301895
20.565936,2.4767280523127058,0.14699152989482564
20.570528,2.4744743463777166,0.14689622311494172
20.575124,2.472098455728582,0.1468215712849868
20.579712,2.474830660888415,0.14647131180686884
20.584312,2.485369265200159,0.14575386955806116
20.5889,2.4936202617600247,0.14518883243854766
20.593492,2.5008496391580968,0.14467763112827875
20.59808,2.5096335160231735,0.14413565211348262
20.602676,2.5213600656594846,0.14345680435315944
20.607272,2.5408930144477075,0.14240605709547988
20.611872,2.5603037785217846,0.14139477182436602
20.61646,2.5766496851104814,0.1405741339769745
20.621056,2.5944279064520357,0.13976639072103528
20.625648,2.6160482350124736,0.1388145871211264
20.630232,2.634193010496466,0.13796883790154596
20.634824,2.6516827209611016,0.13712151900263075
20.639416,2.666962866939376,0.1362942936501647
20.644012,2.6871067392983266,0.13528577999942043
20.6486,2.714157576361541,0.13399038258464208
20.653196,2.7441510861959904,0.13257812071850786
20.65778,2.7764322037823175,0.1310311770513619
20.662364,2.8049933988639077,0.12966066926154313
20.666952,2.8298346714407616,0.12840725353251797
20.671536,2.8535321401416756,0.1272456527139607
20.67614,2.869423209690679,0.12639945134315436
20.680728,2.8874797022774144,0.1254487253654208
20.685332,2.905291825435859,0.12452553568589622
20.689924,2.926168806079684,0.12348659079640448
20.694516,2.9461463522758615,0.12249459397873957
20.699116,2.965102279310245,0.12158399972206971
20.703708,2.9830365871828346,0.12071951743682163
20.708312,2.995452103655392,0.11999589362037867
20.712892,3.006190935946799,0.11930840018726697
20.717492,3.0147643452004735,0.11873109165531348
20.72208,3.0229712003117113,0.11819686052002355
20.72668,3.0338763587658923,0.11760589177059089
20.731268,3.0489121353158763,0.11697025968054908
20.735868,3.057285316589888,0.116538947178705
20.740452,3.06283800980681,0.11619664092360399
20.745048,3.0674912685760845,0.11587887913985098
20.74964,3.0730439617930063,0.11554708885423653
20.754236,3.0782301008674913,0.11526360362613719
20.758824,3.0908560849514504,0.11480137915724198
20.763424,3.1036042537495554,0.11432995551572034
20.768012,3.1201945297665428,0.11374785792163264
20.772608,3.1329426985646474,0.11326965861529811
20.777196,3.14773410568634,0.11272204244626215
20.781784,3.159705024750943,0.11225518595867322
20.78636,3.173474812710841,0.11176390970427313
20.790956,3.1864673509372374,0.11128902302782838
20.795548,3.201380942773075,0.11077030815141203
20.800136,3.225000368208472,0.11002519618942672
20.804728,3.2497635975198076,0.10924198958777687
20.809304,3.273871761811787,0.1084515005821188
20.8139,3.3038652716462367,0.10751294663734913
20.818484,3.3293616092424467,0.10666543265591824
20.823072,3.348439720990976,0.10594798192680174
20.82766,3.3731588088536837,0.10510929906562846
20.832244,3.396978462268744,0.10429501675878013
20.836832,3.4173225626073576,0.10352531664009042
20.841424,3.4338245557270892,0.10284827224379296
20.846004,3.450693102989257,0.10212842640785483
20.8506,3.459344555508449,0.10156291669073617
20.855188,3.4650533352564072,0.1010700911727706
20.859788,3.4690854308232137,0.10059340039578422
20.86438,3.4768374488947584,0.10004047851616414
20.868976,3.483934401946946,0.09947716535872148
20.87356,3.4911535397132796,0.09890096255826578
20.878148,3.492731701365434,0.09844033940242261
20.882744,3.4894461366369125,0.09809327648072398
20.887336,3.484850441869679,0.09771826610709214
20.891916,3.477189889617064,0.09742853272481382
20.896512,3.464543426269627,0.09725999707221482
20.9011,3.451774778208044,0.09710415079444809
20.905692,3.4343867731940767,0.09702372599967274
20.91028,3.4204743212565556,0.0969043939085251
20.91488,3.4105261612520614,0.09669139469474677
20.919464,3.3971024481711227,0.0965127681503111
20.92404,3.383678735090184,0.09633225899929641
20.928632,3.3737305750856903,0.09611537112916907
20.933212,3.36762452230008,0.0958218566530404
20.937804,3.363561707838056,0.09547785278976757
20.9424,3.364118250328417,0.09505860724075203
20.946984,3.3696607039136004,0.09452835406490166
20.951572,3.379822514451169,0.09393466273090254
20.956168,3.390228694417029,0.09332024112586598
20.960756,3.400390504954597,0.09273495287767637
20.965348,3.41043013077802,0.09216474668770593
20.96994,3.4271323518774146,0.0914834136023938
20.97454,3.4456334418721046,0.09077108918381015
20.979128,3.4623798044201277,0.09016432017859938
20.983728,3.4782267325205023,0.08957205732414437
20.988304,3.4998368214492013,0.08887104282174688
20.992912,3.5234901487014874,0.08813110547921785
20.997496,3.5489423448490687,0.08737467558725562
21.002096,3.5716962376537076,0.08665460437507728
21.006692,3.5931841418682606,0.08599017166392128
21.011284,3.6131616880644377,0.08539666764067746
21.015872,3.631095995937028,0.08484815820593576
21.020468,3.650051922971412,0.08428473903663052
21.025072,3.667986230844002,0.08375263589231907
21.029664,3.6826113118029205,0.08331849374503476
21.034256,3.6962147736000457,0.08291013225986359
21.038856,3.703688520426409,0.08263591556517214
21.043444,3.7061763561579504,0.08246108127506267
21.048036,3.70956362633714,0.08227992344094807
21.052624,3.7149941348399165,0.08205860534871012
21.057224,3.7196473936091903,0.08183327108697203
21.061812,3.7205807298737277,0.0816562425506099
21.066412,3.7245789236236453,0.08141931218670885
21.071004,3.732907963449028,0.08107964694010614
21.07558,3.7375170807696745,0.0807804010631702
21.080172,3.7421261980903204,0.08048538722782028
21.084764,3.744814261801525,0.08022003956311348
21.089356,3.743660218293847,0.0800074772595073
21.093952,3.742506174786169,0.07979400581257926
21.09854,3.7395532623831955,0.07959449427203147
21.10314,3.741830630503335,0.07928543696377845
21.107732,3.7469284866805643,0.07894137842398438
21.11232,3.7463853667436147,0.07866489162267229
21.116916,3.7460866162349564,0.07836570876778744
21.121504,3.7480754734781767,0.07800391406967966
21.126108,3.7464665929308056,0.07766764699512654
21.1307,3.747389689563604,0.07723965837093354
21.135296,3.7490458944812763,0.07673590293227037
21.139876,3.7439173194088307,0.07632939682533145
21.144476,3.7339250179557095,0.07599511062895546
21.149064,3.727897008435616,0.07559598981228437
21.153668,3.7200701300202277,0.07520844441421384
21.158256,3.7086455138142473,0.07484646295779987
21.162856,3.690313932904004,0.0745904344443502
21.16744,3.6777455128220846,0.07425605554174529
21.172032,3.661579354949574,0.07394583869705396
21.17662,3.644513762629415,0.07363960820581392
21.181216,3.62846978947105,0.07331166305657154
21.185808,3.610626947417389,0.07299351934809135
21.190392,3.5958489628491086,0.07261629233230307
21.19498,3.575552186880796,0.07228559992066846
21.199572,3.55280147699783,0.07194480376590612
21.20416,3.5351588629238324,0.0715062421312415
21.208752,3.5145735760786,0.0711076501142039
21.213348,3.4903905514427764,0.07072669049973711
21.217936,3.4745468062640747,0.07026880105869546
21.222532,3.4592359413905833,0.06984034044056071
21.22712,3.443314152946364,0.06947118556709346
21.231712,3.4371198172634974,0.06897354924071104
21.2363,3.4357892079613066,0.06841142585927683
21.240888,3.426407830078914,0.06797543389771177
21.24548,3.4169042674823755,0.06754762914215283
21.25006,3.409732454086343,0.06714159310269173
21.254648,3.4066471173374846,0.06666010918097753
21.259244,3.402540161426834,0.06619996422452745
21.263844,3.400354259125623,0.06571561127846905
21.26844,3.395103499339032,0.06527793901479137
21.273016,3.397414769276061,0.06477053946319662
21.277616,3.4044675808796203,0.06421545638471236
21.282208,3.4095993388737384,0.06368378130800391
21.286804,3.418084465230157,0.06315954017391343
21.291388,3.4328656327201106,0.06261516820921234
21.295988,3.447158061353481,0.062128010529538896
21.300572,3.464515347472232,0.061594815480887986
21.305168,3.4870248708485794,0.06106886120783742
21.30976,3.504137787539039,0.06057405301156187
21.314352,3.522272323391292,0.06006765946789602
21.318952,3.543471716728926,0.059519713021063764
21.323552,3.5568647109146485,0.0590615907072794
21.32814,3.565516163433841,0.0586416390416968
21.332736,3.580175146209648,0.05814127000121447
21.337324,3.5956113787189574,0.05764696766236159
21.341912,3.6115363500848505,0.05710970662374005
21.3465,3.626195332860658,0.05661196793544231
21.351092,3.6390554467411698,0.056121510603723765
21.355688,3.6516711911933895,0.055657554771905426
21.36028,3.6673517931309916,0.05514466594199636
21.364876,3.6735493117355307,0.05470610376045934
21.369456,3.6786030264641316,0.05429811900849124
21.374048,3.687498848411615,0.05386378605477303
21.378636,3.6945958014638025,0.05343351360093166
21.383224,3.6914324214494267,0.05305494346842002
21.38782,3.681606446159079,0.05271804737311065
21.392408,3.668593428669205,0.052431515768448914
21.396996,3.6491621853316505,0.05216527262443443
21.401592,3.6245006614709823,0.0519751765319891
21.40618,3.595997030391432,0.05181264570949706
21.410776,3.5626296729312057,0.05169023617985914
21.415356,3.533226607404007,0.05152209096844341
21.419956,3.5083207141150483,0.051346146059193645
21.424544,3.480349963340709,0.051207537141511175
21.429144,3.454422450889956,0.05104034463626472
21.433724,3.423264657916091,0.05094965174639539
21.438324,3.3914517999228675,0.050831912432637
21.442912,3.3595167572154994,0.050722884256338946
21.447504,3.326560095346338,0.050625862067720614
21.452084,3.2952801176583266,0.050536602083889326
21.456676,3.2668206280274044,0.05043064317937045
21.461268,3.234641215891745,0.050338329322037995
21.465864,3.19363378544238,0.050325778871842496
21.470452,3.1507053013835744,0.050326002306028086
21.475036,3.1121518048488626,0.05033893610367427
21.479624,3.083203576361358,0.05027754447425619
21.48422,3.056054216769148,0.05021479846016476
21.488808,3.0316031605198823,0.05014968013270183
21.4934,3.0139368842607346,0.05002595825631821
21.497992,2.999213280772821,0.0498701245564573
21.50258,2.9846118619990536,0.049696844076311475
21.507172,2.962859109092731,0.04962697025619345
21.51176,2.935709749500522,0.049557978988193384
21.516348,2.9084382051941673,0.04950444734736433
21.520952,2.875525684773634,0.04948085739023587
21.525528,2.8418359146195984,0.04944795112161032
21.530116,2.8135427511514495,0.04940456775381229
21.534712,2.78332853407386,0.04937570875083454
21.539312,2.7522148825486217,0.04934723651120642
21.543904,2.717259123804501,0.049352362477487616
21.5485,2.681281745898587,0.049372144948325855
21.553092,2.6444049335450255,0.049393449580336375
21.557672,2.6112480436962002,0.04940350466960961
21.562272,2.576170100237934,0.04943614364769662
21.566852,2.5422359606556064,0.04943319483711331
21.57146,2.5045818985685426,0.04943736735469419
21.576052,2.463452283405033,0.04942358359940041
21.580636,2.4195021801844345,0.04943253105184924
21.585216,2.3748970119444786,0.049393021867645256
21.589808,2.3264497364856407,0.04938312600850945
21.594408,2.276736472436717,0.04943368972728294
21.599008,2.2302102505873203,0.0494239896953296
21.603596,2.1853607129190733,0.0494295062241388
21.608192,2.1436982174503525,0.04934642655783653
21.61278,2.103712406162782,0.049284777130247724
21.617364,2.066669267646446,0.049178377466774184
21.621944,2.017566927168251,0.04913497884372195
21.626528,1.9664213483664692,0.04915015715469062
21.63112,1.9132325312411003,0.0492309259860319
21.6357,1.8619647677251727,0.04929435783533546
21.640296,1.8097975697615973,0.04936267620041117
21.644884,1.7594292406933176,0.049432726080352166
21.649472,1.7093052810533294,0.04945197128563645
21.654064,1.6648222975275198,0.04941056489148109
21.658644,1.615719957049325,0.049396161177317356
21.66324,1.5577895982574252,0.049612124134866056
21.667836,1.4975716317136474,0.05003278248679701
21.672424,1.4404185226552502,0.05033766743834703
21.67702,1.3793011216638242,0.04792537112375832
21.681616,1.3210042087294878,0.045512577154712554
21.68622,1.2678153916041188,0.04305367074349129
21.690804,1.2174470625358391,0.04059295412723353
21.695404,1.1678559832010618,0.03813096862816023
21.699996,1.1132789927714624,0.0357406770477632
21.704596,1.061644675113098,0.03332629950590191
21.709188,1.0098881727405877,0.030936475760696816
21.713784,0.9625066578921712,0.02852010220833053
21.718372,0.9199888694244307,0.026043812876859553
21.722964,0.8797586887085689,0.023501007172533932
21.727544,0.8377296390974112,0.020956256894535015
21.732136,0.7948011550386056,0.018405343895017787
21.73674,0.7500738020845044,0.015850024381399812
21.741336,0.703303210806816,0.013325059278941037
21.745924,0.6546115659196864,0.010836311677350809
21.750516,0.608740409089646,0.008340467553858782
21.755104,0.5728410744492495,0.005653931647123168
21.7597,0.5420498356178206,0.0027806566188799675
21.764288,0.5099926081963067,0.0
21.76888,0.4766693921847081,0.0
21.773472,0.44118075313537675,0.0
21.778052,0.40244891296456786,0.0
21.782648,0.3635948880796134,0.0
21.787236,0.3257624823564523,0.0
21.791824,0.2916499991380284,0.0
21.796416,0.2574153312054588,0.0
21.801004,0.2249795321681849,0.0
