Time,Force,Position
19.631776,0.0,0.0
19.636368,0.0,0.0
19.640956,0.0,0.0
19.645552,0.0,0.0
19.650128,0.0,0.0
19.654732,0.0,0.0
19.65932,0.0,0.0
19.66392,0.0,0.0
19.668508,0.0,0.0
19.673112,0.0,0.0
19.677704,0.0,0.0
19.682304,0.0,0.0
19.686888,0.0,0.0
19.691484,0.0,0.0
19.696064,0.0,0.0
19.70066,0.0,0.0
19.705248,0.0,0.0
19.709844,0.0,0.0
19.714432,0.0,0.0
19.71902,0.0,0.0
19.723608,0.00035511158367448106,0.0
19.7282,0.000355111583674481,0.0
19.732784,0.0020203532060619816,0.0
19.737372,0.0049957248671624955,0.0
19.741968,0.007482357671680328,0.0
19.746548,0.012667293819141716,0.0
19.75114,0.020306163881255314,0.0
19.755736,0.0275784798009319,0.0
19.760316,0.03460642629231714,0.0
19.764912,0.04421049141250026,0.0
19.769504,0.0536923718185377,0.0
19.774092,0.06215263306278162,0.0
19.77868,0.07241176320232126,0.0
19.783272,0.0843475775230109,0.0
19.787868,0.09771570659655927,0.0
19.792448,0.11251615042296631,0.0
19.797048,0.13181376648761262,0.0
19.801636,0.15278806673340894,0.0
19.806236,0.1704531400655334,0.0
19.81082,0.18775165925522078,0.0
19.815424,0.20396195857635965,0.0
19.820008,0.2218816409685142,0.0
19.824604,0.24169991771198326,0.0
19.829196,0.2668367578758219,0.0
19.833792,0.3026887681459172,0.0
19.838396,0.3431262335515082,0.008608554652949492
19.842988,0.3868390240538816,0.01701340451378966
19.84758,0.43766924687192044,0.025116682661584212
19.852168,0.4952503478631875,0.033066632607413035
19.856756,0.5558624045229458,0.040960810644052055
19.861344,0.6210599163181996,0.04894695326164469
19.865932,0.6909650679630946,0.05704420385464309
19.870528,0.763001740828833,0.06517449537755411
19.87512,0.8384359235054996,0.07321148221207346
19.879716,0.9177563548496771,0.08110560132064816
19.884308,1.0009630348613656,0.08887235874062334
19.888896,1.0810268141221557,0.09679765870009319
19.893488,1.1628114190127246,0.10472355201356243
19.89808,1.2523243797896868,0.11257778593607884
19.902668,1.3475224581294554,0.1203229479296242
19.907276,1.4483615125834026,0.12791593299678813
19.911864,1.5495229797311585,0.13545336226276286
19.91646,1.6450332311329972,0.1429930228309962
19.921048,1.730805790141745,0.15059950877313902
19.925636,1.8024656692333076,0.15829483854990622
19.930232,1.861933922017127,0.1575492944333438
19.934824,1.9142406010366524,0.1570223819445326
19.93942,1.9582419024159452,0.1568394592335824
19.944012,1.9944265650115878,0.15679857302517902
19.94862,2.020751350499994,0.157012826250659
19.953208,2.0442454082995716,0.15691225984159068
19.957808,2.062743315372589,0.15668836516991477
19.962388,2.07305802951952,0.15663761849805344
19.966992,2.077765669369161,0.15664486070317946
19.97158,2.0773991152267235,0.1567346882639825
19.97618,2.0719583670922086,0.15689191342647346
19.980764,2.0665515207745826,0.15671986110931746
19.98536,2.0559482957507327,0.15665172879627806
19.989948,2.0391270728588657,0.156763930641426
19.99454,2.016210036813127,0.15701014658953427
19.999132,1.987241329062144,0.15752820154249833
20.003724,1.9574953715776593,0.15804430348662374
20.008312,1.9302474894564545,0.1586255810040491
20.0129,1.907663105736263,0.15908845842880784
20.017488,1.8905194701505872,0.1594126441424821
20.02208,1.8803710821664308,0.15955580050538917
20.026676,1.8748861925832874,0.15956343934188455
20.031268,1.871244313344068,0.1596188652842944
20.03586,1.8740648014011572,0.15944867752669023
20.040448,1.8869453945451464,0.15887223216243784
20.045044,1.9001586400146833,0.15854082062550662
20.049624,1.9202449483715944,0.15808379297217284
20.054212,1.9520680459965556,0.15720291380506154
20.058808,1.9861448495565057,0.15642460308871547
20.063396,2.02374134764153,0.15566222722589934
20.067984,2.0666564091469235,0.15485448944277716
20.072572,2.1117029918731602,0.15421849692293024
20.077164,2.1619459533056213,0.15349769848485775
20.08176,2.2212274006631887,0.15253690798149674
20.086348,2.2869712153170654,0.15144993918918556
20.090952,2.3613428203049835,0.15010048095474274
20.09554,2.4405001084080604,0.14872344283330963
20.10014,2.5259534376446724,0.147163038846156
20.104728,2.611695277758203,0.14569364041039412
20.109328,2.6996466823580954,0.1442560878674923
20.113916,2.7896413252815746,0.14277240852129164
20.118512,2.873750622662584,0.14154973277857633
20.1231,2.9606804081006826,0.14021050470423102
20.127684,3.0418470327104563,0.13917882513467508
20.132284,3.119660288957931,0.1383199285907359
20.13688,3.196163415166692,0.13744623050355095
20.141468,3.268902477422088,0.136669766994431
20.14606,3.3341575532193817,0.13611096606936138
20.150648,3.4016560953199257,0.13536567526042015
20.155236,3.4624479006958695,0.13475027707660756
20.159828,3.51215798182312,0.13437688055596328
20.164424,3.559492172301235,0.13395334543425916
20.169016,3.6049392109867986,0.133419862896264
20.173604,3.6410592528703356,0.1330086081120692
20.1782,3.6663419399334707,0.13279509511395962
20.18278,3.6782111535474056,0.13283415301839532
20.187376,3.6802646315027316,0.13302808999112822
20.191964,3.6720916782083837,0.13333196517128365
20.196556,3.661254323387981,0.13351773725221813
20.201148,3.6427666559467027,0.13376206769854526
20.20574,3.620226413675139,0.13396064331745886
20.210328,3.603238864620499,0.13382906093889071
20.214912,3.5795004373926287,0.1337262917435067
20.219504,3.5545299233915646,0.1335088883949253
20.224096,3.523463596236628,0.13332717636372268
20.228676,3.488999759270763,0.13311574669519463
20.233276,3.4489729894562373,0.1329633741175925
20.237864,3.4072253940119333,0.13274538066117683
20.242464,3.358771061843029,0.13262170537919865
20.247052,3.315380684034464,0.1322128509204871
20.251652,3.2783643906249527,0.13154652319712457
20.256244,3.2366845988144277,0.1309030548093627
20.26084,3.1897303850321603,0.1303582422079367
20.26542,3.140977302354598,0.12984994498837338
20.270012,3.097087946057712,0.1291763798475731
20.2746,3.0588395658750045,0.12832401808849106
20.279196,3.0227566087300293,0.1273603473593737
20.283784,2.987495042767185,0.1264745289732535
20.288372,2.953543606843054,0.12559085386985858
20.29296,2.923189908709513,0.12459498180746442
20.29756,2.8883831797863615,0.12380559612289471
20.302148,2.848223985625952,0.12324178017833329
20.30674,2.8138720937424937,0.12256547565263841
20.311336,2.780708147183603,0.12191799881820467
20.31592,2.750286645416284,0.12129356649349161
20.320516,2.7227297731546827,0.12067148028309348
20.325096,2.7000807687223856,0.11996693269976119
20.329688,2.6780087860439274,0.11939201210279003
20.334272,2.657535444281102,0.11890719063016682
20.33886,2.6330197673197304,0.11869400200615658
20.343452,2.605605559035752,0.11869693191825278
20.348044,2.581222306420265,0.11881069319460531
20.352636,2.5630570516727955,0.11887486497970434
20.357232,2.553153033116931,0.11879990001244069
20.361824,2.5450920249049886,0.11878258940341552
20.366424,2.5409172653605583,0.11873637338105583
20.371004,2.541938884522352,0.11869447576080788
20.375604,2.55093322899883,0.11846574712373936
20.380184,2.5587057263338515,0.11842077152818373
20.384784,2.5708973526415955,0.1183919065531504
20.389376,2.5918389539975264,0.11817565568288803
20.393972,2.6184656729162636,0.11789434371829699
20.398568,2.6443592835501275,0.11773330660882945
20.40316,2.6740169581373556,0.11757540610766704
20.407756,2.7090712394104712,0.11730099409663484
20.412348,2.7483783234935344,0.11697466221386527
20.41694,2.7879739184535173,0.11672318673192433
20.421536,2.8330883048135336,0.11633979593167809
20.426116,2.884743101735375,0.1157974619251457
20.4307,2.9446149934001933,0.11508074059938717
20.435292,3.011027295626838,0.1141997809331613
20.439884,3.084346562557746,0.11313063663654283
20.444468,3.158809633364594,0.11205348054673657
20.44906,3.2287755319332017,0.11110029677013081
20.453652,3.2983307349107447,0.11012175904609255
20.458244,3.365187634545344,0.10922933358754651
20.462836,3.4326554577506716,0.1083040621956084
20.467428,3.493172174803108,0.10750455531052805
20.472016,3.5576090423399442,0.10651711101478874
20.476624,3.6191812803710635,0.10553947355844553
20.481208,3.6774001500398823,0.10462586076961007
20.4858,3.7318549557553364,0.10371724576859677
20.490392,3.7862656200221623,0.10274214896788483
20.49498,3.838955458659209,0.10172359638410917
20.499576,3.885593625591013,0.10079373466534806
20.504168,3.9273239246935128,0.09991127081386933
20.508764,3.965412344556793,0.09900122796908306
20.513352,3.9979378315714116,0.09812064571841746
20.517952,4.022857147413783,0.09731620992035445
20.52254,4.03722761931267,0.0966396744572029
20.52714,4.045912973648751,0.09599192065636462
20.531724,4.047891591260233,0.09539745462004014
20.536324,4.044062906594761,0.09483289046868557
20.540916,4.040067895766517,0.09420497518814865
20.545512,4.03529563520477,0.09357721419171941
20.550104,4.024227333509488,0.09301854438141312
20.5547,4.0108272826136995,0.09245836354982288
20.559296,3.9976716011462026,0.09186911913107546
20.563892,3.9791193129928186,0.09133887622066918
20.568484,3.9550482334394013,0.09087673941329975
20.57308,3.927623785523684,0.09042721534713917
20.577656,3.9001993376079676,0.08997263362356675
20.582244,3.870976020796955,0.0895317794193978
20.586836,3.8380327814812056,0.08913566214128489
20.591428,3.8062333460413953,0.08869944661875497
20.59602,3.773534476153937,0.08826672994312607
20.600612,3.744188974628778,0.08781508765812379
20.605208,3.7133331150852436,0.08742956784390364
20.609796,3.681744147256835,0.08711751282671311
20.614392,3.6537529172190175,0.0867623705785794
20.61898,3.6320577283147353,0.08633340999639566
20.623576,3.6098738005538697,0.08595043546541462
20.628172,3.591043241155305,0.08555149920063009
20.63276,3.575443865404894,0.08515215861489353
20.637356,3.560621739387986,0.08475524207251493
20.641944,3.555160511989993,0.08423199999098584
20.646532,3.5454906232306795,0.08380324573822814
20.651128,3.539296287547813,0.0833523549558526
20.65572,3.5353115163513076,0.08292317601814307
20.660316,3.542119958526576,0.08239696114859438
20.664904,3.5540806379594394,0.08184811603298497
20.669504,3.5693946857546037,0.08129737816841628
20.674084,3.5840978099790393,0.08080724739190916
20.678684,3.603953171461071,0.08029714792217638
20.683268,3.625895912715317,0.07982938529734734
20.687868,3.6549119448366008,0.07932430245323631
20.692464,3.685604661139035,0.0788269029390323
20.69706,3.723737222450943,0.0782533279443978
20.701656,3.7686545637529685,0.07758247583164776
20.706248,3.8168030887031485,0.07692479937798521
20.710848,3.8575559100924823,0.07643258012402096
20.715444,3.899863230948821,0.07594997844541805
20.720032,3.944624485719812,0.07548234769075428
20.724628,3.9873425021672153,0.07506124590893799
20.729216,4.031859387509915,0.07463930359469896
20.733804,4.074577403957318,0.07424727187159826
20.738396,4.118972104585872,0.07384681899824729
20.742992,4.164021870233782,0.07347311619822519
20.747584,4.212913743100574,0.0730623445125073
20.752164,4.254487955672039,0.07272084560550374
20.756752,4.292464430452911,0.07240605262795538
20.761327999999995,4.32864203633849,0.0721085263868534
20.76592,4.370704987766537,0.07174394456054564
20.770508,4.41481117751817,0.07136311046539125
20.775096,4.4583844869645946,0.0709612250646477
20.779688,4.495539570563337,0.07061206733982861
20.784276,4.531673035000286,0.07028380814496138
20.788864,4.564986011380145,0.06998803868879083
20.793455999999995,4.593924000235911,0.06970995213977464
20.798048,4.617709751834081,0.06943725820842339
20.802648,4.64517128448836,0.06907333031895552
20.807228,4.67234430626572,0.06866791874817077
20.81182,4.687702495509513,0.0683207792149589
20.816404,4.7016283700004475,0.0679537620667943
20.821008,4.7090138339295535,0.06763463388448744
20.825592,4.714356059535074,0.06734514740537095
20.830184,4.722763142625974,0.06701572285555187
20.834776,4.727039607621072,0.06667792144418823
20.839368,4.725919465930285,0.06636437728482865
20.84396,4.726065312829581,0.06601817310534472
20.848556,4.727477148318962,0.06563950657958904
20.853148,4.7282339187889875,0.06524645829819374
20.85774,4.721673028963684,0.0648913767482604
20.862328,4.707916663557198,0.0645624326566068
20.86692,4.692483613969561,0.06422921308577416
20.8715,4.675373880200773,0.06388971961606205
20.876092,4.654377897764475,0.06351576775781122
20.880684,4.627085874194642,0.06315969912160539
20.885264,4.602858708110191,0.06276350982339089
20.88986,4.582595833958767,0.06232519756860226
20.894435999999995,4.559512471750255,0.061901040957223125
20.899024,4.53336425205636,0.061508700477744954
20.903628,4.5157996812478824,0.06104869940535994
20.908216,4.497091306563461,0.060607003453387556
20.912824,4.480303985488484,0.060145502434348
20.917412,4.463761033841797,0.05966352627497016
20.922016,4.442843094671016,0.05918134988615159
20.926612,4.42462345884318,0.05868974394271587
20.9312,4.4074254421771375,0.0581821746832699
20.935792,4.386263133578066,0.05770727651232975
20.94038,4.363712651674764,0.05727144109497761
20.944976,4.336420628104931,0.05685954467720035
20.949552,4.310028038982747,0.056440011253619304
20.954152,4.2824916459846225,0.056035184211781185
20.95874,4.253933633824705,0.055637346337864504
20.963344,4.227951740293586,0.05524064335518426
20.967928,4.199437869582297,0.054901511757069824
20.97252,4.176687159699332,0.054515708311511785
20.977112,4.1485839845791075,0.05420747679401932
20.981708,4.120358624744738,0.053906437186937134
20.9863,4.089967841872635,0.05363415255882336
20.990892,4.059454874286387,0.05336873176873712
20.995484,4.030085710576078,0.05307583757862148
21.000076,4.000594362151623,0.05279059818302653
21.004668,3.9731462520507552,0.05247806379082534
21.00926,3.9427554691786524,0.05218529901424425
21.013848,3.914940804935348,0.05189531148668772
21.01844,3.8803413607019257,0.05165007790578016
21.023036,3.845130992897775,0.05145763508592987
21.027624,3.8133961781700707,0.05127056136507432
21.032216,3.780884113708863,0.05107121507126503
21.036796,3.7528692214858954,0.050864271519825574
21.041388,3.7243655904063453,0.05070079866940466
21.045976,3.695495405184358,0.05057009834753444
21.050564,3.6653592313722854,0.05047316616307433
21.05516,3.6304815158936825,0.05040356074705957
21.059747999999995,3.601244776529258,0.05030419370603676
21.064336,3.5670221260700115,0.05025261247106346
21.068932,3.5339432794867043,0.05017553040187497
21.073532,3.4957563370944293,0.050162594901825806
21.078124,3.4620665669403934,0.050145587090748345
21.082716,3.431319469557592,0.05009894703292845
21.087312,3.39893982944227,0.05012301603317568
21.091892,3.367581808488741,0.05013312813629491
21.096492,3.3358572333927743,0.05017717538149358
21.10108,3.3028666697067237,0.05026245937238417
21.10568,3.2687323021447336,0.05037154164212118
21.110272,3.2421599643063628,0.05043766286508852
21.114868,3.215054746162781,0.05046727202398808
21.119448,3.1861506591239044,0.05049829292130958
21.124044,3.1523828457043512,0.05057534759120512
21.128632,3.116693978675357,0.05066632739597106
21.133228,3.0795727968935034,0.05072107097942988
21.13782,3.0456386573111764,0.05071905807142953
21.142412,3.0138699407665825,0.050672169612541444
21.147,2.9858211467267255,0.050609258197698924
21.151592,2.955851299077426,0.050560630150862276
21.15618,2.9276803203234234,0.050510164437190926
21.16078,2.89812116826519,0.050522349036490166
21.165372,2.8717490584064826,0.050472304668895754
21.16996,2.841779210757184,0.05042539298091247
21.174552,2.8106655592319463,0.050406416389547154
21.179132,2.7760763546302627,0.05037705484255001
21.183716,2.737522858095551,0.05040111969622698
21.1883,2.6971704926655438,0.05042755919481425
21.192888,2.66090460388271,0.050386095189287924
21.197492,2.6228398462045805,0.050346490972027785
21.202072,2.579134112412273,0.05034054515904124
21.20666,2.5345289441723176,0.05033027333522165
21.211256,2.4871032878752724,0.05034417850344571
21.215856,2.450304518787228,0.05023831640924533
21.220452,2.4106852616420946,0.050153491433075646
21.22504,2.372620503963965,0.050102663774430824
21.229632,2.3341891921433984,0.050104382413840645
21.234212,2.2924486534091604,0.0502085132180042
21.238812,2.2490314304937726,0.05029437292402743
21.243396,2.2039375233972343,0.050360921108946084
21.248,2.1578219971389023,0.0504557505997873
21.252584,2.1111735905753597,0.05050762669562051
21.257176,2.06248194568823,0.05059792010375386
21.261776,2.0159557238388333,0.050607524875142335
21.266368,1.9646879603229055,0.05068258250057492
21.27096,1.9140752618263346,0.05082177441545806
21.275552,1.869470093586379,0.050828019695267464
21.28014,1.8248649253464235,0.05083594821711718
21.284728,1.7782165187828807,0.05088505051482267
21.289316,1.7296470586098966,0.05097655921439436
21.293911999999995,1.6809554137227671,0.05111247698258864
21.2985,1.63304101856914,0.0512732941500599
21.303096,1.586148242577306,0.05142628928281162
21.307687999999995,1.5305496329859132,0.051733036065672006
21.31228,1.4818579880987834,0.051839322745660624
21.31688,1.4334107126399454,0.0518870910606146
21.321468,1.383286752999957,0.05192041473221298
21.32606,1.3392925083307299,0.05174845927712733
21.330644,1.2979965670044462,0.051552027005423565
21.335232,1.2554346370880776,0.0514634517685557
21.339828,1.2159375646570896,0.05125421956877593
21.344416,1.1774621113878951,0.05098720956665579
21.349004,1.1397639078522028,0.05076051282999343
21.3536,1.0968354237933973,0.04824563952240522
21.3582,1.0586484814011223,0.04566454503968036
21.362791999999995,1.0217275275989324,0.04301612851983355
