Time,Force,Position
24.096176,0.9464269318748852,0.026122814533396318
24.100768,0.8995341558830515,0.024099016435488244
24.105364,0.8523970104629262,0.02209073782768819
24.109956,0.80808035309989,0.020131920695879178
24.114544,0.7734911484982064,0.01810734925690572
24.119124,0.7383690635913122,0.016020424926818166
24.123708,0.6981388828754501,0.014008078066739831
24.128284,0.6576643327312969,0.012054539267260902
24.132888,0.6128589365116781,0.010207233407932035
24.137476,0.5610243908736504,0.008450778446466934
24.14206,0.5158524405115945,0.006711374837418971
24.146664,0.47080267486368443,0.005011073669776875
24.151252,0.432537689205892,0.0032920931292466484
24.155852000000003,0.3960715724433953,0.0016301710476085698
24.160444,0.36716748540451843,0.0
24.165048,0.345214504518533,0.0
24.169632,0.32289496949011054,0.0
24.174232,0.3077709100428709,0.0
24.178816,0.3031956945391141,0.0
24.18342,0.3032839774363703,0.0
24.188012,0.3096343996502722,0.0
24.192608,0.32380146064782406,0.0
24.1972,0.35130395182905866,0.004822839610977524
24.201792,0.3846239849189843,0.010333454523416987
24.206384,0.4183649532317139,0.01645939710357386
24.210976,0.4629093745479565,0.022792071114370198
24.215564,0.5234875293908254,0.029069442658813636
24.220156000000003,0.5978118100084421,0.035365089586713416
24.22474,0.6833060977720089,0.04181380144732543
24.229332,0.7844675649197651,0.04828430461680293
24.233912,0.8924681931380056,0.05485968094742699
24.238504,1.0062863632649373,0.06164227415712339
24.243096,1.1255113797094949,0.06849692958271612
24.247684,1.2492438080240305,0.07549659243838477
24.252276,1.3801819515514877,0.08246256368991567
24.25686,1.5167713108248624,0.08947061092612932
24.261452,1.6635090580823935,0.09646468029888984
24.266044,1.8136884565994806,0.10353783013145117
24.270632,1.9630567035661763,0.11065395663823754
24.275236,2.1227294250480635,0.11759961930356824
24.279824,2.2815807553478207,0.12453519246572174
24.284412,2.4394443683026736,0.13141994413674934
24.289004,2.587570288864435,0.13348829518013394
24.2936,2.734253655041599,0.1347537043773713
24.298196,2.882192770177109,0.13526223197500004
24.302788,3.0255022887284952,0.13549062511542798
24.30738,3.1600957340485833,0.13574562502153845
24.311956,3.283641356936868,0.13599472527753168
24.316556,3.3999812646122303,0.13607307388007303
24.321136000000003,3.502819415941136,0.13618314994505865
24.325732,3.5928108759429422,0.13630030171526586
24.330324,3.6773954896271226,0.13621694199377268
24.334916,3.7587828214800374,0.13599406891425683
24.339496,3.835051817892247,0.13565785444007825
24.344092,3.896186515225477,0.13550024380524547
24.34868,3.947950074308053,0.1353459432753376
24.353272,3.9896874301206187,0.13520562060888291
24.357852,4.029371307977858,0.1348960834081603
24.362444,4.062793046518451,0.13456896505491056
24.367024,4.081368996856987,0.13448326346836711
24.371616000000003,4.099900805746893,0.13433034424425241
24.376208,4.113402562093349,0.13426005633026744
24.380796,4.123428765363361,0.13425471981203985
24.385392000000003,4.128835611680986,0.13436454983849758
24.389972,4.125658809113199,0.13470252495994633
24.39456,4.119006453468965,0.1351007064583515
24.399152,4.106302426119489,0.13561072029326898
24.40374,4.096785440969539,0.13600601698246842
24.408344,4.088412259695526,0.1363524942560231
24.412932,4.090421596202225,0.1364419897273007
24.417536,4.101503320450918,0.13626955930848408
24.422128,4.114095402717989,0.13602049690072515
24.426724,4.118059694651016,0.13591225751854766
24.431324,4.123900898744859,0.13568965241428196
24.435924,4.1368934369712544,0.13525302266926945
24.440528,4.151396333216027,0.13473550113886826
24.445104,4.163323110832002,0.13425537187076353
24.449708,4.169975466476235,0.1338746999057181
24.454292,4.177360930405342,0.13342046105543254
24.458892,4.186911817372182,0.13288774091446254
24.463472000000003,4.193231520690868,0.1323962461070478
24.468072,4.200817212599638,0.13184895555944265
24.47266,4.2154320539268175,0.13110780529913701
24.477256,4.232334503005875,0.1302898849101216
24.48184,4.253323428732107,0.1293475821203364
24.486432,4.275089604191842,0.12840381125486686
24.49102,4.302374571051607,0.1273366580602706
24.495616,4.3255730612642,0.12639754522108346
24.500204,4.344274379238555,0.12554597788379018
24.504792,4.3507943105369025,0.12497307567173288
24.50938,4.354127199635724,0.12450807250363095
24.513976,4.355783404553397,0.12406662326757664
24.518568,4.36193678170931,0.12354024129348519
24.523144,4.366046920541634,0.12307347592112569
24.52774,4.369135440212165,0.12263830731721125
24.532316,4.370180721559109,0.12225617926799404
24.536900000000003,4.373802121534851,0.12183665895648037
24.541496,4.381021259301185,0.12135599316086766
24.546084,4.387996027639227,0.12090070359976689
24.550692,4.399590152929654,0.12036377410628749
24.55528,4.4081194207347,0.11990406184003663
24.559868,4.415749254092099,0.11945960030663255
24.564464,4.420314229964117,0.11910126714203643
24.56906,4.421936533064901,0.11881085528656801
24.573652000000003,4.421759967270389,0.11854933354093485
24.57824,4.419373836989514,0.11828451547386425
24.582836,4.414533772793989,0.11803950147516844
24.587416,4.410959697188548,0.1177460649342621
24.592016,4.40983955549776,0.11743158902784627
24.596604,4.410396097988121,0.11709450665362647
24.601204000000003,4.403634980183154,0.11688513468147987
24.605796,4.3953635043598105,0.11674876872470079
24.610392,4.3891352668600545,0.1165591623007498
24.614976,4.383806463807946,0.11635487879708507
24.619568,4.376556607146395,0.11619058119786588
24.624156,4.374048292151376,0.1159319557092974
24.628752,4.37370540019409,0.11561194090112097
24.633328,4.373362508236804,0.11529480959700572
24.637924,4.374696300460667,0.11496356164855893
24.6425,4.371166366303854,0.11473426279038504
24.6471,4.3753206465848065,0.11435731321172848
24.651688,4.381151611046909,0.11396619105819526
24.656284,4.386616021366576,0.11361025358833866
24.660876,4.392613311991452,0.11327395562470878
24.665460000000003,4.403107774854568,0.1128781721827431
24.670044,4.417610671099341,0.11246617864122233
24.674632000000003,4.433545882096972,0.1120634101891923
24.67922,4.452057211723401,0.11163996667027096
24.683828,4.473266844692774,0.11118425420947022
24.688416,4.502038507385767,0.1106039402300738
24.693024,4.5371062112122935,0.10992786317441974
24.697612,4.574872218381765,0.10921488369420705
24.7022,4.614070540304095,0.10852732160093348
24.706796,4.651758504208049,0.10790641749683239
24.711384,4.6957425092455365,0.1072159303296807
24.71598,4.740015025159944,0.1065837820871168
24.72056,4.784698236665418,0.1059949006550713
24.725156,4.826072221257219,0.1054917130246954
24.729744,4.865280782811287,0.10504393536271357
24.734344,4.907187647708299,0.10456493678825819
24.738932,4.942720428206259,0.10423859766484628
24.743532,4.979685523457077,0.10392567560783653
24.748112,5.014607380384309,0.1036508290565688
24.752704,5.05120592149269,0.10336481748273041
24.757296,5.0866606587251315,0.10311939906878623
24.761888,5.122115395957573,0.10288091330306585
24.766492,5.1602684365329585,0.10261816097808173
24.771088,5.195356619622963,0.10241648541953725
24.77568,5.230566987427113,0.10221213157084923
24.780272,5.265777355231264,0.10202023998543536
24.784856,5.306506514435447,0.10177343069363784
24.789452,5.349401096677364,0.10148925843617797
24.794040000000003,5.391396244471633,0.10122175595861399
24.798632,5.435434630589489,0.10091852500161885
24.803216,5.473832040593165,0.10069049552973029
24.807796,5.508998266948687,0.10047283147427916
24.812392000000003,5.543387243570708,0.10025850255761307
24.81698,5.583006500715841,0.09995463443682753
24.821568,5.625690615346355,0.09960335015116431
24.826152,5.665676426633926,0.09927747036321391
24.83074,5.707416965368164,0.09888194099100289
24.835344,5.747969558777836,0.09846564427491696
24.839928,5.7910541293676765,0.09798242032550969
24.844524,5.8356490579758935,0.09745676873120862
24.849116,5.875868999060016,0.09696426121319264
24.853716,5.9136350062294865,0.09648362991980304
24.858308,5.9442055378177745,0.09606472206045347
24.8629,5.975631362405082,0.09558933260222581
24.867492,6.0034594492018005,0.09514765196888252
24.872072000000003,6.021027202931954,0.09481328303323196
24.876672,6.03176603522336,0.09451900569655114
24.881256,6.038907129724175,0.09425651718295454
24.885856,6.041140356395687,0.09400499958399952
24.890448,6.042307822456776,0.09372054813410119
24.895044,6.040366289583857,0.09343041641279838
24.899632,6.039812930015169,0.0931018609651182
24.90422,6.036272756226618,0.09276106497793671
24.908808,6.025414922142738,0.0924827737128752
24.913404,6.011448089124849,0.09219945735133875
24.917992,6.000790483020634,0.09185643634686876
24.922576,5.990132876916416,0.09151298980839676
24.927168,5.980496889973993,0.09115606531374565
24.931764,5.9711052724598614,0.09078401899714277
24.936348,5.957216482707489,0.09044274570926127
24.940928,5.946270365726353,0.09006691353684275
24.945524,5.935446433459363,0.08968302455500633
24.950112,5.930752216163134,0.0892154881366696
24.954692,5.927612498333908,0.08875319787696412
24.959288,5.925616584380623,0.08826925796833379
24.963864,5.933470307902835,0.08767226079599878
24.968464,5.942101281158549,0.08707778784868467
24.973048,5.95085443912841,0.08647677909399543
24.977636,5.961939346298776,0.0858800657608808
24.982228,5.974700937650292,0.0852842354275888
24.98682,5.994902374011284,0.08463166971525704
24.991412,6.013837821782191,0.08401111861429306
24.995992,6.0390693106866316,0.08336086815859786
25.000592,6.068920156543458,0.08267562200247154
25.005180000000003,6.0993038827054935,0.08201019368880887
25.00978,6.130587043315178,0.08135091392356161
25.01436,6.165834495857892,0.08065947161299158
25.018956000000003,6.198261460343515,0.07999472915148417
25.023548,6.232120739581998,0.07935106735241708
25.02814,6.269699941325217,0.07868567163202692
25.032744,6.3072791430684365,0.07802607679807311
25.037336,6.346535028992806,0.0773701710977867
25.04194,6.39016590244127,0.07671744794643084
25.046532,6.4339189606038785,0.07606660832057047
25.05112,6.48151412598537,0.0753955779725608
25.055708000000003,6.525800064453191,0.07478081032340755
25.060296,6.570086002921009,0.07416951237182029
25.064892,6.615393560550623,0.07355282446536691
25.06948,6.662866541217968,0.07291357915966082
25.074076,6.709195718009375,0.07229835732279714
25.078668,6.7515606028677535,0.07172506302822648
25.083248,6.795069291602071,0.07113922063377072
25.087848,6.8347358731175065,0.07058940000976299
25.092428,6.876445692956528,0.07002783197309939
25.09702,6.92007656640499,0.06945808783241089
25.101616,6.960642582368074,0.06892290071943179
25.106204,6.998920990579278,0.06842782744164708
25.110804,7.0409193212952195,0.06792023666899939
25.115388000000003,7.0813631525441565,0.06741125550135112
25.119976,7.119763745469506,0.06692427938965685
25.12458,7.158286523109002,0.06643552089168586
25.129168,7.1942331821197,0.06595065124782636
25.133764,7.221718376959131,0.06551163604658439
25.13834,7.248181952636767,0.06508508346020192
25.142940000000003,7.2679829330384305,0.0646947225360061
25.147516000000003,7.286351598687237,0.06429145252839477
25.152116,7.3058640682119815,0.06387631717379173
25.156708,7.322433864965492,0.06348017619442543
25.161304,7.338104227271355,0.0630892047884385
25.165896,7.3513206556625645,0.06269246218663055
25.170488,7.366580322377361,0.06228217670174577
25.175088,7.379918935482717,0.061882774598363076
25.179684,7.389415441369191,0.061501979373748114
25.18428,7.393026601713195,0.061156078528550505
25.18888,7.394961077876049,0.06080895231423343
25.193468000000003,7.393297816248309,0.06046680606154111
25.198064,7.387503936524769,0.0601144087639569
25.202652,7.378234503724782,0.05976291107124392
25.207244000000003,7.36524514842006,0.05942208038399466
25.211832,7.352622347257774,0.05906315936291093
25.216424,7.336279623590749,0.05871429249677836
25.221020000000003,7.319936899923725,0.05836417649830625
25.225608,7.304615795418496,0.058005289149658294
25.230204,7.284553149246734,0.05766291198040621
25.234792,7.265512122236768,0.05731084630302867
25.239384,7.246471095226799,0.056957175194201834
25.243972,7.227185698788541,0.05661543982821912
25.24856,7.209943540673871,0.05625832397134122
25.253172,7.187959840892669,0.05591637167474563
25.25776,7.164832337235528,0.055584608787168616
25.262364,7.136841107197712,0.05527436591813603
25.266948,7.108727692445749,0.05496849661744804
25.271548000000003,7.083801319893313,0.05463389893450052
25.27614,7.064760292883345,0.054269585097976934
25.28072,7.045597081159234,0.05391056371895034
25.285312,7.0300316072257125,0.05354646228040688
25.289892,7.017697316940345,0.05319621265903634
25.294488,7.003852668636602,0.05287514077928965
25.299076,6.996548430894686,0.05253781313616744
25.303676000000003,6.986956585400891,0.05222468092602154
25.308264,6.9791636088023905,0.05190878314419038
25.312864,6.971370632203892,0.05159201964094848
25.317448,6.961534417281804,0.05128655933850918
25.322044,6.9554181248644555,0.05097168424012487
25.326632,6.952000135790049,0.050655261597329235
25.331228000000003,6.950913895916151,0.05035642463163819
25.335816,6.9448417449474285,0.0500823983533939
25.340412,6.935582551779181,0.049832470810438394
25.344988,6.93171996529682,0.04958011693573105
25.349576,6.933376170214494,0.049320321768285
25.35416,6.942716589569931,0.04903583713761913
25.358752000000003,6.954755312268313,0.048751731351597875
25.363344,6.964384242500671,0.04849805672953389
25.367924,6.969027261638206,0.04826989965405458
25.37252,6.969705988842715,0.04805910363046725
25.377108,6.971406335209015,0.04784276989234541
25.3817,6.967998585766348,0.04765582072653846
25.386288,6.966511889933122,0.04746231765239423
25.390876,6.957096610233839,0.047304967604313415
25.395488,6.948580764982204,0.04714693154846619
25.400072,6.942274484216932,0.047013363548076816
25.404672,6.936745453185159,0.046885600926112006
25.409268,6.931749302458598,0.046775369608380135
25.413856000000003,6.924054848389092,0.046664247415149636
25.418452,6.914439340710147,0.0465586553967124
25.423044,6.900326660792961,0.046451904997058695
25.427636,6.8862139808757785,0.04634420810835633
25.432216,6.874921789015683,0.04623029508209262
25.436812,6.858888055489057,0.04612748622805502
25.441392,6.837091161134106,0.04604154778998912
25.445988,6.800825272351272,0.046000908649220074
25.45058,6.758018973006612,0.045970138974330464
25.455176,6.711492751157216,0.04594463774128384
25.459760000000003,6.662023856536584,0.04593080799054731
25.464352,6.616397069134835,0.045904083331062176
25.468944,6.565007120904762,0.045893339184563946
25.47354,6.513206477083624,0.04585676045057684
25.478124,6.454865422700659,0.04583076371979082
25.482712,6.396890922460131,0.04578348939452963
25.4873,6.337117553324308,0.045733877640423574
25.491888000000003,6.270270893321447,0.04567490277732076
25.49648,6.196761638042615,0.04563238024611164
25.501064,6.1211650029915665,0.04555227959019361
25.505656,6.042381325740992,0.04549768239490712
25.510248,5.9595111718432445,0.045469230593784514
25.51484,5.873820529888408,0.0454448371634986
25.519428,5.788252072647716,0.045413360529438125
25.524016,5.699330247044724,0.045360315696017284
25.528624,5.607832302812935,0.04529557053622478
25.533212,5.513758239952347,0.045218564198905194
25.537816,5.423770653738933,0.04511148082693056
25.542404,5.331984198630225,0.04499982379000129
25.547004,5.242240981845104,0.04487011820490894
25.5516,5.151720515326479,0.04472911508205822
25.556196,5.05351583437009,0.04461366831175016
25.560788,4.957110022308996,0.04449686546273314
25.56538,4.86160364469555,0.04437426750060385
25.569976,4.767241070958042,0.04422954005127
25.574552,4.6676482166974225,0.04413419914595001
25.579152,4.565112689665568,0.04405216323187085
25.583744000000003,4.458979424843121,0.04396099334058447
25.588348,4.353867779182468,0.043857735967946156
25.59294,4.249411198541171,0.04376204554782208
25.59754,4.144299552880518,0.043643135340618304
25.602124,4.038655026914656,0.04348695451959777
25.606720000000003,3.9310894473393496,0.04333324401550581
25.611312,3.825567106087632,0.043148489533027246
25.615908,3.7177571570840353,0.04299354857769302
25.620496000000003,3.6058607314332645,0.042876817093651966
25.625088,3.491921067458907,0.04277226703731323
25.629676,3.3806797068274927,0.04265667815794233
25.634264,3.272913899272525,0.04255753217958819
25.638852,3.1632270381081153,0.04245549287123944
25.64344,3.0525185577819123,0.04235881648793305
25.648032,2.9430760660457933,0.04220631964826295
25.65262,2.8263159140143466,0.04203662826028679
25.657212,2.706613089211665,0.041875476859115975
25.6618,2.5867880796948377,0.041701786113856824
25.666392,2.4741144043105643,0.04139813169409528
25.67098,2.359764044745142,0.04103007210521581
25.675568,2.2527313454750475,0.04062454986293134
25.680176000000003,2.1494185687096903,0.04017469735215343
25.684764,2.044184738334891,0.039675550123568874
25.689372,1.9416492113030364,0.03913422851494428
25.69396,1.8391136842711813,0.03847934086751208
25.69856,1.7413196989058572,0.03772167131873571
25.703156,1.6377625527122088,0.035653708364074874
25.707744,1.5331837873567664,0.03358377258309423
25.712348,1.4362892364390898,0.03148832190101158
25.71694,1.3438918577596521,0.029393961669516962
25.721532,1.253171163261365,0.02732452974490825
25.726124,1.159752165420134,0.025244769228169265
25.730724,1.0699309053694948,0.023181077981368446
25.735304,0.9875494903283295,0.02111797663741016
25.739904000000003,0.9103203125447599,0.019098907493633632
25.744488,0.842085479237669,0.017100080965420813
25.749088,0.781290490940052,0.015107338484202676
25.753680000000003,0.7249926748806744,0.013144713035587332
25.758272,0.668206119964714,0.011278817606999425
25.762864,0.6186150406299364,0.009472698511225525
25.767456000000003,0.5707006454763092,0.0077159722707055
25.772052,0.5244629345038315,0.0060113620185334145
25.776644,0.48439907995074327,0.004374364607098138
25.78122,0.4508756359594815,0.0027902645937226698
25.785816,0.4254471019970502,0.0013434488325773748
25.790404,0.4036163058252104,0.0
25.794992,0.39102422355814054,0.0
25.799592,0.38791522462413186,0.0
25.804184,0.3885261481948602,0.0
25.808776,0.39310136369861703,0.0
25.813364,0.3994754480976696,0.0
25.81796,0.4126343124868398,0.0
25.822548,0.4266926113236577,0.0
25.827152,0.4360093684939451,0.0
25.83174,0.4485131678637587,0.0
25.836328,0.46216077110951154,0.0
25.840924,0.47208845185052717,0.0
25.845512,0.4835706320585474,0.0
25.850112000000003,0.496074431428361,0.0
25.854704,0.507556611636381,0.0
25.859292,0.5159739343590205,0.0
25.863884,0.5224702034722186,0.0
25.86848,0.5235698658995297,0.0
25.873084,0.5198058019461645,0.0
25.877664000000003,0.5104007618786208,0.0
25.882264,0.5000962873634295,0.0
25.886852,0.4877485745246508,0.0
25.891456,0.46849389698160887,0.0
25.89604,0.4470737964008342,0.0
25.900644,0.42438770722997476,0.0
25.905224,0.3970822611067304,0.0
25.90982,0.36748920723160755,0.0
25.914416000000003,0.33957283753763473,0.0
25.919008,0.31513202092010767,0.0
25.923596,0.2873819773889088,0.0
25.928184,0.2595097491435641,0.0
25.932772,0.23715631229825235,0.0
25.937356,0.2152916143095232,0.0
25.941944,0.1944485354825876,0.0
25.946544000000003,0.1767924988551782,0.0
25.951132,0.16052463553199936,0.0
25.95572,0.14527839137061405,0.0
25.960312,0.13849361138049643,0.0
25.9649,0.13362988499982012,0.0
25.969484,0.1344071347333223,0.0
25.974076,0.1328967767149461,0.0
25.978664,0.13265240728665476,0.0
25.983272,0.14021443701027456,0.0
25.987848,0.14981970505748143,0.0
25.99244,0.15864772337118613,0.0
25.997032,0.17401615224671713,0.0
26.001628,0.1913056347316895,0.0
26.006224,0.21165997470204242,0.0
26.010804,0.23250305352897807,0.0
26.0154,0.25461212094599855,0.0
26.01998,0.27852005725831475,0.0
26.024576,0.2985858863517482,0.0
26.029168,0.3195511498928295,0.0
26.033764,0.3403942287197651,0.0
26.038348,0.35600702702358755,0.0
26.042944,0.37803805117509043,0.0
26.047536,0.40084632506009565,0.0
26.052132,0.4207119261738659,0.0
26.056728,0.44057752728763616,0.0
