Time,Force,Position
30.078143999999995,0.8507652559205899,0.01709224553829106
30.082724,0.8054269793957602,0.01515881308396517
30.087323999999995,0.7571460300996958,0.013251285240424907
30.091911999999997,0.7111968300041378,0.011433658824721943
30.096512,0.6623049571373449,0.009668652863335481
30.101099999999995,0.6143125187181999,0.007948598227734792
30.1057,0.5688961989278528,0.006309971520713621
30.110296,0.5186161527568294,0.004706438894376443
30.114895999999995,0.47271109410989964,0.003147539639430934
30.11948,0.4328577071682135,0.0015572043056895826
30.124072,0.39472514585630547,0.0
30.128671999999995,0.36285472386104317,0.0
30.133264,0.3371242564682806,0.0
30.137868,0.3192104278591681,0.0
30.142464,0.30989048776720773,0.0
30.147051999999995,0.31071893565940384,0.0
30.151644,0.32566006346878484,0.00806218144198686
30.156236,0.34666310261514827,0.016231864154529662
30.160819999999998,0.3771594647263117,0.02452584901828022
30.165412,0.4140842923168944,0.03300701906405128
30.170004,0.4688417223293992,0.04102575580926121
30.174595999999998,0.5326037364501213,0.049148839943443746
30.179184,0.607291388288502,0.0572100376114556
30.183784,0.6913501783775372,0.06516408394701122
30.188371999999998,0.7909539631366158,0.07296456867873227
30.192967999999997,0.8946986056232354,0.08100521129829302
30.197556,1.001440301961457,0.08927150463674098
30.202144,1.1293679690839007,0.09713208316792675
30.206751999999994,1.2693650777999421,0.10488467504104713
30.211344,1.422286921108601,0.11241583882317437
30.215951999999994,1.5820818273046342,0.1199639143298424
30.22054,1.746862644595489,0.12741749095506832
30.225131999999995,1.9149526888000161,0.13479438221738282
30.229719999999997,2.08144409208891,0.14214279765824833
30.234308,2.245926158871107,0.14949696572544874
30.238904,2.408765443289043,0.156745448203389
30.243492,2.5611339270290134,0.15599756246934915
30.248092,2.7053192178428973,0.1552538766211174
30.252672,2.8469622918448723,0.15433979348411297
30.257268,2.986962583482587,0.1531942153233705
30.261855999999995,3.1178802477465672,0.1524900566355589
30.266456,3.2477660532170147,0.1515596671571247
30.27104,3.3706124696373143,0.15070598429592916
30.275636,3.486830192598531,0.14997879016144947
30.280244,3.5948647226336607,0.14941165668136175
30.284836,3.7053429469517045,0.14849687829807565
30.289424,3.815933116352155,0.14727996956035785
30.294023999999997,3.909467933064185,0.14652708973870376
30.298616,3.997229349316153,0.14579616128937758
30.303208,4.0723104004037936,0.1453029764742278
30.307796,4.144971419393673,0.14471647441711336
30.312383999999994,4.212680429105618,0.14417337339036995
30.316972,4.276214679273133,0.14365699173706276
30.321568,4.338927538258519,0.1431041612046729
30.326164,4.403761678833009,0.14243584642352228
30.330752,4.461889082682898,0.14188856686060358
30.335344,4.522626506978475,0.14116817782155444
30.339924,4.588550070348537,0.14022744780441734
30.34452,4.6531193622312585,0.13924518082887455
30.349104,4.712370090693611,0.1383051016413072
30.353691999999995,4.765525006002089,0.13740181854250147
30.358296,4.811440304280758,0.13659812774507943
30.362888,4.853547397157434,0.13575086462568592
30.367476,4.892212838774552,0.1348309383310975
30.37206,4.929357682741555,0.1338033916290359
30.376648,4.9601182026777675,0.13279627692239226
30.381243999999995,4.983106225278959,0.13184796906507087
30.385824,5.004329280801743,0.13079269438500118
30.390424,5.015203720360708,0.12982406045506137
30.395011999999998,5.021126150641741,0.12883662489886924
30.399612,5.017477214692455,0.12792618348379617
30.4042,5.0068330311416505,0.12705318884011982
30.408804,4.986495296646382,0.12625978627234732
30.413388,4.956708380634942,0.12552413903165086
30.417979999999996,4.916861359536601,0.12489910399332321
30.42256,4.873861198055624,0.12421941535885174
30.427156,4.819168388755226,0.12373389523074226
30.431743999999995,4.756092158549076,0.12332920567669214
30.436339999999998,4.685942637475891,0.12302296535404753
30.440928,4.61395010605878,0.1226718330023724
30.445516,4.544367367107695,0.12221793028106862
30.450104,4.471431259794308,0.1217945780001508
30.454699999999995,4.396696283585626,0.12139069898151027
30.459292,4.318241384872206,0.12104876584113372
30.463871999999995,4.233901140616316,0.12083192867388273
30.468467999999994,4.145352234999108,0.12072315458853403
30.473056,4.056681144667754,0.12061848083874427
30.477652,3.9691979996609676,0.12052422168159246
30.48224,3.883680049712251,0.12046226152094977
30.486816,3.7994722298022463,0.12042075862426851
30.491423999999995,3.7180068546838134,0.1204091845916298
30.496011999999997,3.64132716268054,0.12034517748046505
30.500604,3.5699660340976354,0.12027721545064274
30.505199999999995,3.5052335989738137,0.12021180461588835
30.509787999999997,3.4467191617180095,0.12010800482708986
30.514384,3.3941783529019314,0.11998614986914827
30.518959999999996,3.3536187027821955,0.11968258121976345
30.523556,3.3208315499974805,0.11933163506549105
30.528139999999997,3.2969606984237267,0.11889530464830712
30.53274,3.2766536828236745,0.11856281108347201
30.537327999999995,3.2564349501208794,0.11839207824450056
30.541932,3.243988714753105,0.11818567278829883
30.546524,3.2413582150439404,0.11788282240390395
30.55112,3.2490763312985953,0.11751358011697739
30.555704,3.2633009562981874,0.11716794690833451
30.560295999999997,3.2822332211474197,0.11687744881262198
30.564888,3.3089379833316745,0.11655877275835205
30.56948,3.3407169395080074,0.11626657875847157
30.574068,3.3824338160570955,0.11587392182112266
30.578664,3.4347436779982945,0.11539845282007481
30.583243999999997,3.498013079474041,0.11480794577063666
30.587827999999995,3.5654572404942177,0.11427598602369542
30.592415999999997,3.642961506601295,0.11365279599437994
30.597012,3.722430967766442,0.11306216218287918
30.601603999999995,3.806441742618456,0.11249154666195915
30.606191999999997,3.890130104776661,0.11203703855524814
30.610783999999995,3.9737404236693488,0.11169201108661715
30.615364,4.057394884010665,0.11143637722302681
30.619955999999995,4.138639551885957,0.11128151758318182
30.624551999999998,4.225647380589573,0.11101257273524884
30.62914,4.320217239016809,0.11060397325637358
30.633736,4.413643293568105,0.11023889144350052
30.638324,4.5028606867580825,0.11000464855849257
30.642916,4.58758090770982,0.10984471544344178
30.647507999999995,4.674833105841727,0.10959594649534671
30.6521,4.763840031420302,0.10925050217643126
30.656696,4.850270838370079,0.10894442590805829
30.661283999999995,4.932204473081616,0.10869466158604657
30.665884,5.007064816926118,0.10853928420228058
30.67046,5.074974054617726,0.10846563269135859
30.675059999999995,5.1370759900323835,0.10844684482432476
30.679652,5.194392242331882,0.10844444292400411
30.684251999999997,5.245368312049217,0.10847052082068649
30.688844,5.299609467231597,0.10836913777963181
30.693439999999995,5.347510439831812,0.10828581817532473
30.698024,5.396100379268273,0.1080916018440099
30.70262,5.441414993607952,0.10785734115817852
30.707215999999995,5.486519140336229,0.10753258153699129
30.711816,5.531046265310668,0.10714002877759235
30.716407999999998,5.569766088008153,0.1067882134085085
30.720996,5.597159817028654,0.10653479348153823
30.725584,5.623077089847668,0.10622338373934621
30.730175999999997,5.647640091179341,0.10584514982874348
30.734764,5.668561213271795,0.10544996683889132
30.73936,5.682775598639647,0.10509561815875469
30.743944,5.6968236578447256,0.10470335677252177
30.74852,5.704653719181788,0.10431197245624003
30.753103999999997,5.713949997088597,0.10381686415227118
30.757692,5.724223752708572,0.10325288147331349
30.76228,5.732121617679411,0.10263648232599899
30.766887999999994,5.734334365087445,0.10203847009607958
30.771476,5.7353591671709125,0.1014130543986696
30.776084,5.731109547282638,0.10083023416131254
30.780668,5.715577975166005,0.10038633338655818
30.785259999999997,5.699513522744163,0.09992275740791712
30.789855999999997,5.683571255036467,0.0994512324701952
30.794452,5.666973922309413,0.09896912443713306
30.799048,5.642692375144595,0.09858493634255519
30.803639999999994,5.6155903399226865,0.09823147029700847
30.808235999999997,5.589632108576718,0.09785099511060473
30.812816,5.57148027638266,0.09736135204518175
30.817415999999994,5.5541056939221045,0.09687143877134392
30.821996,5.533544069262023,0.09643643166817302
30.826584,5.51940067044962,0.09593830413053955
30.831176,5.50885500942781,0.09540789440629033
30.835772,5.496143925368267,0.09491884755353601
30.84036,5.488340709138029,0.09441598770321162
30.844956,5.480581634356421,0.09396555138093698
30.849543999999995,5.474254874327668,0.09352700874848568
30.854139999999997,5.473613231861726,0.09308149812700617
30.858723999999995,5.479678326120379,0.09261402882741399
30.863311999999997,5.490773472922485,0.09213273624501177
30.8679,5.508941910591628,0.09160646828405108
30.872499999999995,5.535083073575455,0.09102359898767956
30.877087999999997,5.565232669940939,0.09044293654452348
30.88168,5.59182866996446,0.08994351513458185
30.886275999999995,5.622188733941346,0.08946536837692765
30.890856,5.661054403538128,0.08895334867380167
30.895456,5.703928506516568,0.08844350651721024
30.900035999999997,5.749012173981367,0.08795595310261425
30.904627999999995,5.793240548447146,0.08753578264974884
30.909223999999995,5.838656868237494,0.08714963051065824
30.913811999999997,5.893067532504319,0.08670802067367976
30.918403999999995,5.948011077076355,0.08629876306914278
30.922991999999997,6.00438693640125,0.08590808424819782
30.927584,6.062850175498362,0.08554128397324229
30.932179999999995,6.127365086300715,0.08516010011665379
30.936772,6.196499354055454,0.08475256992110301
30.941376,6.26628868682955,0.08436232587648351
30.945955999999995,6.334934215727706,0.08400191265179131
30.950556,6.404479179073509,0.08364761155823985
30.955144,6.473246892685812,0.08330083728766027
30.959743999999997,6.540093552688672,0.0829792886479542
30.964332,6.607184582119824,0.08265074177346
30.968928,6.674519980979267,0.08231527495324915
30.973512,6.747862910095327,0.08192184872103139
30.978108,6.8198957091726715,0.08151774142374939
30.982696,6.886121205973064,0.08112074409862824
30.987292,6.950014953572951,0.08072024932899827
30.991896,7.010677517524684,0.08032275409161546
30.996492,7.07092938588535,0.07990857007586798
31.001079999999995,7.128194440026155,0.07948172827161464
31.005672,7.1815732454994485,0.07905461306624341
31.010259999999995,7.225180456762761,0.07866595437697448
31.014855999999995,7.2675997227015054,0.0782579840529789
31.019436,7.305844229095821,0.07781033006286575
31.024027999999998,7.334150815117382,0.07736828279819905
31.028623999999997,7.354073980233191,0.0769348543583827
31.033216,7.371132515843284,0.07648054571222607
31.037808,7.383527553052364,0.07601087548377114
31.042396,7.3884386038033405,0.07554282724849574
31.046992,7.389341221172663,0.07506814624520321
31.051571999999997,7.390199697093356,0.0745556860453422
31.05616,7.383452001841801,0.07404612087429507
31.060756,7.3701197545797905,0.07352964603768855
31.065344,7.346116478660152,0.07304274729278257
31.069948,7.317982584644712,0.07255062889417273
31.074532,7.288538560590558,0.07203514323838414
31.07912,7.257007156764189,0.07149399411784726
31.083715999999995,7.2175030276231364,0.07096659974683474
31.088296,7.170270542595689,0.070441135670681
31.092892,7.123526796424824,0.06988523567253477
31.097472,7.068565955510984,0.069353961030914
31.102072,7.015770537634875,0.068790198815269
31.106663999999995,6.956679078625233,0.06823850518606815
31.111264,6.895544381292002,0.06769553786582513
31.115848,6.835186933692273,0.06714774740751805
31.120444,6.773807866930751,0.06659911807244139
31.125032,6.709730496826286,0.06604912003180859
31.129628,6.641811019502939,0.06551157002357189
31.134215999999995,6.572625553589505,0.06498694413187432
31.138811999999994,6.500497414904838,0.06447334729884605
31.1434,6.418397454030526,0.06402906441941089
31.147983999999997,6.342837903718039,0.06354257570673057
31.152572,6.272308405949004,0.06305454412236813
31.15716,6.208319318741795,0.06252818263182987
31.161759999999997,6.143064242944501,0.06201552633281199
31.166343999999995,6.08026310106186,0.06150217446753854
31.170939999999995,6.016973220322636,0.06100767261932066
31.175527999999996,5.964720922383477,0.06046804559541164
31.180119999999995,5.919541915311356,0.05991253844679025
31.1847,5.871708746344919,0.0594037426456223
31.189288,5.831726117979022,0.05888820578524858
31.193895999999995,5.797140096299011,0.05835868302395378
31.198488,5.766806877428948,0.0578289173077532
31.203095999999995,5.7434247647117775,0.05729900855388537
31.207676,5.7245398242328465,0.056760197691801254
31.212264,5.710440566869073,0.05624617645714546
31.21686,5.701249177334604,0.05575180100433164
31.221447999999995,5.703506066191265,0.05525609796455835
31.226043999999995,5.713857865076759,0.054750423388018464
31.230631999999996,5.733081823724584,0.054242978011678614
31.235235999999997,5.7662860379437095,0.053689788927664385
31.239816,5.796469536126083,0.05321375894551224
31.244415999999998,5.828207533775462,0.05275599465564344
31.249004,5.862155095911199,0.052330057412616524
31.253612,5.9041975680757695,0.05190084673100145
31.258204,5.951636646926227,0.051474861351231985
31.2628,6.005249582196072,0.05105522395975463
31.267391999999997,6.058373778609337,0.05067278191400589
31.271987999999997,6.110764866737726,0.050335545207203486
31.276584,6.166509323228414,0.05000909430758631
31.281175999999995,6.220210541395517,0.0497010714455547
31.285768,6.274200270439539,0.04943237680024649
31.29036,6.331421183131715,0.04918541924686633
31.294951999999995,6.3876204766620965,0.04895068125246077
31.299536,6.4405105432788075,0.04875368913348333
31.304123999999995,6.497487086542692,0.048533550285060977
31.308724,6.554219260378285,0.04832914896962116
31.313312,6.607353696423287,0.048130052313707185
31.317896,6.65178229886873,0.047964699216553795
31.322492,6.6904477404858484,0.04782143553273395
31.327079999999995,6.7196300987699065,0.04770606361420483
31.331672,6.751222249519988,0.04755896724395982
31.33626,6.77525237054645,0.04743107903064857
31.340852,6.7936415154587335,0.04731640513106457
31.345448,6.803447011485603,0.04722746510107414
31.350039999999996,6.804668858627059,0.04716383265843266
31.354631999999995,6.801393533530276,0.04709997663216252
31.359219999999997,6.79235504760517,0.047054327724737756
31.363812,6.782661496660707,0.0469959813337402
31.368404,6.769614577353944,0.04692429176337108
31.373003999999995,6.750926681933001,0.04686398973316849
31.377607999999995,6.725165495645024,0.04679579775034254
31.382188,6.695151506547096,0.04671361906945536
31.386792,6.6556544341161095,0.046654878708799696
31.39138,6.614358492789826,0.04659543288368805
31.395979999999994,6.560881164787537,0.046557505253395
31.40056,6.500330545918212,0.04651042253844306
31.405156,6.430419028429972,0.04647980509183315
31.409752,6.360996249798313,0.04642145363972742
31.414348,6.285277430033119,0.046360292200771265
31.418932,6.207759741372631,0.04629736706459118
31.423528,6.122557838274376,0.046257742644947517
31.428127999999997,6.037722489318559,0.04619458876022475
31.432723999999997,5.948267783410356,0.046136618718648756
31.43732,5.8563591435875,0.04606121025740624
31.441916,5.7634288846028525,0.04599266842405811
31.446504,5.661914976732791,0.04595016059708912
31.451092,5.555248831605135,0.04588804381882984
31.455679999999997,5.439343972572707,0.04583662899732731
31.46026,5.320740810197337,0.04577879202208454
31.464856,5.199439344479022,0.0457205983223109
31.46944,5.076461194579558,0.045643850585367546
31.474036,4.948741503013563,0.045575433332915326
31.478624,4.825108288094743,0.04546937102611943
31.48322,4.696977900937683,0.04535606740268248
31.487807999999998,4.568603144352331,0.04526112463689277
31.492396,4.4363862805480965,0.04517766080162006
31.496992,4.306090470353304,0.04508283270165696
31.50158,4.177471344339661,0.04498719820020141
31.506184,4.048730033611873,0.044898635303596855
31.510772,3.918967103722291,0.044818278540475945
31.515359999999998,3.791247412156296,0.04471011220019909
31.519972,3.6632833511620095,0.04461246903695407
31.524559999999997,3.538384147653104,0.04446793068975021
31.529155999999997,3.414384378591846,0.04430517818987306
31.533736,3.2848658181305557,0.04414706780391047
31.53834,3.16303147210703,0.043931643754145065
31.542928,3.0455721136075984,0.04371824743736679
31.547532,2.93195486232705,0.04345987849503939
31.552119999999995,2.81641655743706,0.043183861314395666
31.556728,2.706641413375394,0.04284279422799886
31.561316,2.5962553457429998,0.04256698533885486
31.565915999999994,2.486768712558253,0.04226497783493049
31.5705,2.3751166563357735,0.041982073366808294
31.575092,2.265141284294444,0.04169874941048507
31.57968,2.1572091505767017,0.0413540790133681
31.584276,2.051853135487758,0.041020856616630776
31.588876,1.9455976859511657,0.04062215067632062
31.593472,1.8365217483574843,0.03842935796824141
31.59806,1.7302662988208921,0.03623243955429492
31.602656,1.6296518253984786,0.03402962949467983
31.607243999999994,1.5268719289383323,0.031849407455875604
31.611828,1.4220487941545987,0.029676985336303863
31.616415999999997,1.3159596707807801,0.02754680279843747
31.621008,1.2114250468739665,0.025446721519847573
31.625604,1.11535188713842,0.023335796551382425
31.630191999999997,1.0153144354698456,0.021269024174256364
31.634784,0.9170758526965664,0.019214046891837346
31.639371999999995,0.8250111263426767,0.017199742519806376
31.643964,0.7392424411223218,0.015216585596033371
31.64856,0.6567049395501215,0.0132936694331765
31.653147999999995,0.5828732715774801,0.011331807121495724
31.657743999999997,0.5114955375194912,0.00940166978128465
31.662332,0.4458809642898262,0.007478720459776408
31.666923999999995,0.38500793272669187,0.00556421192090208
31.671508,0.32850988868765096,0.003694838843449294
31.6761,0.27957387437222997,0.001811425589385961
31.680691999999997,0.2360344667426961,0.0
31.685275999999995,0.19891328496084287,0.0
31.689876,0.1673108945790224,0.0
31.694464,0.13288801614011267,0.0
31.699063999999996,0.10872547076776634,0.0
31.703647999999998,0.09200277040489419,0.0
31.708248,0.08439659923264621,0.0
31.712836,0.08140978501278315,0.0
31.717431999999995,0.08009965497407012,0.0
31.722024,0.08418613162124422,0.0
31.72662,0.08622936994483126,0.0
31.731219999999997,0.08365325131603338,0.0
31.735816,0.08095494797308982,0.0
31.740407999999995,0.07706501673965083,0.0
31.745008,0.07113184718262479,0.0
31.749596,0.06814135039683364,0.0
31.754183999999995,0.06490648418275115,0.0
31.758771999999997,0.06244886770217085,0.0
31.76336,0.061012870383384064,0.0
31.767948,0.059091816773942686,0.0
31.772527999999998,0.05753363474101023,0.0
31.77712,0.054953833546284254,0.0
31.781707999999995,0.052544041080260194,0.0
31.7863,0.05450923613832972,0.0
31.790896,0.05078563106766455,0.0
31.795483999999995,0.046162591549351525,0.0
31.800092,0.03794181424044709,0.0
31.80468,0.0288216024838948,0.0
31.809271999999996,0.021137388046129305,0.0
31.813868,0.013575358322509484,0.0
31.818464,0.010754870265420255,0.0
31.82306,0.009733251103626734,0.0
31.827651999999997,0.01267592387486163,0.0
31.832247999999996,0.017054593964883315,0.0
31.836828,0.020656014321402814,0.0
31.841427999999997,0.0250346844114245,0.0
31.846008,0.030557158377385374,0.0
31.850604,0.03505801318155272,0.0
31.855196,0.039558867985720086,0.0
31.859787999999995,0.04352315991874851,0.0
31.864372,0.051621752513507264,0.0
31.868967999999995,0.05600042260352895,0.0
31.873555999999997,0.06033126867899438,0.0
31.878151999999996,0.06592810334454469,0.0
31.882743999999995,0.07529268452938831,0.0
31.887336,0.08285839681893623,0.0
31.891924,0.09504346606086908,0.0
31.896516,0.10645128556929975,0.0
31.901095999999995,0.11540148859715013,0.0
31.905688,0.12627274523444185,0.0
31.910284,0.13792125160523577,0.0
31.91486,0.15508854937606248,0.0
31.919456,0.1673921207662129,0.0
31.924043999999995,0.17777463854692194,0.0
31.928636,0.1906110902422832,0.0
31.933224,0.19882818498525953,0.0
