Time,Force,Position
21.934108,1.7155971643629804,0.04689223038215455
21.938708,1.6532918180469873,0.04693353594389652
21.943292,1.5880437989597593,0.047069394685262396
21.94788,1.5217741607107378,0.04726609499685723
21.952472,1.4561595874810729,0.04490399850774779
21.957056,1.386825091746671,0.042562488106659094
21.961644,1.3183900304599168,0.04020206447138827
21.966248,1.253019826658543,0.03782108609663512
21.970836,1.1850735042283713,0.03541835093531507
21.975448,1.1207249195887912,0.033038442788213884
21.980036,1.0525342277303285,0.03068144582170174
21.984624,0.9861424047671611,0.0283261749840656
21.989216,0.925513742632318,0.025896977686855806
21.993816,0.8634969071932445,0.023520138737278738
21.99842,0.80597724399241,0.02114493868407428
22.003012,0.7470694074873452,0.018829786874268537
22.007616,0.686118332658693,0.016547003145546448
22.012192,0.6259445075635435,0.014300233851076372
22.016792,0.5657706824683937,0.012059911843066783
22.021384,0.5078844651251224,0.009759879922487861
22.025984,0.4517971166771466,0.007466176415345737
22.030572,0.40543722099052354,0.005060101963985191
22.035168,0.3640632363987224,0.0025600342508197496
22.039764,0.3274307934734517,0.0
22.044348,0.29398539274770735,0.0
22.048936,0.26503716426020246,0.0
22.053528,0.23723273964863661,0.0
22.058116,0.20608044083658977,0.0
22.062712,0.17942531426278222,0.0
22.0673,0.15264800297482894,0.0
22.071884,0.12987363090671317,0.0
22.076472,0.1087759430197474,0.0
22.081068,0.0910316234950817,0.0
22.085656,0.07885023681907695,0.0
22.09024,0.07264247858279829,0.0
22.094832,0.07474009798675228,0.0
22.099412,0.08657540978379759,0.0
22.104008,0.10573862150791016,0.0
22.108596,0.13456148235959653,0.0
22.113184,0.1733325032157762,0.008772417635827532
22.117776,0.22421710711418186,0.017323204492666285
22.122368,0.28018614463640457,0.026052302795688646
22.126968,0.34712496132491416,0.03454621372869732
22.131564,0.424378492160354,0.04283508730002278
22.136152,0.5127239868762263,0.05096884253911426
22.140744,0.6112620110248833,0.05908380371186778
22.145324,0.7217914335016207,0.06715879805937852
22.149928,0.8506028012781541,0.07493867589528562
22.154516,0.9906283176492658,0.08267624029735408
22.159116,1.1408463634531625,0.09042776052879829
22.163696,1.3018733564223908,0.09816155077623814
22.1683,1.473459432966841,0.10587580854972638
22.172892,1.6494307366671235,0.11367950185614047
22.177488,1.8340739721500756,0.12138532057337081
22.182072,2.023380706034041,0.12899960870275828
22.186664,2.215630112689241,0.1365585145320715
22.191256,2.408734812343461,0.14404918130982544
22.195848,2.6008517946527765,0.15150090273780764
22.20044,2.790015864559118,0.15889899387931425
22.205032,2.973362392556769,0.1574765453255269
22.20962,3.14807089058864,0.15624823312855157
22.214208,3.3165511511207546,0.15479088426586138
22.218796,3.472018394162995,0.15360752118575613
22.223392,3.618192542220099,0.1525668116167194
22.227984,3.7569946489015074,0.15157126320846048
22.232576,3.8866258453119245,0.15056474037071274
22.237172,4.00708613145135,0.14955729254129457
22.241748,4.111712912043814,0.14884013034456198
22.246344,4.207413151793577,0.14808450806601614
22.250932,4.290466928195903,0.14734519608347016
22.25552,4.35842030733614,0.14666775448252276
22.260116,4.414382288148297,0.14602325672510785
22.264708,4.464238216174843,0.14521936354582896
22.269308,4.50263562617852,0.14447968118149393
22.273904,4.52753127983574,0.14385224904863392
22.278492,4.545998468013543,0.1431856801727598
22.283096,4.557670636569488,0.14251126379036205
22.287684,4.562181231361137,0.1418525125656444
22.292288,4.559163698246059,0.14124154219205556
22.296868,4.550949786424755,0.1406543981280522
22.301472,4.544079906459054,0.13993893883333317
22.306064,4.5327908975206315,0.13923574132129976
22.310656,4.522357181581228,0.13844401449960506
22.315236,4.507259967240811,0.137686726054534
22.319836,4.482635528118706,0.13708862172379246
22.324432,4.451670906414439,0.13654643107357037
22.32902,4.415920601595011,0.1360477834571216
22.3336,4.376284048108073,0.13557608217855371
22.338196,4.3296963884682445,0.13522211988503824
22.342784,4.283064587379786,0.13479356937814402
22.34738,4.237454405453121,0.13433195339831208
22.351972,4.190778462916035,0.133825165305463
22.35656,4.141404217036007,0.13336390656201563
22.361148,4.09023110226068,0.1329323415643006
22.365736,4.039590867790566,0.13252101043685294
22.370328,3.9830652877779817,0.13227634837367547
22.37492,3.9206543622229284,0.13220823886926825
22.379512,3.860453001154235,0.13212271899331582
22.384092,3.8023390198577576,0.13204237632273053
22.388688,3.747456222209434,0.13190499781379156
22.393276,3.682479417657321,0.13210401577529046
22.397864,3.6183240042873384,0.13237627759941947
22.40246,3.555478720956068,0.13264646933872867
22.407048,3.4915337751974875,0.13306831791273
22.411636,3.4321301431257747,0.13348626887995524
22.416232,3.377922889760285,0.13389600689177591
22.420824,3.3262137117580757,0.13436734218498383
22.425416,3.2807225316238844,0.13477820422732892
22.430012,3.240549914910062,0.1351599598668619
22.434604,3.205207122760027,0.13555647894418038
22.439184,3.1755494481727977,0.13586165278233678
22.443784,3.1518654020252956,0.13612926911913556
22.448372,3.132600484850515,0.13637945927962478
22.452972,3.118409761667813,0.1366254255027843
22.457568,3.111825209657358,0.13672781015984925
22.46216,3.114401328286156,0.136675934797653
22.466756,3.125771563411769,0.13651167011267468
22.47134,3.1405393083483104,0.13637657595306327
22.475928,3.1607478014193675,0.1361958880771577
22.480524,3.180389512368324,0.136176615345273
22.485104,3.2099691436900355,0.13597951167690547
22.489688,3.2462555117363463,0.13566862349552675
22.49428,3.2850399551459377,0.13541331955250446
22.498868,3.334373242499012,0.13492355555907376
22.503456,3.3906576360049776,0.13430235904404977
22.50804,3.4510726476067455,0.13362762539170578
22.512636,3.5177837003420485,0.1328140260401634
22.517216,3.5840060142207686,0.13206636879829825
22.521808,3.652804446728287,0.13128248259511688
22.5264,3.720459075359866,0.13055518688489434
22.530984,3.7913448876395996,0.12983446742100085
22.535596,3.8641517535287746,0.1291055313304722
22.540184,3.939656922760893,0.12835516977067743
22.54478,4.017327515030744,0.12755530496860962
22.549372,4.091933249815215,0.12687333574494514
22.553964,4.165517365437892,0.12625159748139325
22.558548,4.238568600755358,0.12562318762367894
22.56314,4.313008009377055,0.12495265843362113
22.567744,4.387936156855335,0.12426675337100127
22.572324,4.468216769570874,0.12342959914187254
22.576924,4.5501299250189335,0.12253259479201634
22.581504,4.628689712104693,0.12170163520638803
22.586104,4.70732754245597,0.12081543612779952
22.590688,4.77979151638786,0.12004758746205943
22.595288,4.846203818614504,0.11937504676391501
22.599884,4.910284371640643,0.11872569006188982
22.604476,4.971910990752129,0.11811903028334678
22.609064,5.035292337310282,0.11743561988025056
22.613656,5.097363553829723,0.11675132622292474
22.618248,5.15951281361468,0.116003511374725
22.62284,5.214833151960893,0.11533936076329869
22.627428,5.263735264459425,0.11478051688759391
22.632024,5.307362954986215,0.11429383559257095
22.636616,5.346615657988911,0.11386485150565821
22.641204,5.38864470760007,0.11334549996418311
22.645784,5.424866454934274,0.11286883418905633
22.650368,5.461821310553353,0.11234643262070214
22.654964,5.493868298343128,0.11186120256694901
22.659544,5.521662483322954,0.11142023875229011
22.664136,5.545203865492834,0.11102366445436704
22.668724,5.5675573023381455,0.11061363363736561
22.673312,5.587578989982951,0.1102086067626192
22.677908,5.605923993446607,0.10982055823778016
22.682496,5.625901539642785,0.10937359922809654
22.687092,5.646367824695544,0.10889232569730174
22.691684,5.66552397970959,0.1083984265045072
22.696272,5.682470570237276,0.10790315000285683
22.700876,5.6987620957456055,0.10740739093953565
22.705468,5.715420175396372,0.10689200229323746
22.710068,5.731056635885345,0.10639683317411959
22.71466,5.750779573021493,0.10583603776722211
22.719256,5.773933921785458,0.10520042727982468
22.723836,5.796799759672503,0.10453161022765939
22.72844,5.819132717254337,0.10384634526223267
22.733028,5.831982591503109,0.10328118429279434
22.737632,5.849574007418413,0.10265589542806068
22.742224,5.864344935276627,0.10207085807515415
22.74682,5.880914732030136,0.10147099015858937
22.751412,5.89850614794544,0.10085746273677315
22.756008,5.914420879679593,0.10025404372334383
22.760604,5.925349700318927,0.0997274714014877
22.7652,5.9362785209582585,0.09920003352793884
22.769804,5.947984591331092,0.09867700786929831
22.774396,5.955726369770898,0.09821140989076502
22.778988,5.966943701287149,0.09772728702667742
22.783572,5.979060467251047,0.09723793384706568
22.78816,5.991710113520158,0.096767393458957
22.792748,6.002971586485035,0.09633986187183552
22.797336,6.010923832536244,0.09597563273661575
22.801928,6.022596001092188,0.0955782276171365
22.806516,6.030303877715104,0.09523526761709888
22.811104,6.036745765747936,0.09492524767547765
22.8157,6.048462075752507,0.09458542648035279
22.820288,6.062876689100023,0.09422745685006385
22.824868,6.086652201066456,0.09377867922344126
22.829464,6.108506659423447,0.09335456105897019
22.834052,6.129994563638,0.0929545220921565
22.83864,6.151360283138407,0.09256544279974825
22.84324,6.170560579601084,0.09221309801625516
22.847828,6.1942580483019976,0.09183316497905161
22.852424,6.223840862545382,0.09138955072841154
22.857,6.259964087350592,0.09089567171476975
22.861596,6.293266824098712,0.09042994873436937
22.866188,6.33143328722751,0.08991551431876217
22.870784,6.366368566708152,0.08941036815577234
22.875364,6.40706700701712,0.08886237345973706
22.879964,6.448009816754379,0.08830438283996765
22.884552,6.487520311738779,0.08773745313047449
22.889144,6.530462218350997,0.08711431502166858
22.893724,6.568906952724974,0.08652503972792742
22.89832,6.614136467089069,0.08587966710770112
22.902924,6.659077470576245,0.08520963490024762
22.907516,6.696045748748737,0.08458339899993192
22.912104,6.734035646083021,0.08395441157598593
22.916688,6.770593228664447,0.08332545102707513
22.92128,6.8075173653883105,0.08267936786377574
22.925876,6.843131372073461,0.08201490571743728
22.930464,6.8782124984534,0.08133902164715291
22.93506,6.914926167565861,0.0806194688971159
22.939652,6.943667111363637,0.07993538149120565
22.94424,6.965090394866085,0.07929635124424364
22.94884,6.974576661120819,0.07872700585665242
22.95342,6.985573285393929,0.07812033308093749
22.958016,6.990518237961796,0.07753009580048281
22.962612,6.98880059525369,0.07698407419793964
22.967192,6.975145935297871,0.07650439228054993
22.971792,6.959159526141545,0.0760150993200106
22.976372,6.9454607247370985,0.07549076354719501
22.98096,6.926487501360911,0.0749800730739839
22.985556,6.903017105746485,0.07448311147074092
22.990148,6.868631312046136,0.07403454202838164
22.994744,6.829381791965113,0.07361945580533094
22.999332,6.789887902455798,0.0732132423026732
23.003932,6.744342341241241,0.07281395596769856
23.00852,6.694055238360151,0.07244088937864994
23.01312,6.640048212974325,0.0720828594878492
23.017712,6.58628555701679,0.07170528194618792
23.022316,6.530479662735667,0.07134335968657735
23.026908,6.47173109568331,0.070998666966227
23.031504,6.416580266421545,0.07063598078784446
23.036096,6.362983936626784,0.07027643922687692
23.040692,6.3170718212697885,0.06985900483443933
23.04528,6.267317598693911,0.06946175252917625
23.049876,6.221693994213835,0.0690657274567191
23.054464,6.184654038619172,0.06861060797921363
23.059056,6.153010689710396,0.06813297261996763
23.063644,6.1210007866591845,0.06767200420558749
23.068232,6.085803841408445,0.06724406435649533
23.072824,6.055636948701157,0.0668179206774564
23.077416,6.035730389060432,0.06634013758182736
23.082008,6.020321001657945,0.06584452722462066
23.0866,6.012351459264933,0.06531331433008693
23.091196,6.012843381043188,0.06474042257051468
23.095776,6.015422682593658,0.0641925629407503
23.100368,6.01853486444934,0.06366038134262834
23.104956,6.027820902724411,0.0631196303060509
23.109544,6.039971570505199,0.062613917145185
23.11414,6.0568637799525185,0.06208609021587006
23.118732,6.081195834409312,0.061532546641693386
23.12332,6.1108023108378475,0.06098041381489738
23.127916,6.145150328932912,0.06040836074330664
23.132504,6.180031227333188,0.059862369466336864
23.1371,6.221085982152855,0.05931361897639996
23.141692,6.263040171420168,0.05876917094103023
23.1463,6.3036061873832505,0.05826059452896207
23.150888,6.343805649203897,0.057775045847899255
23.155496,6.389523902424575,0.057279212496570586
23.160088,6.441660381492934,0.05677333661568411
23.164688,6.495717914170734,0.05626745398535217
23.16928,6.547610023810802,0.05579569717582524
23.173876,6.602733317099023,0.055343441709869226
23.178464,6.6567128065113055,0.054913620253235616
23.183064,6.7088934270282925,0.054496777456577064
23.187648,6.764016720316515,0.054067438968577686
23.192236,6.823881555271267,0.053624095652091995
23.196824,6.88092590216893,0.05319467286710595
23.20142,6.940502226246764,0.052733648959430765
23.20602,6.995869888963277,0.052310941162940626
23.210616,7.0449856519948835,0.05194043343295271
23.215204,7.087805373892955,0.051578512608589665
23.219792,7.127682423019793,0.051234374101958566
23.224376,7.165516233823042,0.05090581235326946
23.228964,7.198608502959761,0.050593445504212874
23.233556,7.2297797184870385,0.05029035932892899
23.238136,7.259929314852522,0.049994958932309805
23.242732,7.2902010959321535,0.04969450827704386
23.24732,7.314587531469313,0.04942166083455218
23.251912,7.328347079797472,0.04918767312877973
23.256500000000003,7.335321848135514,0.048979959766691256
23.261076,7.336533455645233,0.048791533300193764
23.265672,7.332348456469064,0.0486043584321662
23.270256,7.325098599807514,0.04843558894767065
23.274852,7.310941778441701,0.04829680518650587
23.279456,7.291921230695212,0.04817577367974149
23.28404,7.267259706834544,0.048066418312008356
23.288636,7.2427203676880225,0.04795026366427567
23.293212,7.209475194941942,0.04786191357201904
23.297812,7.172510099691124,0.047779039553809265
23.3024,7.131047832202066,0.047696049907706206
23.307,7.086398522513482,0.04763575226559852
23.311584,7.036885486444222,0.04759285170840018
23.316184,6.9837747125843705,0.04754873784305594
23.320776,6.932462807619815,0.04750366345310697
23.325372,6.878452599312316,0.047456349411795995
23.32996,6.820844653214226,0.04740740504960429
23.334552,6.761315653506693,0.047362709932233044
23.33914,6.700887219351514,0.047317537725725646
23.343732,6.644667446557654,0.04724029261588019
23.34832,6.586893174296789,0.047148004760566666
23.352916,6.526298413978835,0.04706094890556654
23.3575,6.460062677546702,0.0469843633993995
23.362096,6.385609846371593,0.04691227782415686
23.36668,6.307314907977603,0.04685336091424396
23.371272,6.229386523726049,0.04677056629838374
23.375864,6.151458139474494,0.046685154138369205
23.380444,6.068666028842263,0.0466160702726675
23.385036,5.986406798515244,0.046568251154869
23.38962,5.907456795101896,0.046481750288235035
23.394204,5.831449464459783,0.0463800748926705
23.398816,5.757485372141256,0.04626275187536357
23.403404,5.683765649251022,0.04612825691786286
23.407992,5.609024307198995,0.045997674032540445
23.412584000000003,5.525943685689845,0.04587690457105939
23.417172,5.438654402819376,0.04579263224252355
23.421768,5.3474008280158785,0.04573005449877748
23.426364,5.2524273307076434,0.04567149028983763
23.430968,5.152057226713521,0.045608617840303095
23.435544,5.04939951496752,0.04557452080123743
23.440144,4.943432576307848,0.04558294066953633
23.444732,4.840530495133556,0.045563328712326434
23.449332,4.7451904436828825,0.04551708432365615
23.45392,4.655491368346389,0.045452738790521335
23.45852,4.570656019390571,0.045362050015590204
23.463104,4.483410877968731,0.045314068051474705
23.467696,4.396287921261033,0.04524952538076932
23.472288,4.306999541515605,0.045216553777991726
23.47688,4.216156662303172,0.045164367071252876
23.48148,4.120083502567626,0.0451653200812817
23.486072,4.020290420327342,0.04517058952817066
23.490652,3.9193535342111194,0.04519620578505327
23.495236,3.8200933322760466,0.04523067768308113
23.499824,3.7216103800744764,0.04527939875070813
23.504416,3.6250484814823474,0.04531969156887132
23.509008,3.5307741906420973,0.045317495255376296
23.5136,3.4423852453443162,0.04526754050985246
23.518192,3.355917353655977,0.04519970245673175
23.52278,3.272025580596435,0.04514512534632598
23.527364,3.183636635298654,0.0450876547875587
23.531956,3.0971687436103155,0.04503188842551484
23.536544,3.0076359944365954,0.045011203231033525
23.541136,2.914261138043993,0.04500640007913453
23.545728,2.8187208586136574,0.045051332050180824
23.550328,2.7212595255738803,0.04510413425024458
23.554924,2.624042561962395,0.045132178567877095
23.559512,2.519918633646646,0.045254316919389165
23.564116,2.4179601283686303,0.045343493373355706
23.568708,2.318822111147703,0.04540445950195656
23.573304,2.222748951412157,0.0454082511265473
23.577884,2.130395714181348,0.04537830606886279
23.582484,2.0364879774835347,0.0452856116063594
23.58708,1.9388603182809838,0.04520928822289298
23.59168,1.8376349212878416,0.04513610510526514
23.596268,1.7428277501423803,0.04502002522094156
23.600868,1.64687677512098,0.042759484399624736
23.605464,1.5467171387382594,0.040532305443546746
23.61006,1.4463131329272478,0.0383260711621494
23.614652,1.3515501032304145,0.03611146754209907
23.619248,1.2612842457718203,0.033891831060289666
23.623848,1.1740832457986068,0.031643095835309526
23.628444,1.0868822458253933,0.02938216008833536
23.63304,1.00135793003333,0.027127494866285535
23.63764,0.920697340621943,0.024836738405012746
23.642236,0.8409361856582037,0.022551459168092914
23.646832,0.7610528459803186,0.02027224072024132
23.65142,0.6896309704737015,0.01792431445480523
23.656004,0.6219290174718212,0.015579646532532288
23.660592,0.5539440477548405,0.013267824617084237
23.665188,0.4894346311143056,0.010993146208091638
23.669788,0.4275013331025686,0.008757434496267959
23.674388,0.37084245706257307,0.006573867397226688
23.67898,0.32060180687025824,0.004376169864593809
23.683564,0.2776788169732718,0.00216403924746527
23.688148,0.23463364236213977,0.0
23.692728,0.19710725915104046,0.0
23.697316,0.16534403676826523,0.0
23.701912,0.13730073689022712,0.0
23.706504,0.10913525229804331,0.0
23.711092,0.0846896902105966,0.0
23.715684,0.06282024675194778,0.0
23.72028,0.04646959469333173,0.0
23.724876,0.03293943069180491,0.0
23.729464,0.02018651642378027,0.0
23.73406,0.011031339946347037,0.0
23.738648,0.00649552042129873,0.0
23.74324,0.0028591353438982745,0.0
23.747828,0.0,0.0
23.752428,0.0,0.0
23.75702,0.0,0.0
23.761612,0.0,0.0
23.766208,0.0,0.0
23.7708,0.0,0.0
23.775392,0.0,0.0
23.779988,0.0,0.0
23.784576,0.0,0.0
23.789172,0.0,0.0
23.79376,0.0,0.0
23.798348,0.0,0.0
23.802924,0.0,0.0
23.80752,0.0,0.0
23.812112,0.0,0.0
23.816704,0.0,0.0
23.8213,0.0,0.0
23.825888,0.0,0.0
23.830472,0.0,0.0
23.83506,0.0,0.0
23.839652,0.0,0.0
23.844244,0.0,0.0
23.848836,0.0,0.0
23.853432,0.0,0.0
23.858028,0.0,0.0
23.86262,0.0,0.0
23.867228,0.0,0.0
23.871824,0.0,0.0
23.876428,0.0,0.0
23.88102,0.0,0.0
23.885612,0.0,0.0
23.890196,0.0,0.0
23.894796,0.0,0.0
23.899384,0.0,0.0
23.903988,0.0,0.0
23.908576,0.0,0.0
23.913176,0.0,0.0
23.91776,0.0,0.0
23.922356,0.0,0.0
23.926952,0.0,0.0
23.931548,0.0,0.0
23.936136,0.0,0.0
23.940728,0.0,0.0
23.94532,0.0,0.0
23.949904,0.0,0.0
23.954496,0.0,0.0
23.959084,0.0,0.0
23.963672000000003,0.0,0.0
23.968272,0.0,0.0
