Time,Force,Position
27.346464,1.3332513408423208,0.04395341598869356
27.351052,1.2778529592305912,0.04161230164076353
27.35564,1.227073934571246,0.03927405770932098
27.360236,1.1802592018449296,0.036890508037226294
27.364824,1.1314012307950263,0.034532516432977334
27.36942,1.0830761400503335,0.03222744753742285
27.374012,1.0345066798773495,0.029975245053897596
27.3786,0.9800518741618959,0.027748830103978512
27.383196,0.926863057036527,0.025526362815572145
27.387784,0.8746958590729517,0.023258598022449974
27.392384,0.824327530004672,0.02096797768272949
27.396964,0.7747364506698945,0.01868321410078339
27.401564,0.7270664249445583,0.01640162274508236
27.406144,0.6811952681145179,0.014094273183479004
27.410744,0.6428861410080973,0.011680791820028494
27.415328,0.6025337755780896,0.009266530537572138
27.419928,0.5626701490046646,0.006808064420893892
27.424516,0.5253826410600376,0.004437720091814312
27.429108,0.49288081623056934,0.002211201251769754
27.433704,0.4654090439445511,0.0
27.4383,0.43785922839301533,0.0
27.442888,0.4107642498811729,0.0
27.447484,0.38596711875294765,0.0
27.452068,0.3674762683899961,0.0
27.456664,0.363753162963586,0.0
27.461244,0.36531471914065616,0.0
27.46584,0.3735491102254371,0.0
27.470428,0.3961405506556942,0.008271249420666616
27.475024,0.42593770629887295,0.016553021656702558
27.479608,0.46714923851629303,0.02471423605779447
27.484196,0.5176097242702218,0.03290002019504337
27.488788,0.5825935855324006,0.04082145244398884
27.493376,0.6536393581315618,0.048901492693121676
27.497964,0.7367545723243208,0.0568718737556693
27.50256,0.8289965553394429,0.06477753513129025
27.507148,0.936661348310463,0.07259210229346372
27.511736,1.0533748668383285,0.08051214693792691
27.516332,1.1746399386848,0.08864558386545426
27.52092,1.3020891065823996,0.09679908065700764
27.525512,1.4357223705311275,0.10502476079607921
27.530108,1.5788489574446554,0.11324521743074202
27.534708,1.7307255194063702,0.12130547525402702
27.539288,1.8871772968718419,0.12924475628991308
27.543888,2.0455840297636447,0.13701098731963268
27.548464,2.194908135281712,0.14481516341427306
27.553068,2.346798119796839,0.15248087945498381
27.557656,2.498477636700563,0.16005926336833054
27.562256,2.646348948202294,0.15929350263424039
27.566836,2.7891460657119476,0.15857110410435746
27.571432,2.92723554337196,0.15794465252920675
27.57604,3.061228304753059,0.1572431362119649
27.580632,3.180453321197617,0.1569146277764634
27.585228,3.297747044400994,0.1563403844004856
27.589824,3.4053030752112807,0.15592881588264562
27.594412,3.5060640863997103,0.15555422041398798
27.598996,3.5978205134799226,0.1552395616860013
27.603588,3.6856804522608853,0.154720384452009
27.608164,3.7671899688279455,0.1539962829957775
27.61276,3.8385069559622216,0.15326924550392942
27.617344,3.902041206129738,0.15241426643670952
27.621932,3.95869215377814,0.15144157193343916
27.626508,4.004705974585804,0.15063223796934308
27.631104,4.044335471362675,0.14988031983476272
27.635688,4.0725947330139345,0.14934072039607804
27.640276,4.098722473444352,0.1487272487098607
27.644868,4.118998770149186,0.14816930387366994
27.649448,4.129948070051996,0.14772418648247154
27.65404,4.131326003724488,0.14741358522567896
27.658632,4.132204958908658,0.14692791181654055
27.663224,4.128131904814896,0.14644973614434634
27.66782,4.1210278950526416,0.14592179958575358
27.672396,4.117066786041287,0.14519852519330215
27.676996,4.10725423330435,0.14450263496384988
27.681584,4.100828950746604,0.14359447802806716
27.686188,4.088674409177424,0.14269156593206778
27.69078,4.075165596120901,0.14170577436301468
27.695376,4.054417166034568,0.14080725241657535
27.69996,4.035545648109047,0.13977932762195744
27.704552,4.018428857630195,0.13863269071398
27.70916,3.999513198256047,0.13751603537832838
27.713756,3.9757338125012223,0.13652789180473804
27.718356,3.9486010583840976,0.13558023446880632
27.722952,3.916971132028734,0.13472234567113586
27.727544,3.88701788985452,0.1338269508838843
27.732136,3.856820278252015,0.13294920034250468
27.736724,3.8242128741834858,0.13217076695567076
27.741312,3.7966355226584065,0.13130254851435358
27.7459,3.775109842838571,0.13030934260920715
27.750492,3.749786197248481,0.12949641977824058
27.755088,3.7252839428405213,0.1287504870481652
27.75968,3.7005814604528986,0.1281048102104224
27.764276,3.6777219884091994,0.12749072859835361
27.768856,3.657238407014635,0.12693122633511833
27.773448,3.6346335440309665,0.12652585729426538
27.778036,3.61865737450638,0.1261086740886167
27.782628,3.6064894103837863,0.1257538873233835
27.787224,3.601849574167924,0.12537510028994078
27.791812,3.598319640011111,0.12511799838618093
27.7964,3.59782066152279,0.12493261403149009
27.800992,3.6041947459218426,0.12472360916383696
27.805584,3.613721970703532,0.12456943875991526
27.810184,3.6338421808773327,0.124307037369927
27.814768,3.6655769956050372,0.12391498217940562
27.81936,3.7061059268295575,0.12346228363280332
27.82394,3.7536301056555974,0.12298621084098961
27.828536,3.806350663187861,0.12250571596031454
27.833128,3.8634903496928468,0.12205011453860948
27.837724,3.9231281115611125,0.1216566959687356
27.84232,3.992048728782777,0.1211547749214443
27.846908,4.069308625461563,0.12050617583608117
27.851488,4.1485337171984185,0.11988199071696791
27.85608,4.230623438440991,0.11929235431946025
27.86068,4.316843777779367,0.11867857145467654
27.865272,4.405395866318248,0.11806350271097203
27.86986,4.491005282085895,0.11751874877988396
27.874448,4.572894775348804,0.11705214245128621
27.879036,4.6541292035923565,0.11659576812465011
27.883636,4.734708566816553,0.11613533218915872
27.888224,4.814388495593101,0.11569987093809447
27.892816,4.893535544064441,0.1152698469074473
27.897412,4.976358373591887,0.1147204774845717
27.902,5.054151150575883,0.11423440891041542
27.906584,5.123071767797549,0.11387959757541143
27.911172,5.185652202437049,0.11356597329558657
27.915764,5.242669704227888,0.11328517095136169
27.92036,5.298987999550744,0.11294603606276492
27.92494,5.344346755339052,0.11269786863195969
27.929548,5.38630800131643,0.11242412241244507
27.93414,5.418575696349346,0.11220479119132987
27.938728,5.4414383513147175,0.11207700555726188
27.943316,5.462291669773392,0.11187156226784645
27.947908,5.477293544506486,0.11165250168749838
27.952504,5.482479683580971,0.11148745782011774
27.957084,5.480670575053936,0.1113344358247272
27.961684,5.479550433363148,0.11107050449646305
27.966272,5.473233912966135,0.11079516042942514
27.970872,5.457878906644016,0.11057179613805454
27.97546,5.437982586635028,0.11034626581415262
27.98006,5.408148346253288,0.11018640927901044
27.984644,5.367476751051145,0.11010217076566292
27.98924,5.322796722467344,0.11002586431180804
27.993832,5.272920315177321,0.1099373260011911
27.998428,5.218624778914576,0.10984091003067421
28.003016,5.160442993984319,0.10974686323009274
28.007608,5.094655037881814,0.10971993911686266
28.0122,5.024858648397653,0.10969769426970473
28.016788,4.961191973884253,0.10954303300374667
28.021376,4.895315734884491,0.10937218359228854
28.025964,4.831360549494171,0.10916339917138496
28.030556,4.766261560227914,0.10898707493770891
28.035156,4.697975528762128,0.10888006050255655
28.03974,4.629445127868052,0.10878515723809483
28.044328,4.566433518374009,0.10860528129578594
28.04892,4.506775277242266,0.10839645531278594
28.0535,4.442664005320912,0.10830202276762196
28.05808,4.384970959247238,0.10810648025304653
28.062688,4.335250638488248,0.10781162266391456
28.067276,4.289905305253353,0.1074627473750478
28.071888,4.257274238999673,0.10693781145116453
28.076464,4.233148778365889,0.1063366596134906
28.081056,4.206369155837789,0.10583063469146883
28.085656,4.1895274536824445,0.1052622030312087
28.090248,4.180047553271057,0.104653078397324
28.094852,4.173065728222948,0.10409187273873641
28.099432,4.179086681032976,0.10340018182858668
28.104028,4.189648947529871,0.10272075641411961
28.108616,4.2000109860471015,0.10213380522318907
28.113216,4.216468837718205,0.10156307221481349
28.117796,4.239633426113908,0.10095986973039647
28.122396,4.26872750150071,0.10031295575775853
28.126988,4.307226616955055,0.0995998019952411
28.131584,4.34936761164862,0.09891279189994528
28.13618,4.394128866419611,0.09828184877383737
28.140776,4.444575238753408,0.09764478079558056
28.145384,4.505570455030687,0.09691566515982507
28.14998,4.56984099640475,0.09626380389339263
28.154568,4.6370983519986755,0.09565025583699974
28.159164,4.708364140974258,0.09505445210944295
28.163752,4.776731398627233,0.09458738037092977
28.168348,4.848329839928363,0.09413304333500341
28.172936,4.927245941524823,0.09360217844337027
28.177524,5.003996620083547,0.09313808146451394
28.182112,5.086266090042305,0.09263790889372965
28.186708,5.176874839458186,0.09205863194898994
28.1913,5.266584154426418,0.09151609196182868
28.19588,5.355027480804566,0.09101439731657227
28.20048,5.444492426344506,0.09049755145406377
28.205068,5.532647241845735,0.08997652782546495
28.209664,5.618881003737523,0.08949986077426683
28.214256,5.70817962311469,0.08899480336387976
28.218844,5.7959237430248525,0.0885083336368079
28.22344,5.885300405667538,0.08797795125159905
28.228032,5.974266372719158,0.08743105061379926
28.23262,6.061144959998563,0.08687971852672324
28.237216,6.143237864162808,0.08634529718582593
28.241804,6.219767835478394,0.08581054903191275
28.246408,6.291267754250528,0.08529696373380195
28.251,6.3555721974414805,0.08483370362813426
28.2556,6.420976303059744,0.0843108476577739
28.26018,6.481472540848702,0.08379988038847613
28.264772,6.538737594989506,0.08329740372901999
28.269364,6.594159638786385,0.08276720258421341
28.273964,6.63993227308743,0.08228579538084635
28.27856,6.678998170663876,0.08182451638576796
28.283152,6.7158545037539605,0.08135838566085751
28.287736,6.750867826500121,0.08085840513074405
28.292332,6.786736442245301,0.08031583259896137
28.296936,6.818230070466389,0.07979173570370582
28.301528,6.843016961962875,0.07927656838369172
28.306116,6.861874366468263,0.07877706294636957
28.310704,6.871082361477816,0.07831001939875647
28.315296,6.873217065620333,0.07787000202878525
28.31988,6.869666652200042,0.07742419571835109
28.324472,6.861863435969804,0.07698534392142531
28.329064,6.848663613053679,0.07656845633601908
28.333664,6.833009856222902,0.07614670622539382
28.33826,6.813880546315679,0.07573106728926352
28.342852,6.798182648036273,0.07526211661958906
28.347444,6.776066523909187,0.07482452023171478
28.35204,6.751496465867449,0.07438160669148275
28.356632,6.723450854749264,0.07394404336429938
28.361216,6.693484190021639,0.07351837271790476
28.365808,6.6673596325128965,0.07306276444815586
28.370396,6.642378878880093,0.07258899560481583
28.375008,6.612656583580758,0.07214308988770315
28.379596,6.582812103567278,0.07170147342431578
28.384204,6.552845438839653,0.07126594921443397
28.388796,6.520957720502587,0.07083943920548948
28.393396,6.490624501632523,0.07041629381571142
28.397988,6.457226425277079,0.07001877837232962
28.40258,6.431923258950467,0.069591548419682
28.407184,6.408296776805006,0.06916107654958263
28.411764,6.388556543327054,0.06874763129191874
28.416368,6.373191297373197,0.068326130861964
28.420956,6.363877723124583,0.06789770267724657
28.425556,6.365723916390181,0.06741896177790399
28.430144,6.375787204398752,0.06691137242685812
28.434744,6.385606122979034,0.06642059511061124
28.439328,6.406462624359381,0.06589239749541373
28.443928,6.432471362997325,0.06536578782679084
28.448512,6.466697196378244,0.06481779853816046
28.453108,6.502599713940313,0.06427500428852823
28.457704,6.538135677359946,0.06375663167139052
28.4623,6.57420452108479,0.06326199459588987
28.466896,6.61566997149552,0.06275804718308066
28.471496,6.659833725249194,0.06225199045519953
28.476084,6.701954240679281,0.06176813270589019
28.48068,6.755234523623579,0.061250044658483854
28.485272,6.817098455453292,0.06069981084178755
28.489856,6.8891005356354205,0.06012491525357775
28.494448,6.961713539388278,0.05953241582259473
28.49904,7.039723149827022,0.05893696109907794
28.503624,7.121819236912939,0.05832109068089224
28.508212,7.198152163170535,0.05773645976375717
28.5128,7.274973828284714,0.05713877270323058
28.517388,7.344888528694627,0.05659425338655316
28.521984,7.412227110475743,0.05605859213400459
28.52658,7.483285614761596,0.055522993294132725
28.531168,7.543062166819093,0.055030335591156096
28.53576,7.602061469143087,0.05453993130792277
28.540352,7.6552976106387565,0.05407906872159142
28.544956,7.707512132972633,0.053627604221011316
28.549544,7.759848840020656,0.0531739804556306
28.554132,7.8085878092780865,0.05272589909449887
28.55874,7.854628475192574,0.052284035349718844
28.563332,7.900014076087705,0.05183655386430645
28.567924,7.942579188925746,0.051396615917873686
28.572504,7.974883968697224,0.05098392364653505
28.5771,7.996684045973848,0.050606794330156774
28.58168,8.009367594059846,0.050241996712241374
28.586284,8.015677057746792,0.04992343719827794
28.590876,8.015568295586059,0.049612964895116914
28.595464,8.006998069254058,0.04932123273910056
28.600056,7.997650593188555,0.04902190014919917
28.604652,7.978575664361698,0.048755184958213064
28.609256,7.952183075239513,0.048492864337870076
28.613852,7.91426416446068,0.04826180493598135
28.61844,7.860976824806316,0.04807447267114527
28.623036,7.805524062114221,0.047901630314467945
28.627624,7.7404660313749165,0.047755369538498765
28.632212,7.668090340340284,0.047612346352481544
28.636808,7.589296423457971,0.04747238977291663
28.641396,7.504983715175625,0.04733441839215346
28.64598,7.412864607741368,0.04722305249785908
28.650576,7.31408290503114,0.04712604139265396
28.655172,7.209538041492587,0.0470402177486333
28.659764,7.100007266859214,0.04697701457312039
28.664352,6.9850798855399505,0.0469079497065846
28.668932,6.866310397001807,0.046849667540747736
28.673524,6.743454431816488,0.046813287166082046
28.678112,6.616101294392929,0.04677532114759085
28.6827,6.484783865036343,0.04675463452821951
28.687288,6.350523762908523,0.046743572218180054
28.69188,6.217163095228349,0.04672655378006434
28.696468,6.086622915605266,0.04670100019044364
28.701076,5.954938932106241,0.04668812307901977
28.705676,5.8277521208454575,0.04667850451758053
28.710268,5.7063284704129975,0.046651526090318474
28.714848,5.587969677465919,0.04660016648025418
28.719448,5.472553557290075,0.04653239309549976
28.724036,5.359713555743028,0.04646956025299349
28.728636,5.247528619215338,0.04642096979369572
28.733224,5.132278825202268,0.046392552745954684
28.737824,5.024591060912817,0.046341791162790025
28.74242,4.918702165518662,0.046289782963793345
28.747012,4.810525662372626,0.04627028671195095
28.751604,4.708234504769063,0.04621595041093193
28.756204,4.611872834156599,0.046187697782779834
28.760792,4.520374889924808,0.046130357306953265
28.765376,4.433740672073695,0.04604353367432286
28.769956,4.348660953689587,0.04597686709772642
28.774548,4.264602854467271,0.04589967857668718
28.779136,4.1833652433020445,0.04580905207900271
28.783732,4.098818405223147,0.04576816402540301
28.788324,4.012106144106516,0.045758665683864705
28.792916,3.93283372799936,0.04573024837046586
28.7975,3.8585472229870255,0.04565587676404608
28.802088,3.7850379677081927,0.04559272478734056
28.806688,3.7084638549439797,0.045557376264994384
28.811272,3.632544807199123,0.04554406169705925
28.815872,3.5558485097207644,0.045513822761441294
28.820456,3.4820948850136406,0.04545915902411515
28.825044,3.4129606172589018,0.04539494229130795
28.82964,3.3408836767329273,0.045351846644526565
28.834228,3.2699505400828928,0.04527497523211767
28.838816,3.1991395881470037,0.04518747216029448
28.843412,3.1252637787257345,0.04513307774062323
28.848004,3.049833469837461,0.04504555425590965
28.852596,2.9703166843020132,0.045008564471723425
28.857176,2.8849145532240956,0.04502422965234098
28.861776,2.801555660469765,0.04501646318542673
28.866364,2.7208950710583775,0.04500878552616943
28.870968,2.6389684930569057,0.04505482179380433
28.875556,2.5585522730738095,0.04501433969514917
28.880156,2.479279856966653,0.04494311714608498
28.884752,2.392567595850022,0.04489623112134944
28.889344,2.298171120295626,0.04490194955341632
28.893928,2.2020979605600797,0.04488514654951427
28.89852,2.107046419986327,0.04484718216901926
28.903124,2.012361433555011,0.044709452549121176
28.90772,1.9170655235529668,0.044734646431502205
28.912312,1.8207479943891292,0.044767865736319974
28.916904,1.7236532154917894,0.04474178960211149
28.921492,1.6257811868609475,0.04249439442795532
28.926088,1.5265209849258752,0.04028320902371467
28.930676,1.4329017591049809,0.0380648240566624
28.935272,1.3414479563218196,0.035835829481348426
28.939864,1.2441088079961884,0.0336301469968785
28.944452,1.153432254946529,0.03139756402447205
28.949044,1.0686410474393397,0.02913584285044044
28.953632,0.986914697417531,0.0268791862672483
28.958228,0.9051883473957222,0.02462658024756295
28.962816,0.8256274204116462,0.022335228987865503
28.967404,0.7483982426280766,0.020097963531508996
28.972,0.674111737615742,0.017869640209222305
28.976588,0.6062434584510877,0.015629923836424982
28.981176,0.5419729170770251,0.013376315644884156
28.985772,0.4852644054265825,0.011135504751949458
28.99036,0.4311320124049376,0.008907214709506924
28.994956,0.3776499030380549,0.006767898368497791
28.999548,0.3300531392136419,0.004484808848364408
29.00414,0.2860541131798203,0.002211201251769754
29.00872,0.24553064022244442,0.0
29.01332,0.21040377395095566,0.0
29.017908,0.18001844934599753,0.0
29.022508,0.15041037447454153,0.0
29.027104,0.12325623351773776,0.0
29.031704,0.10546299117984954,0.0
29.0363,0.08754756412781564,0.0
29.040892,0.07118663654278609,0.0
29.04548,0.0553585892629674,0.0
29.050076,0.042228845326092244,0.0
29.054668,0.031675220018014975,0.0
29.05926,0.023042648319379088,0.0
29.063848,0.01596457608774755,0.0
29.068436,0.009785938303763871,0.0
29.073028,0.0073272230245172675,0.0
29.077616,0.002703084707537946,0.0
29.0822,0.0,0.0
29.086796,0.0,0.0
29.091388,0.0,0.0
29.095968,0.0,0.0
29.10056,0.0,0.0
29.105148,0.0,0.0
29.109736,0.0,0.0
29.114344,0.0,0.0
29.118932,0.0,0.0
29.123528,0.0,0.0
29.128116,0.0,0.0
29.132704,0.0,0.0
29.1373,0.0,0.0
29.1419,0.0,0.0
29.1465,0.0,0.0
29.1511,0.0,0.0
29.155692,0.0,0.0
29.160272,0.0,0.0
29.164872,0.0,0.0
29.16946,0.0,0.0
29.174052,4.8922813222543264e-05,0.0
29.178648,0.00022003034059075823,0.0
29.183244,0.0010462028873154815,0.0
29.18784,0.005592297938777281,0.0
29.192432,0.007317904933149855,0.0
29.19702,0.00748901246051807,0.0
29.201616,0.0074890124605180705,0.0
29.206204,0.007489012460518071,0.0
29.2108,0.007489012460518071,0.0
29.215388,0.007489012460518071,0.0
29.219972,0.00958117359732766,0.0
29.22456,0.014493822791226475,0.0
29.22916,0.01940647198512529,0.0
29.233752,0.02456349060731544,0.0
29.238344,0.029720509229505605,0.0
29.24294,0.03397809340404791,0.0
29.24752,0.03823567757859021,0.0
29.252116,0.046213184257869605,0.0
29.256704,0.05509012538479684,0.0
29.261292,0.06204601290228269,0.0
29.265888,0.06997459676833953,0.0
29.270476,0.07765881120610502,0.0
29.275064,0.08865225255754243,0.0
29.27966,0.09604795611838843,0.0
29.284248,0.1053647132886758,0.0
29.288844,0.11803483882126324,0.0
29.293428,0.1300988221477167,0.0
