Time,Force,Position
26.64902,0.3096983294956583,0.0
26.653608,0.320936140275387,0.0
26.658204,0.3328290160744723,0.0
26.662796,0.34357808799761835,0.0
26.66738,0.35036286798773597,0.0
26.671976,0.3511401177212382,0.0
26.676552,0.35011849855944466,0.0
26.681148,0.35126230243538387,0.0
26.685744,0.364054612682117,0.0
26.690332,0.38056684543358715,0.0
26.694928,0.39617964373740944,0.0
26.699516000000003,0.4138356803648188,0.0
26.704104,0.4316139017063739,0.0
26.7087,0.45029155749557676,0.0
26.713292000000003,0.46680379024704693,0.0
26.717888,0.4783301119036952,0.0
26.722476,0.4887126296844042,0.0
26.727076,0.49549740967452194,0.0
26.731668,0.5029372546839961,0.0
26.736264,0.5085782307981745,0.0
26.740844000000003,0.5151186413600007,0.0
26.745444,0.519249259455803,0.0
26.750028,0.5186383358850748,0.0
26.754620000000003,0.5207257156572899,0.0
26.759212,0.5246119643248007,0.0
26.763804,0.5281316588498747,0.0
26.768392,0.532306418394305,0.0
26.772988,0.5361146237962984,0.0
26.777576,0.5351812875317611,0.0
26.782164,0.5332263321054304,0.0
26.786752,0.532048626412602,0.0
26.791348,0.5298493015579798,0.0
26.795936,0.5253623689514793,0.0
26.80052,0.5226743052402746,0.0
26.805112,0.5210078606908634,0.0
26.8097,0.5220397194843956,0.0
26.814296,0.5193516557731909,0.0
26.818884,0.5143759843101077,0.0
26.823472,0.5045365864663482,0.0
26.82808,0.49559662307023666,0.0
26.832656,0.48395835633118156,0.0
26.837268,0.47178720928691553,0.0
26.84186,0.46819971112806297,0.0
26.846464,0.46113665989276464,0.0
26.85106,0.4521525550480248,0.0
26.855648,0.4436571890598678,0.0
26.860244,0.43630562694765,0.0
26.864836,0.4318967376066671,0.0
26.869428,0.4223797524567165,0.0
26.87402,0.4111860831256159,0.0
26.87862,0.4021578368322481,0.0
26.883208,0.39006473305349965,0.0
26.887808,0.38091430204598603,0.0
26.892396,0.3671445140860875,0.0
26.896996,0.35337472612618903,0.0
26.901588,0.33907205786107975,0.0
26.906184,0.3302881809960032,0.0
26.910780000000003,0.3254685960639551,0.0
26.915364,0.32281443416963973,0.0
26.919952,0.32028245698947,0.0
26.924548,0.32057096786638956,0.0
26.929136,0.3245794012480461,0.0
26.933724,0.3233134126579612,0.0
26.938312,0.32462354269667426,0.0
26.942908000000003,0.3280990957731199,0.0
26.947496,0.3324740832972135,0.0
26.952092,0.33505020192601137,0.0
26.956684000000003,0.3330069636024244,0.0
26.961272,0.33517238664015714,0.0
26.965872,0.3422015360585661,0.0
26.970460000000003,0.34592145856330314,0.0
26.975056,0.3536056730010686,0.0
26.979644,0.3566705304864492,0.0
26.984232,0.3690962865907453,0.0
26.988828,0.38127767326675005,0.0
26.993416,0.39321469051446345,0.0
26.998004,0.40053235080979194,0.0
27.002596,0.40323065415273546,0.0
27.007188,0.40707276137161824,0.0
27.01178,0.4107926838763553,0.0
27.01636,0.41156993360985744,0.0
27.02096,0.4104261297339183,0.0
27.025548,0.4086714022872507,0.0
27.030140000000003,0.40679449012643737,0.0
27.034732,0.40508390412839806,0.0
27.039332,0.4068488712068044,0.0
27.043916000000003,0.4127444563810129,0.0
27.048512,0.42456952854631946,0.0
27.053104,0.43770473075033905,0.0
27.0577,0.44446584855530613,0.0
27.062296,0.45314801996971454,0.0
27.066896,0.46146363724168604,0.0
27.071484,0.4749314917712532,0.0
27.07608,0.4805929471489092,0.0
27.080672,0.4888305211553632,0.0
27.085256,0.49543555242929516,0.0
27.089844,0.5035950831702315,0.0
27.094436,0.513064743949881,0.0
27.099032,0.5207796772828628,0.0
27.103624,0.5301712947969947,0.0
27.108220000000003,0.541117411778131,0.0
27.1128,0.5536180282262715,0.0
27.117392,0.5662408293885577,0.0
27.121984,0.5820506727503704,0.0
27.126572000000003,0.5994930588447047,0.0
27.131168,0.6125604574149455,0.0
27.135752,0.619820553708234,0.0
27.140348000000003,0.6253598243717443,0.0
27.144944,0.6325316377677765,0.0
27.149532,0.641213809182185,0.0
27.154128,0.6503847194531761,0.0
27.158724,0.6582454996854541,0.0
27.163328,0.664018900145517,0.0
27.167904,0.6734680816616888,0.0
27.172508,0.6771099609009085,0.0
27.177096,0.6809520681197911,0.0
27.181696,0.6863045333570501,0.0
27.186284,0.6945555299169157,0.0
27.190884,0.7044390692093033,0.0
27.195468,0.7127681090346867,0.0
27.20006,0.7217080724307984,0.0
27.204648,0.7271724827504641,0.0
27.209244,0.7395438577743932,0.004471931469050065
27.21384,0.7461520719699984,0.009090916909442841
27.218436,0.7500619828226599,0.01370083610041396
27.223024,0.7566701970182648,0.01821680897578019
27.227608,0.7676533987379635,0.02264649420513183
27.232196,0.7750830041156991,0.02733057103511152
27.236796,0.7783039481321147,0.03218120841446387
27.241384,0.7850004452249759,0.03693454798868273
27.245968,0.788509900118311,0.041905420183204714
27.25056,0.7974159616975335,0.04657236567596881
27.255148,0.8076321533154684,0.05125320642217139
27.259744,0.8160936174867361,0.05608491100862885
27.264332,0.8322834375443976,0.06079681396152325
27.268924,0.8496612029266261,0.06556000857583025
27.273508,0.8664280447381265,0.07041861456523113
27.278096,0.8841384624459028,0.07528711853880947
27.282688,0.9004607068494486,0.08028727218863344
27.287280000000003,0.9175602009864965,0.085288712877861
27.291868,0.9339265868386705,0.09042113191177144
27.296464,0.9528690913196423,0.09559601247174584
27.301048,0.9649046310963507,0.09643214605555159
27.305644,0.979516289501857,0.09716200083460745
27.310232,0.9967040665361614,0.09780899399126389
27.314832000000003,1.0090281171897892,0.09882506100981968
27.31942,1.0193089295198303,0.10001841383271316
27.324012,1.0353529026781951,0.1007574283807721
27.328596,1.054339548607795,0.10123892960573797
27.333184000000003,1.069728456746804,0.1019043013472229
27.337776,1.0897367218381973,0.1022594794390639
27.342372,1.1023051419201166,0.10309534988755978
27.346960000000003,1.1113980089255902,0.10405959052271745
27.351552,1.1226562989687965,0.10477301803929892
27.356144,1.130805590077994,0.10547556064804141
27.360728,1.1372781970060415,0.1062151819749944
27.365316,1.1421963044670849,0.10695090130719871
27.369916,1.1488691393747956,0.107328894510978
27.374504,1.1562750825673804,0.1074570846753329
27.3791,1.1620043415788153,0.10762418092391873
27.383692,1.1657684055321804,0.10766230291863392
27.388276,1.168100154732687,0.1076590052073541
27.392856,1.1687552197520434,0.10769978037394694
27.397436,1.1689995891803346,0.10761242212061796
27.402024,1.1687110783034154,0.10744457353367548
27.406616,1.1746744671114029,0.10672207377057016
27.411204,1.1821482139377664,0.10575780906049016
27.415808,1.1843475387923885,0.10502165742844033
27.4204,1.1848701794658603,0.10433713493352187
27.424988,1.185881558995915,0.10348107896793592
27.429596,1.1798196476589324,0.10289362817880619
27.434188,1.1758009746455371,0.10212437687172077
27.438784,1.1758687782793158,0.10101293158513036
27.44336,1.1715615943890008,0.10006437655690908
27.44796,1.1645561071557429,0.09923186140939896
27.452548,1.1588166085125693,0.09822160207573231
27.457148,1.1584295751066547,0.0967413562391791
27.461736,1.1481929042252417,0.09592356241657425
27.466336,1.1368124294678899,0.09521373524674255
27.47092,1.1284968121959185,0.0942618230907227
27.475512,1.1199368254956557,0.09337206509571534
27.480104,1.1180394340713649,0.09213917898407492
27.484696,1.1210057690277506,0.0906045359655989
27.489296,1.1227061153940507,0.08921840199458357
27.493888,1.1221188540084732,0.08806803497095264
27.49848,1.1152796929379885,0.08740167803564956
27.503064,1.1061529241156258,0.08695952947527798
27.507652,1.096903970579117,0.08655337276290746
27.512252,1.0854895940048757,0.08635070671362283
27.516832,1.0764069666311409,0.08616043558966185
27.52142,1.0755414340003824,0.08562092567070412
27.526012,1.077129835284276,0.08506996332502591
27.5306,1.0764306288162917,0.08476020140667756
27.535196,1.0783075409771048,0.08438749850828137
27.539784,1.0804729640148374,0.08418639050640656
27.544372000000003,1.0821496481959874,0.08416037752609651
27.54898,1.0769635091215024,0.0848553416263403
27.553568,1.084080941437168,0.08489462404184617
27.558176,1.091731254058044,0.08502464036762493
27.562764,1.096072339765248,0.08547291173988372
27.567356,1.1068316513201328,0.08565353171471973
27.571948,1.1094180095806694,0.08639648003656453
27.576544,1.107917891194032,0.08741813288000994
27.581148,1.1082166417026902,0.08838205505324205
27.58574,1.1112136955542922,0.0892492324335274
27.590344,1.1181750413389224,0.08987628499621221
27.594932,1.1239925832476136,0.09062473916935147
27.599524,1.1322640590709567,0.09135132536661664
27.604112,1.1425787732178871,0.09191374453738498
27.608712,1.1517496834888785,0.09259009465708709
27.613292,1.1570784865409869,0.09348017563773643
27.617892,1.1625294743072407,0.09430814043576484
27.622484,1.1700237003970817,0.0949828422355059
27.62708,1.1821372834393076,0.09545727703072528
27.631664,1.1956390397857644,0.09573996981069942
27.636256,1.2122056536176014,0.09581758684143798
27.64086,1.2323258637914016,0.09549325503562267
27.645456000000003,1.2421857408986388,0.09565411507671574
27.650048,1.2531894218818151,0.09570546624552737
27.654632,1.2675023297786632,0.09548579892152834
27.659224,1.275274827113685,0.09555630631228244
27.663812,1.2864787360765244,0.09531277554312603
27.6684,1.2998480680770963,0.09488194033690298
27.672992,1.3135839542201053,0.09435755897122865
27.677576,1.3257653408961103,0.09383426503935269
27.682168,1.339334900876345,0.09317597155273354
27.68676,1.3611995988650745,0.09203620467855941
27.691348,1.3855962740339731,0.09069968830663164
27.69594,1.4083162650217222,0.08936365357443107
27.700536,1.4279272570754624,0.08797287264998835
27.705124,1.4499480415952266,0.08640408188533735
27.709728,1.4677160233050428,0.08489581608245557
27.714316,1.4820084519384134,0.08346777301104544
27.718908,1.4882059705429533,0.08226194855757904
27.7235,1.492726804966343,0.08105674315360385
27.728088,1.4931170212939309,0.07987312886041793
27.732684,1.4920749228686598,0.07863665573694985
27.737276,1.4952414858047085,0.07713318340908705
27.74188,1.4987746028831943,0.0755597696475333
27.746472,1.4975661782951493,0.07413422212378484
27.751068,1.498645361458983,0.07252979922132594
27.75566,1.4912630804515488,0.0711133928750956
27.760256,1.483103549710612,0.0696697340069899
27.764844,1.4730229653602342,0.06828941648172689
27.769444,1.4611435121145608,0.06692153841894893
27.77404,1.444400332488211,0.06571101761331755
27.778632,1.4189513192623022,0.06477260209649634
27.783228,1.3905596332651589,0.06391070806941802
27.787816,1.3661322392010433,0.06288649956758956
27.792404,1.3453025829275196,0.061799488333488375
27.796988,1.3203864500068219,0.06085548787465368
27.801576,1.2979242510007762,0.05992956592644989
27.806164000000003,1.2759949322999413,0.05907613146848493
27.810752,1.2566417322279042,0.05820431452279514
27.815348,1.2416635196799608,0.05731962316952136
27.819936,1.231837544389613,0.05645386945921797
27.82452,1.2212784608143914,0.05577145934350194
27.829112,1.2121516919920288,0.05517323238405243
27.8337,1.2008595001319329,0.05467578225526021
27.838292000000003,1.1929206766341371,0.05421711130577998
27.842884,1.186536352603346,0.05381318041780416
27.847472,1.1911896113726206,0.05327738838480477
27.852064,1.199074053790049,0.05282846734737064
27.856652,1.2077357459409799,0.05240633100262674
27.861264,1.2197508064542109,0.0520304331981634
27.865852,1.238716973120333,0.0516871732894384
27.87044,1.2598927042728163,0.051441636757797164
27.875036,1.2786586429592754,0.05136597304832598
27.879628,1.2946482350372734,0.051568242828928954
27.884232,1.3111707074204824,0.051864489019950465
27.888812,1.3301471137183436,0.0522064436725529
27.893408,1.3518218233591484,0.052530559023312696
27.898,1.3773386402188361,0.05277085020250179
27.9026,1.4053093909931758,0.05304946079042703
27.90718,1.4291936651203414,0.05345977177803499
27.91178,1.4461709745432436,0.05405161236909204
27.916364,1.470954683118057,0.05444503051780865
27.92096,1.4944724031027858,0.05492158491046788
27.925552,1.52146567616396,0.055402315202203484
27.930148000000003,1.5494805683869282,0.05583888713178945
27.934744,1.5734089839627217,0.05639887761958463
27.939332,1.6002800723097503,0.056882144165930036
27.94392,1.6264960956374226,0.0573059216926584
27.948516,1.654633172574536,0.0576980136779456
27.953108,1.6831368036540868,0.05801189370633593
27.957700000000003,1.7064881974760413,0.05828899326635408
27.962288,1.7313499493163724,0.05843652410431052
27.966884,1.7604203625180233,0.05844378157806801
27.97148,1.7912455031663415,0.05827061827893233
27.976072,1.820271774919364,0.05810006971828668
27.980668,1.8487651663671758,0.057857968208566805
27.985248,1.8718619511291004,0.057641064424536106
27.989844,1.8922604325480816,0.05744635742362663
27.994432,1.9153130758613781,0.05710054260629653
27.999024,1.9399982619071965,0.05661049897193281
28.003616,1.9668488709907475,0.0560185604948216
28.008204,1.9804964742365,0.05560265846782705
28.012792,1.990790709119953,0.055146349480112634
28.017388,1.9960548914599556,0.054643223059259415
28.02198,1.9968219015617188,0.05415545294102776
28.026584,1.999221454396004,0.05351300296216895
28.031164,1.9894396205542848,0.05301227140390268
28.035772,1.9741389953125323,0.052547577269310725
28.040352,1.9542190131183947,0.05211705329033711
28.044952,1.9298018586860184,0.051685885237713045
28.04954,1.9064063234154358,0.05121734509803018
28.054144,1.8839102225925006,0.050742716512285346
28.058728,1.857572014550683,0.05031443857487823
28.063328,1.8272695145758369,0.049947318218596236
28.067916,1.7945130806863383,0.04952726061775533
28.072508,1.7607350276350464,0.04912604929105883
28.077104,1.7297774626408438,0.048688084162478315
28.0817,1.694977790427758,0.04829375907677204
28.086288,1.651227915186822,0.04806596676895946
28.09088,1.6078887355369516,0.047931878650677384
28.095472,1.5676144133724614,0.047701933694860754
28.100056,1.5309378289985627,0.04748426006810963
28.104644,1.4961822982341049,0.04722754917399214
28.109236000000003,1.4638807013842998,0.04701160608938495
28.113824,1.4351768423250861,0.0467940383704626
28.118416,1.4049626252474965,0.046710982506028516
28.123012000000003,1.3832098723411743,0.04653629500257306
28.127592,1.3670980955490304,0.04629772053881283
28.132188,1.355483490995126,0.04606111546886275
28.136776,1.347100070089376,0.04590968885474524
28.141372,1.338227910327043,0.04587449519583882
28.145968,1.3255136433458274,0.045889914836900435
28.150556,1.312799376364612,0.0459053730073353
28.155152,1.3084243888405183,0.04586968066087326
28.15974,1.307647139107016,0.045838724217610975
28.164328,1.308790942982955,0.04578232682147822
28.168924,1.3098125621447485,0.04575532480338291
28.173516,1.3173745918683686,0.045684336078291324
28.17812,1.333398085763256,0.04553887387991509
28.182708,1.350809752962374,0.04528709471077745
28.187312,1.3669554315714072,0.045133582690476924
28.191892000000003,1.3910296940464972,0.044838767013011205
28.196492,1.4175578904362394,0.04460974929367717
28.20108,1.4461293251495688,0.0443418886226928
28.205684,1.4767439981864852,0.04403934516926357
28.210268,1.5160645048229604,0.043635355250196836
28.21486,1.5486002314693181,0.04332149564524599
28.219452,1.5810137734015302,0.04305527518351219
28.22404,1.6126500656002398,0.04276787439027936
28.228628,1.6446529119413869,0.04241101016139091
28.233224,1.6780439315867643,0.04195676944627285
28.237812,1.711312766517996,0.041515380415648305
28.242404,1.7481793392398193,0.04108504745565093
28.246992,1.7758071980568721,0.040690476830360804
28.251588,1.8044566760357188,0.040292260827452
28.256164,1.8341277731763594,0.039890874777419656
28.26076,1.865842108640587,0.03946050886272792
28.265356,1.892937087152429,0.03904058582214089
28.269936,1.9166786973019714,0.038578492401747266
28.274528,1.9355565810708377,0.03817008414471835
28.279116,1.9507145423349666,0.03775970237133535
28.283708,1.9590877236089783,0.037416436332836506
28.288304,1.9602654293018067,0.03702179658652351
28.292892,1.9585004622234006,0.03665853921392571
28.297492,1.9509723343166698,0.036328485789792
28.302072000000003,1.9321622541815826,0.03601771535393186
28.30666,1.9192375195889648,0.035649209581014786
28.311264,1.8988729399868731,0.03526473950846751
28.315852,1.8786305450989271,0.03485556336284617
28.320456,1.853402239116159,0.03449506256860952
28.325044,1.823310206752715,0.034155619755700826
28.329648,1.7952614127128577,0.033777190605924955
28.334236,1.7647586847583483,0.033321908062523775
