Time,Force,Position
24.002836,0.02230724075086346,0.0
24.007424,0.02818114373457072,0.0
24.012016,0.036098285041865026,0.0
24.016608,0.042993807187365805,0.0
24.021196,0.04976714461872092,0.0
24.0258,0.057562101211869554,0.0
24.030384,0.064579808071516,0.0
24.034976,0.07261913409295598,0.0
24.039568,0.08360113288563085,0.0
24.044156,0.09433876225001439,0.0
24.048752,0.10711962993798496,0.0
24.053344,0.11887887846416204,0.0
24.057936,0.12961650782854556,0.0
24.062524,0.14329680996416397,0.0
24.067128,0.1522911544406425,0.0
24.071716,0.161652053059558,0.0
24.076316,0.16602704058365161,0.0
24.0809,0.1656604864412146,0.0
24.0855,0.1613410829245117,0.0
24.090084,0.15522281051251308,0.0
24.09468,0.14922672281466015,0.0
24.099276,0.14526243088163174,0.0
24.103872,0.13734528957433742,0.0
24.108468,0.13044976742883665,0.0
24.113068,0.12367642999748155,0.0
24.11766,0.11588147340433293,0.0
24.12226,0.10886376654468648,0.0
24.126848,0.1008244405232465,0.0
24.131436,0.08984244173057163,0.0
24.136023999999995,0.07910481236618809,0.0
24.14062,0.0663239446782175,0.0
24.14522,0.05456469615204044,0.0
24.149799999999995,0.04382706678765691,0.0
24.154392,0.030146764652038482,0.0
24.158968,0.020430754449448467,0.0
24.163564,0.010592559532712788,0.0
24.168152,0.006095387294473526,0.0
24.172732,0.0033970839515299724,0.0
24.177328,0.0033970839515299724,0.0
24.18192,0.0033970839515299724,0.0
24.186508,0.0033970839515299724,0.0
24.191099999999995,0.0014874729008511366,0.0
24.195688,0.0014874729008511366,0.0
24.200284,0.0018425844845256177,0.0
24.204864,0.006161988001228514,0.0
24.209464,0.009337587641992221,0.0
24.214052,0.011735937549253748,0.0
24.218651999999995,0.012091049132928229,0.0
24.22324,0.012091049132928229,0.0
24.22784,0.012091049132928229,0.0
24.232427999999995,0.012091049132928229,0.0
24.23702,0.012091049132928229,0.0
24.241612,0.012091049132928229,0.0
24.246208,0.012091049132928229,0.0
24.250804,0.012091049132928229,0.0
24.255404,0.012091049132928229,0.0
24.259992,0.0108365031016059,0.0
24.264588,0.013422861362142572,0.0
24.26918,0.020006210445573273,0.0
24.273764,0.028554754587073506,0.0
24.278352,0.042011166557878156,0.0
24.282944,0.055511719977310955,0.0
24.28754,0.07187690290246114,0.0
24.292132,0.08768674626427364,0.0
24.296724,0.0995764391416859,0.0
24.301316,0.11649618456254826,0.0
24.305912,0.1391010475462172,0.0
24.3105,0.1686570166827776,0.0
24.315088,0.2052748341276126,0.0
24.319696,0.24487946579231065,0.0
24.324284,0.2857942274957217,0.008658020670127373
24.32888,0.32789693452370017,0.017387993614792492
24.333472,0.3719648366097481,0.026120602085213933
24.338076,0.42310602956283316,0.034018146711347536
24.342668,0.47718989528715317,0.04153912523337658
24.347256,0.5303743265638253,0.04914672382147604
24.351852,0.5809826392116996,0.05697809787962111
24.356448,0.6278722322818605,0.0649077646284401
24.361048,0.6703426963792998,0.07282595486631135
24.365636,0.7101929003993128,0.08073235792979207
24.370236,0.7434585524088715,0.0887916042338612
24.374828,0.7760249979504455,0.09684047253196265
24.37942,0.8060933681287393,0.10470951861034276
24.384008,0.8378723243050724,0.11218797592618056
24.388608,0.8698515084610687,0.11955380975781243
24.393196,0.8975337483584889,0.12678711440934376
24.397788,0.9140120792930697,0.13475415901674684
24.40238,0.9192865012648112,0.13475415901674684
24.406976,0.9145008181496525,0.13475415901674684
24.411564,0.9040300174716871,0.13475415901674684
24.41616,0.8953139442403892,0.12609613834661948
24.420748,0.8848770453793132,0.11736616540195434
24.425336,0.8700210175455155,0.10863355693153288
24.42992,0.8424507227305023,0.10073601230539929
24.43452,0.808217832639517,0.09321503378337023
24.439108,0.7723082583673816,0.08560743519527077
24.4437,0.7426947252287812,0.07777606113712571
24.448296,0.7159016801472701,0.06984639438830671
24.452884,0.6914403842662655,0.061928204150435456
24.457484,0.6675119686904717,0.05402180108695474
24.462072,0.6450158678675367,0.04596255478288562
24.466664,0.6277941890163432,0.037913686484784166
24.471252,0.6129042593656562,0.030044640406404057
24.47584,0.596381786982447,0.022566183090566246
24.480436,0.5820688790855989,0.015200349258934369
24.485016,0.5685773623708812,0.007967044607403072
24.489604,0.5712756657138247,0.007626976919858538
24.4942,0.586566051323838,0.014601855500533483
24.498792,0.6056205008872166,0.021704321497438304
24.503396,0.6308488068699847,0.02854458235237023
24.507976,0.6544445701202308,0.035383366509564175
24.512584,0.6828260164856357,0.0419774195159007
24.517176,0.7188136340232886,0.048304173343747994
24.521768,0.7609751079803307,0.05469460697105251
24.526347999999995,0.81020987280441,0.060951891567528296
24.530948,0.8652519399054416,0.0671236105190602
24.535532,0.9182507686828861,0.07323812676952175
24.54012,0.9680625552608044,0.0795036524743442
24.544708,1.016852722676929,0.08579170511744362
24.549304,1.064376901502969,0.09227102748044862
24.553908,1.111001645881361,0.0988753014754586
24.558508,1.152640479164931,0.10559052611946092
24.5631,1.191458824391412,0.1123429912032928
24.5677,1.231054419351395,0.11911424206549333
24.572288,1.2662750267872842,0.12603734217174253
24.576876,1.3019843730797565,0.13290230866259178
24.581468,1.3240800179433652,0.13242254137928922
24.586064,1.3398796216734394,0.13259487243517026
24.590652,1.3574339528501806,0.13239764685897493
24.595227999999995,1.3695916773410348,0.1326242258814013
24.599824,1.37864040289788,0.1329407021508518
24.604404,1.3822925217688384,0.13365302647542582
24.608996,1.378094100039257,0.13484971924840228
24.613588,1.3764276554898458,0.1356395799971787
24.618176,1.3705084081304868,0.13663067042656435
24.622788,1.3625017809989124,0.1375559890415781
24.627376,1.35024235105739,0.1387006512245295
24.631964,1.3405148982960375,0.13949697610408046
24.636552,1.3316427385337046,0.13999938889165559
24.641136,1.3273457942751286,0.13998013032722764
24.645732,1.3254586424825765,0.13967032516839
24.650312,1.3196852420225138,0.13944089100989304
24.654907999999995,1.314278395704888,0.139094398924675
24.659492,1.3094824729579904,0.13855770232585599
24.664092,1.3068519732488255,0.13779207646872554
24.668676,1.3008681051773605,0.137163273851244
24.673276,1.300891767362511,0.1359935585465318
24.677868,1.301281983690099,0.13470998389692532
24.682464,1.2987295272464514,0.13367748336066185
24.687044,1.2993641130023306,0.1323243995254398
24.69164,1.301919752367651,0.1308087707977931
24.69624,1.3052085000178453,0.1290369189521778
24.700836,1.3125837243152134,0.1268619049243686
24.705428,1.313174168622464,0.12523210232026183
24.710011999999995,1.3141311670721518,0.12346249061049824
24.714604,1.3130449271982527,0.12188802880063757
24.719192,1.3136353715055036,0.1201965031182677
24.723772,1.311160958327374,0.11879647843564729
24.728356,1.304233514359633,0.11790726968674452
24.732952,1.2932195937447184,0.1174040342475702
24.73754,1.2801624348062164,0.11707841998290372
24.742136,1.272379697839456,0.11646065637005579
24.746724,1.2615321033873146,0.11614222032697231
24.751312,1.250317954792736,0.11593489152244252
24.755916,1.23820437175051,0.11577135614140212
24.760496,1.2285447226229362,0.11552913113611284
24.765084,1.2165974657434842,0.11554557567234745
24.769672,1.2049387197409516,0.11570916614424966
24.77426,1.1929134195959818,0.11601841058499535
24.778856,1.1814209997562228,0.11636438311828255
24.783448,1.1686625913263793,0.11689122808946462
24.788044,1.154149455449868,0.1177982987954565
24.792624,1.1387810265743368,0.11896927401775557
24.797224,1.1301973776889234,0.11960100060712042
24.801804,1.1229238588422232,0.12028954752726381
24.806388,1.1194924472144057,0.1206788218768478
24.810972,1.1208025772531187,0.12074514536456253
24.815567999999995,1.1228899570253337,0.12080350449553842
24.820156,1.1297188784640797,0.12052968170877947
24.824748,1.138468853512267,0.12011789658934302
24.829336,1.1515938160845476,0.11953012414113832
24.833932,1.1635749747808892,0.11907883935796781
24.838512,1.1783766215343199,0.1184080444919244
24.843104,1.189213976354722,0.1180333843058208
24.847692,1.2052035684327203,0.11748400234042589
24.852284,1.21890555275884,0.11716001068646054
24.856876,1.230442114047227,0.11703881170282815
24.86146,1.2387474916874597,0.1169926098709988
24.86606,1.2510171612607206,0.11660723464996052
24.870648,1.2653300691575686,0.11609774601114607
24.87524,1.2806645962162104,0.11548150927757525
24.879832,1.2991861654743782,0.11451532888305296
24.884408,1.3212613310745092,0.11319240225616027
24.88902,1.3391278353133207,0.1123065524042894
24.893608,1.3573608936945691,0.11133572333646916
24.898212,1.3689313567998456,0.11079550326060052
24.902804,1.374738659076798,0.11064553024880441
24.907396,1.3864313068962202,0.1101229213535939
24.911999999999995,1.3945262169250507,0.10976249396419958
24.916584,1.4007000733444397,0.10952048054679228
24.921188,1.4005778886302942,0.10955614051297803
24.925784,1.4023767575255899,0.10947936802483968
24.930376,1.4040534417067398,0.10943733727614863
24.934964,1.410960406411003,0.10898460826875858
24.939564,1.4115713299817316,0.1088108964538686
24.944152,1.419577957113306,0.10808134551345026
24.948744,1.428972757549111,0.10714743874797752
24.953328,1.4418431110613614,0.10607526284138817
24.95792,1.4482952387259316,0.10531190181055212
24.962512,1.4471853366668816,0.10496759486783079
24.967104,1.4450538154460384,0.1046964049050928
24.971704,1.442145044491693,0.10442822496388363
24.9763,1.4334731127090234,0.10447836313862087
24.980892,1.427210973392378,0.10428257029795175
24.985484,1.4199272149139388,0.10415092657955038
24.990072,1.4175071828161758,0.10373919208797568
24.994668,1.4181520082037933,0.10311356775066786
24.999252,1.4131558574772325,0.10277175286698431
25.003848,1.4121239986837,0.10219823226401695
25.00844,1.4119915743378155,0.10158868834410921
25.013028,1.4136580188872268,0.10089467305819363
25.01762,1.4127483448078404,0.10027332038046323
25.022212,1.4150257129279797,0.09943348496122012
25.026804,1.417058711619828,0.09868567329967773
25.031392,1.4161490375404415,0.09806559068679317
25.03598,1.4074329643091439,0.09786617671459738
25.040576,1.3994941408113482,0.09766832589712295
25.045156,1.3944979900847874,0.09731525924944645
25.04976,1.3952650001865508,0.09668852487321199
25.054352,1.398075248611901,0.09590686543029556
25.058952,1.4021514856273365,0.09498700550318762
25.063548,1.404961734052687,0.0941967251445389
25.068136,1.4047071249926568,0.0935749602230117
25.07274,1.4021649081807486,0.09316628239622803
25.077336,1.3984788874929008,0.09286252282906936
25.081928,1.3936490629291138,0.09266370517310463
25.086508,1.3848549464322986,0.09270924340178933
25.091108,1.3749170260595442,0.09287369916881666
25.095688,1.3608926290396157,0.09332450793694634
25.100287999999995,1.346990416733833,0.09373313766763322
25.104884,1.3370524963610784,0.09387235690808604
25.109476,1.3269923912741781,0.09405276801548185
25.11406,1.313989613416043,0.09437685361637656
25.118656,1.297144728339025,0.09490147491791345
25.12326,1.2917039802045096,0.09486433085788318
25.127852,1.2917820234700272,0.09461328264511047
25.132444,1.2945583700784882,0.09428177555336477
25.137039999999995,1.292470990306273,0.09419548241457917
25.141628,1.2860527644585922,0.0944192454299243
25.14622,1.2840095261350055,0.09453878658035435
25.150808,1.2845424064402164,0.09461103112670557
25.155404,1.288140144230808,0.09451357733981777
25.159996,1.3001993461926669,0.09409012976295342
25.164584,1.3121363634403802,0.09368069845001006
25.169176,1.3261166190116807,0.09315064780708185
25.173764,1.3389530707070418,0.09270222584580529
25.178356,1.3574304985165817,0.09201706688364575
25.182936,1.3796278488308584,0.09117547740598225
25.187524,1.4048900566305158,0.09013459383020654
25.19212,1.4300300797160275,0.08913588929187369
25.196708,1.4510836261543651,0.08842428896890964
25.201296,1.4722593573068483,0.08766656315593256
25.205892,1.4925356540116836,0.08693968492185151
25.21048,1.5150995584683975,0.08600923674710234
25.215084,1.527403129858548,0.08551887168104805
25.219664,1.5332884754010179,0.085236809896897
25.224272,1.5350432028476853,0.08498389580888606
25.22886,1.5334445619320527,0.08475387426852146
25.23346,1.5362989518060313,0.08418277668280345
25.238048,1.5329794852606207,0.08375358951589383
25.242648,1.525040661762825,0.08348461878796586
25.24724,1.5141591654937945,0.0833525136365419
25.25184,1.4968594433770832,0.08341771905506487
25.256424,1.4840127520499833,0.08314270034041217
25.26102,1.4684677573799396,0.08292877478274362
25.265612,1.4544331207282721,0.08252399513580141
25.270208,1.4368007462860133,0.08219830415222285
25.274804,1.4158150034814547,0.08188198562307492
25.279404,1.3938076415151024,0.08160346143230171
25.283996,1.3700014106534542,0.08136847891928181
25.288592,1.3464395492200971,0.0810702040292442
25.29318,1.3246765566820362,0.08072049397175184
25.297764,1.3036908138774774,0.08038000284392986
25.302352,1.2823385169304813,0.08012539727387094
25.306944,1.2647061424882227,0.07975555545875684
25.31154,1.2498942561030533,0.07928331118034491
25.316132,1.2385579227943293,0.07874812433936214
25.320724,1.2364603033903752,0.07794313117725754
25.325308,1.2319528915203972,0.07735242388157668
25.329892,1.2318204671745128,0.07669173398925772
25.334476,1.2346307155998633,0.07590311050129234
25.339068,1.2365415295775661,0.07511631536913514
25.343676,1.2430717005076537,0.0741907462830174
25.348264,1.2443715909146278,0.07358389989503619
25.352852,1.2472259807886064,0.07300127144427375
25.357452,1.252534304577237,0.07245438423537577
25.36204,1.2596414972611636,0.07187788884152864
25.366636,1.2703464277356815,0.07124713624952317
25.371216,1.2828502271054951,0.07060337188161699
25.375808,1.3021388064654262,0.06975913673431557
25.3804,1.3232262547206532,0.06889677678502512
25.385,1.3443137029758803,0.06806129103693004
25.389588,1.3636022823358116,0.06723858036263129
25.394192,1.3840346655716822,0.0663550824325667
25.398784,1.403445429645759,0.06551558400225548
25.40338,1.4254323123486339,0.06468236139109151
25.407976,1.44345490311848,0.06400234165983192
25.412572,1.453671094736415,0.06358568124641907
25.417164,1.4614333524396983,0.06312819154690452
25.421756,1.4713610331807139,0.06257809456706967
25.426356,1.4800227253316447,0.0621364504409391
25.430944,1.489706036644369,0.061645726583863754
25.435532,1.4986120982235913,0.06115208515239372
25.440116,1.5077625292311052,0.0605809251568889
25.444708,1.5162578952192622,0.05995209823226361
25.449304,1.5191122850932408,0.059442335682781226
25.453892,1.5219666749672194,0.058941554725998234
25.458472,1.5189357192987283,0.05861057190728827
25.463064,1.5111632219637063,0.058383624024283806
25.467652,1.4966059446385669,0.05832929708556597
25.472248,1.4802497984181315,0.05828321574257667
25.476835999999995,1.462094783302401,0.058243844967725
25.481424,1.446882440957905,0.05811613024988751
25.48602,1.4277058066803807,0.05810449338120674
25.4906,1.4095507915646497,0.05805145605185231
25.4952,1.3888196578201208,0.0579809065417584
25.499796,1.3701317623991793,0.05783556885248364
25.504384,1.3543865397494725,0.0576137728946199
25.508988,1.3430163046238595,0.05738722890425778
25.513576,1.32678234311757,0.057279405102145076
25.518172,1.3079722629824828,0.057161959884590594
25.522752,1.292759920637987,0.0570124061064816
25.527352,1.274604905522256,0.05693649508662149
25.531948,1.2591481937494684,0.05683677669288007
25.536552,1.245368166157831,0.056755906193948984
25.541132,1.2336313768897806,0.05659845213101374
25.545732,1.219973534012289,0.05648096963617343
25.550324,1.2101577983536804,0.05627870435996828
25.554916,1.2020187468762216,0.05610186684008427
25.559508,1.1937575106846172,0.05596025510154494
25.564104,1.1852519050647214,0.055891452303716796
25.5687,1.1785451683401211,0.05580297142354574
25.573296,1.1706946277395818,0.0557900594125642
25.577884,1.1647651407484838,0.05572894309536334
25.582476,1.1567924154337987,0.05575917872123221
25.587064,1.1516401781762031,0.05572335488977891
25.591652,1.1453441370426682,0.055770003282520714
25.59624,1.1373714117279832,0.05579065730878592
25.600832,1.1267003830703548,0.05583025495615142
25.605428,1.1147633658226412,0.05601642654705802
25.610008,1.106546271079665,0.05612894629024098
25.614604,1.0937098193843036,0.05631604187388811
25.619184,1.0787079446512098,0.05668765649069388
25.623768,1.0637060699181156,0.057036514163429815
25.628352,1.0481713148798106,0.05724389926600895
25.63294,1.0334138095750083,0.05748228772320689
25.637532,1.0158358162131167,0.05781588861575021
25.642124,0.9992794420130182,0.05808408496605863
25.646723999999995,0.983089621955357,0.05823306839036507
25.651328,0.9680436057736348,0.055404813632938386
25.655912,0.9541413934678518,0.05536137020828682
25.660516,0.9392175620002754,0.05536449876712319
25.665104,0.9231499266567597,0.052536244009696496
25.669708,0.9099027793703333,0.05257489855703537
25.674284,0.8986988704074937,0.05250576699510364
25.678884,0.8825090503498324,0.049709734921651656
25.683464,0.8665635997204624,0.04686706966868475
25.688064,0.8522948332722424,0.04405039878219446
25.692656,0.8382704362523138,0.04122636299367647
25.697251999999995,0.8274330814319114,0.03824417454254477
25.701836,0.8135308691261287,0.03531690376582595
25.706424,0.7975854184967586,0.03236948439092503
25.711012,0.7866258789622107,0.029226379048277552
25.715603999999995,0.7690037441516905,0.02614779833834976
25.720192,0.7470507632657051,0.0232156374278253
25.72478,0.725342151808011,0.020283476517300836
25.729368,0.7054324092456126,0.017251567297627352
25.733964,0.6828243633402706,0.014285062620188766
