Time,Force,Position
26.024612,0.9016946072010832,0.030624827020351332
26.029204,0.8765545841155715,0.028432036187816485
26.033796,0.8473280843828858,0.026307504191554303
26.038388,0.8164249004690498,0.024121468664703175
26.04298,0.7876090963274293,0.021942645919942237
26.04756,0.7596146833679391,0.01973121154182323
26.052152,0.7318307380198509,0.01756010715542069
26.05674,0.7150504736549387,0.015370775548414173
26.061328,0.6975031991882632,0.013181443941407656
26.065919999999995,0.6836860868580635,0.010988073850550797
26.070512,0.6789957433502268,0.008760233005053582
26.0751,0.677669007836429,0.01542220770293614
26.079692,0.6848139761256377,0.021683704380217092
26.08428,0.6978545295890548,0.02808325024473874
26.088876,0.7200218518748349,0.03456082074767454
26.093456,0.7602661460108284,0.042728169976259896
26.098052,0.798355256740828,0.05150952273884714
26.10264,0.8447938865596883,0.06039772108031512
26.10724,0.8880557138107612,0.0698475339000229
26.111828,0.9340260840365164,0.07942827170326623
26.116428,0.9933318844459544,0.08888490071018065
26.12102,1.0660952997532207,0.0979713220048944
26.125616,1.1465531691299915,0.10715015385341772
26.130208,1.2401020992621534,0.1161786890838355
26.134796,1.3368041697769524,0.1252954028083399
26.139384,1.4393135425687034,0.13437698982984092
26.14398,1.5459093920076286,0.14336031664938234
26.148568,1.6487411774931888,0.15238469565099683
26.153151999999995,1.7581031339088367,0.16108600582372395
26.15774,1.8659003512257408,0.16960539287167012
26.162336,1.9666140380438693,0.1781438213126428
26.16692,2.067684039372696,0.17764630844951287
26.171503999999995,2.1566845991079253,0.1776586491929429
26.176096,2.2406890081165933,0.17751033576344122
26.180684,2.3160995286081096,0.177464920675851
26.185279999999995,2.3790740533635906,0.17795734919893536
26.189868,2.4442037615250656,0.17769538348429428
26.194456,2.506502741997713,0.17721139690668858
26.199064,2.57275577477165,0.1759642293545578
26.203652,2.6349120912666733,0.17460758717563746
26.208248,2.6920722570351368,0.1733081073069367
26.212836,2.735408253763335,0.17257871979316158
26.217424,2.7772236528414176,0.17167096212923874
26.22202,2.8185400734311785,0.17063202348833903
26.226612,2.8615670800189785,0.16935483274141772
26.231208,2.9051608687288795,0.16795564948039046
26.235796,2.94540128907648,0.16669538189068972
26.240392,2.987152067442457,0.16533113946985786
26.24498,3.026903748933475,0.16424911770638
26.249572,3.06477851826368,0.16337289498190902
26.254159999999995,3.109360024318485,0.16234312047575716
26.25876,3.1524311723549134,0.16147638838288308
26.263348,3.2022090571159425,0.16043308480372653
26.267932,3.254318691077478,0.15935562393406255
26.27252,3.3117027470107554,0.15810821407875997
26.277116,3.373217421039834,0.1567644513094754
26.281704,3.4353871600882697,0.1554871542683101
26.286287999999995,3.4955136608131183,0.1543300119300772
26.290876,3.55359692321438,0.15332399112935974
26.295468,3.614745043101022,0.15221420458754784
26.30006,3.672295425197073,0.15121729861391206
26.304652,3.7358533375497385,0.14995969049165653
26.309248,3.7972016854160437,0.14875555891300585
26.313839999999995,3.848534069644078,0.14789818675582384
26.318432,3.8956136510621633,0.14717072334485484
26.32302,3.937296625794361,0.14661302769111526
26.327612,3.981878131849166,0.14589831717425686
26.332208,4.024494442845902,0.14519050414956122
26.336796,4.063591059317563,0.14449906231273266
26.341391999999995,4.099945230997653,0.14379702474042005
26.34598,4.129059785647931,0.14321816340331675
26.350568,4.1524892227354036,0.14272181976387682
26.355164,4.169700661954858,0.14229673526869635
26.359763999999995,4.188011763601625,0.1417642993762694
26.364356,4.20382478988511,0.14120756710932303
26.368948,4.213175448872287,0.14073662782179672
26.373544,4.218517674477807,0.14032083528370315
26.378132,4.2256146275299935,0.13979971908579014
26.382732,4.227803712752877,0.13934734280742547
26.387312,4.225207114860603,0.13895167542257889
26.391912,4.225386863576788,0.13841612349481724
26.3965,4.221680363625463,0.1379151530838044
26.4011,4.21846260253072,0.13736626520425219
26.405695999999995,4.214179080825556,0.13677362755948194
26.410288,4.207030929614674,0.1361794816600638
26.414884,4.200615886688667,0.13550923566960568
26.419476,4.190847475400359,0.13489227535322304
26.424076,4.179524564645047,0.13428589026162144
26.428668,4.16946764247982,0.1336244047209864
26.433272,4.161453958638179,0.1329000415249594
26.437868,4.153318090082394,0.13218306713644526
26.442456,4.148124894297843,0.1313805521492719
26.447044,4.145385632427944,0.13054471337944004
26.451632,4.137904828891515,0.1298258667753702
26.456212,4.127769863460769,0.12922772958089193
26.460808,4.123398058858349,0.1284830468328148
26.4654,4.117105200646487,0.1277813959277546
26.469996,4.104682627463864,0.12726057828851242
26.474584,4.096635041805334,0.12666172133620446
26.479184,4.0898975861855185,0.12607573987342777
26.483764,4.081527587833181,0.12558370887149933
26.488356,4.0753671539672025,0.12508857904166645
26.492952,4.068595796530498,0.12465737819882558
26.497532,4.067753926084889,0.12414372515605997
26.50212,4.069654500430853,0.12364821849161459
26.506716,4.068123663149,0.12327680133453725
26.511308,4.063938663972831,0.12302673018149436
26.515903999999995,4.061063794835374,0.12279282548290724
26.520484,4.054635329355955,0.12269736435923942
26.525088,4.0492726244869575,0.12264317751971505
26.529676,4.047796168285471,0.12256818255022649
26.534272,4.050205960751494,0.1224738308958407
26.53886,4.052371383789227,0.12240436784635131
26.543464,4.0577679904751145,0.12230763006731216
26.548051999999995,4.068028323541678,0.12209444318768739
26.552652,4.0786993521993065,0.12192049589916469
26.557244,4.092723749219235,0.1217076020692544
26.561836,4.111611872619839,0.12137642710495601
26.566416,4.125636269639768,0.12116050936131888
26.571012,4.1405601011073445,0.12093084644791256
26.575608,4.156749921165006,0.12065170227745092
26.5802,4.170774318184935,0.1204396699643105
26.584788,4.182344781290211,0.12024992094900046
26.589376,4.186475399386013,0.12020832710166424
26.593964,4.190073137176604,0.12014609403902023
26.598552,4.199678405223811,0.11993048534909641
26.603144,4.21259290018469,0.11960672748794551
26.607731999999995,4.2244857759837755,0.11931225310445308
26.612324,4.239810063410679,0.11889799000103227
26.616904,4.253169155779512,0.11845951014141952
26.621496,4.264563053090275,0.11799937060934165
26.62608,4.271948517019383,0.11757068355088006
26.630672,4.277779481481486,0.11714611259116849
26.635264,4.277192220095908,0.11683545758285512
26.639852,4.275050459243325,0.11653325483918474
26.64444,4.26853371086665,0.11629218947820917
26.649036,4.266103439137148,0.1159498591927407
26.653624,4.264816971283586,0.11557291528295695
26.658228,4.270681837562578,0.11502245683405662
26.662808,4.2758916388222135,0.11446504322642642
26.667411999999995,4.280979255367703,0.11392301736436364
26.672,4.291419337150453,0.11324260193304754
26.6766,4.302514483952558,0.11256761802984135
26.681187999999995,4.324236517963664,0.11168665132548043
26.685796,4.348779040031858,0.11076760067589202
26.690384,4.368335651005232,0.10996175491263906
26.694984,4.3831507203120745,0.10923709213074566
26.699576,4.3992317782090025,0.10847030293445468
26.704172,4.413147413068197,0.1077642971897249
26.708752,4.428617547394397,0.1070594957831548
26.713344,4.444864931454098,0.10635968027539236
26.717936,4.460990130799654,0.1056701479991515
26.722532,4.483655740707036,0.10488675958623535
26.72712,4.514249934480475,0.10394313209545403
26.731712,4.545254823844978,0.10304354342380576
26.7363,4.579857451000073,0.10210232278036976
26.7409,4.606898048431548,0.10129347436673479
26.745484,4.632550472558793,0.10054823435670097
26.75008,4.655793104220014,0.09989382393127871
26.754676,4.68059023534824,0.09924609837229327
26.759256,4.704243562600526,0.09863246632479573
26.763856,4.724832032367431,0.09809179046669693
26.768444,4.751305847676806,0.0974615319443984
26.773036,4.771894317443713,0.09694063534971797
26.777632,4.789540114439383,0.09647261192734262
26.78222,4.813071256977523,0.09591664761297049
26.786828,4.844941678972786,0.09526596905877882
26.791416,4.876567731539756,0.09464143902749846
26.796024,4.9098704682878775,0.0940101028759115
26.800612,4.943051020321853,0.09339432976719694
26.8052,4.977008822089331,0.09278880279298604
26.809795999999995,5.016363230542695,0.09214398984107551
26.814388,5.050853912615384,0.09158030955071954
26.818984,5.086776909440931,0.09104644126406211
26.823571999999995,5.123188645123061,0.09048492681131494
26.828168,5.160621999966983,0.08991838000689284
26.832752,5.203574146210939,0.08930219194989356
26.837347999999995,5.248813900206774,0.08864619586537026
26.841936,5.29237697002146,0.08800133803383445
26.846536,5.3351627901026415,0.08736202247642122
26.851132,5.38113565238335,0.08667580441556419
26.855724,5.42620908021641,0.08600153105500813
26.860304,5.467562585544734,0.08537724527278275
26.864899999999995,5.513902001967879,0.0847003162228096
26.869504,5.5622846567146125,0.08400096470898513
26.874104,5.608746257851903,0.08333774338573378
26.878692,5.653531174808045,0.08269545437105463
26.883288,5.699582080354271,0.08203151835906629
26.887875999999995,5.750208201404254,0.08129722755173073
26.892464,5.803121930206116,0.08053219462267015
26.897048,5.85705727816977,0.07976680408478873
26.901644,5.906739823323476,0.07902350310680718
26.906236,5.960386660410212,0.07824810225600974
26.910832,6.0068380219157635,0.07751657660462115
26.915427999999995,6.051368329811875,0.07680981730116221
26.920016,6.097042441583925,0.07609887893020857
26.924608,6.142061488336618,0.0753882491754117
26.929196,6.185037296765725,0.07470993697445924
26.933784,6.230955777966067,0.07401275481613587
26.93838,6.279161866918287,0.0732893975172285
26.942972,6.325569086975211,0.07258430092959983
26.94756,6.37491897980337,0.07186186926456722
26.952156,6.4242688726315285,0.07114620064737419
26.956744,6.464257866840774,0.07049090709180245
26.96134,6.5016707424212195,0.06984363999262515
26.965932,6.540227421877604,0.06918897127019188
26.970536,6.577762482172195,0.06855348873053935
26.975124,6.612477054409698,0.067938484320594
26.97972,6.641061911676439,0.06738996549014062
26.984307999999995,6.6685029650672405,0.0668650605961335
26.988908,6.69349008454339,0.06634005225504182
26.993492,6.719254453753042,0.06582239041829338
26.998092,6.74232051961975,0.06531867355913255
27.002688,6.768329258257693,0.06479430562344145
27.007272,6.795481800771576,0.06425811690256995
27.011852,6.816993367171278,0.06375270317520466
27.016448,6.836828249389833,0.06324918074209897
27.021036,6.857151870464969,0.06272358730837126
27.025632,6.8729783193018665,0.06221073890542651
27.03022,6.882919422596294,0.06173651548392167
27.034808,6.891838906728927,0.061272328953636726
27.039396,6.898304456946909,0.06080409715088562
27.043992,6.905136561307329,0.060319566523185625
27.048584,6.919530695391368,0.05980352222537652
27.053176,6.937522567265999,0.059284692576962915
27.05776,6.950650712759952,0.058794135409657014
27.062352,6.959403870729812,0.058304935986839314
27.066936,6.968401398127963,0.05780332939314607
27.071524,6.976621675792612,0.0572956051695974
27.076115999999995,6.981366400380817,0.0567876329271952
27.08072,6.983945701931288,0.0563001682136459
27.085308,6.985869938462402,0.055802922288847485
27.089916,6.982275383593484,0.05531614725083943
27.0945,6.981501316781654,0.05482275974787248
27.099088,6.9776623924844445,0.05435038908394945
27.103684,6.974722902634883,0.05387564726528074
27.108276,6.969740174461734,0.053414011131482336
27.11288,6.961570404089059,0.052978803888925376
27.117468,6.954955133183389,0.052553476786920225
27.122072,6.953081403944248,0.052112290511503095
27.126652,6.946588317752722,0.05167766013980003
27.131252,6.935764385485732,0.05128021452665604
27.135843999999995,6.920609607143276,0.050920727374253585
27.140444,6.897770614363054,0.05058817191196817
27.145032,6.869290645468654,0.05026939184083442
27.149619999999995,6.838889622964813,0.04995450514614849
27.154216,6.80824423103268,0.04964838356940028
27.158812,6.77698791552982,0.04937173184847461
27.1634,6.743688361703371,0.04910507343493607
27.167996,6.709245004000984,0.04884795315600187
27.172584,6.672758407975011,0.04860138191232812
27.177176,6.633984204197158,0.04837819810411236
27.181764,6.5956206960103705,0.04817745372390853
27.186356,6.5503502231193185,0.04800767471552872
27.190944,6.50303651190468,0.04784885409316061
27.19554,6.448815835985781,0.0477211212143367
27.200132,6.394228605924441,0.04761105879776272
27.20472,6.338619756701309,0.04750524879957681
27.209312,6.277369931364,0.047410791245096666
27.213892,6.205371034103543,0.04736247593241302
27.218484,6.1377471243671815,0.04731854050721643
27.223075999999995,6.071022649078467,0.04727415964209447
27.227664,6.003520924056248,0.04722138352425041
27.232272,5.939494752110478,0.047174694534970606
27.23686,5.875224210736415,0.047140335419383776
27.241468,5.809809865486414,0.047119868186391495
27.24606,5.741330662751031,0.04712004135071481
27.250648,5.671419145262791,0.04709492856604996
27.255244,5.605105365565141,0.04706842129078093
27.259832,5.537403412563261,0.04707151659081071
27.264428,5.470723078723174,0.047066116094610734
27.269008,5.39917901850241,0.047083843152585764
27.273603999999995,5.330699815767028,0.04707762829775705
27.278192,5.264141666641088,0.047062714681789804
27.282792,5.195662463905705,0.047055930094104886
27.287384,5.131802618122707,0.04704458884957297
27.291984,5.065244468996767,0.04703245405815625
27.296579999999995,4.9956214623854445,0.047045952766533956
27.301176,4.929718378278859,0.04705036791731374
27.305756,4.872521127771834,0.04701384914559008
27.310348,4.811481770045927,0.046993770679437184
27.314952,4.748765728138869,0.04696276729289004
27.319544,4.6840064479082235,0.04694864920285744
27.324136,4.616548864334635,0.04693362480417011
27.328736,4.547048042437459,0.04693926931714473
27.333324,4.480612078025663,0.04691544315674817
27.33792,4.41609716722331,0.04688297531620499
27.342508,4.348028660078992,0.04691982660748289
27.347096,4.271376504049261,0.047000269857384466
27.351688,4.19419146771432,0.04705279921925206
27.356276,4.113164324160496,0.04712745753611277
27.36086,4.0332809844826105,0.04718666128941304
27.365448,3.949677722299988,0.047250526388840614
27.37004,3.8622323528984834,0.04733809934164622
27.374632,3.774542614068687,0.047463255902868616
27.37922,3.689917732724272,0.04755035760023072
27.383824,3.6069695355610065,0.04765425031483487
27.388412,3.522344654216591,0.047758889955350034
27.393004,3.4348992848150863,0.04787600730555236
27.397596,3.345532861804141,0.04799685544528523
27.402192,3.254734124040336,0.04807665499053694
27.406787999999995,3.1654898857435354,0.048186083618411736
27.411388,3.0820088082750585,0.048251404585961756
27.41598,2.998527730806582,0.04831800919563157
27.420568,2.91463595774704,0.04832645438694657
27.425164,2.8297225655257052,0.04833671215097686
27.429752,2.7476296613614597,0.04832801097302512
27.434352,2.6650038768920035,0.04829181561667854
27.438932,2.58928505712681,0.04817677361896246
27.443532,2.5143434870951187,0.04806991571140083
27.448124,2.44324402428231,0.047924355269431736
27.452716,2.374965049526591,0.04775103777094741
27.457296,2.3045206517331396,0.04762924968253957
27.461891999999995,2.2312557658825978,0.04753634382475233
27.466488,2.1623217261075225,0.04731081541539249
27.471084,2.0858256566088267,0.04712886399867775
27.475672,2.0066312837671876,0.04695254993540032
27.480256,1.9311568334302853,0.046749565897963884
27.484844,1.8565818175410314,0.0465350627809341
27.489443999999995,1.7754663910899509,0.04635695262289332
27.494032,1.6948838449440813,0.043933440364598945
27.498628,1.613646233778855,0.04149157661459492
27.503216,1.5246022234617178,0.03908525959170045
27.507795999999995,1.436579832306374,0.03667871413721451
27.512391999999995,1.350889190351537,0.03431011201291811
27.51698,1.2622558756254652,0.03196185535830331
27.521556,1.1717015072899513,0.029633725720051723
27.526152,1.0867881150686165,0.02728914115150335
27.53074,1.0007309189713423,0.02498814454108275
27.535332,0.9182714606646591,0.022690885790437345
27.539924,0.8355676329296851,0.02041928202227822
27.544524,0.7546626740900065,0.018174814659520474
27.549116,0.6801759410980087,0.015891950410159426
27.553708,0.6159495411725743,0.013565815679969713
27.558308,0.5523782062664963,0.0113272266966451
27.562896,0.4933040435986577,0.00907463160691584
27.567495999999995,0.4380719881497018,0.0068006525076667376
27.572084,0.3905241471385113,0.004534640451798386
27.576684,0.3465740439179122,0.0022776794989080775
27.581271999999995,0.30994160099264156,0.0
27.585868,0.2779285150197559,0.0
27.590452,0.2483693629615225,0.0
27.595047999999995,0.22445118701746755,0.0
27.59964,0.20118807609276912,0.0
27.604232,0.1817670723869534,0.0
