Time,Force,Position
33.879412,1.1534675551935152,0.0460985746313958
33.884,1.1121377120503424,0.04376624644411389
33.888600000000004,1.0750165302684889,0.041380000390585266
33.893188,1.0353192298578375,0.03899375433705663
33.897780000000004,1.0006078405420082,0.036489026844571955
33.902368,0.9748127524371402,0.03391013565478888
33.906948,0.9511933270017436,0.0313287003261087
33.911536,0.9338801823316206,0.03347783588916041
33.916128,0.9240171223027105,0.036187024323905935
33.920728000000004,0.9157188013725438,0.03973813822373907
33.925324,0.9140933153500875,0.04366198680483295
33.929916,0.9238822059018729,0.04756587248514496
33.934508,0.9431644194184582,0.05153957106366284
33.939088,0.9754155089762891,0.05545837309168012
33.943692,1.016793367356483,0.059501124660018466
33.948276,1.0681974290066878,0.06364403052699574
33.95288,1.1268072058698142,0.06799473235308831
33.957468,1.1968313593071818,0.07228803000390448
33.962068,1.277781150462208,0.0766752240815491
33.966664,1.366836091277804,0.08380297846903663
33.971256000000004,1.4624416822869648,0.09101125915336863
33.975852,1.5692172804420756,0.09826182483641514
33.980448,1.6802559210388732,0.10559804110627019
33.985048,1.8002991457438884,0.11301282407404774
33.989644,1.9281590092325531,0.12040539705452097
33.99424,2.0579399263306595,0.12775575485126767
33.998836000000004,2.189797983569242,0.13503384046940636
34.003424,2.3145725103090484,0.1375912901769452
34.008008000000004,2.4320191371217876,0.13960102523017823
34.012596,2.549944263159371,0.1407041001079859
34.017196,2.661196554289244,0.14146068186585103
34.021784000000004,2.759646295540645,0.14239833439841554
34.02638,2.8496243329890385,0.14326966871903488
34.030972,2.9247124407867457,0.14434332793567992
34.035552,2.987608922276709,0.1455086587427315
34.040144,3.0393353966207233,0.14672204611488146
34.044732,3.0869210132371956,0.14763657168661568
34.049324,3.125135491603014,0.14856544305608313
34.05392,3.1520577781087367,0.14959866051482892
34.058508,3.1736954030109796,0.15045004793830646
34.063104,3.186328443805005,0.15128524410762323
34.067692,3.1868920430054324,0.15227490613538078
34.07228,3.1782066886693507,0.15331122605419095
34.076876,3.1612939999585543,0.15434654231118017
34.081468,3.1366868571782534,0.15538364263464596
34.086064,3.1062282706723714,0.15646125220637727
34.090644,3.0756033580037165,0.1574157552200304
34.095244,3.0460000644968543,0.1583206491153687
34.099832,3.0193394437612286,0.1590977415058575
34.104432,2.990635584702014,0.15995432240096996
34.10902,2.9680614406135617,0.16050919667880179
34.113620000000004,2.9526386306576637,0.16073864364174595
34.118216000000004,2.935949832111681,0.16105845745340658
34.122808,2.9250241943940223,0.1611485712574528
34.127404,2.919861717504688,0.16100034120134016
34.132,2.9196851517101754,0.16062437453237993
34.136592,2.919386401201517,0.16026893390871397
34.141184,2.9199870851405065,0.159879421756556
34.145772,2.9292936026790555,0.15912456603452438
34.150368,2.936679066608162,0.15845146274391841
34.154956,2.9456190300042744,0.1577421865800136
34.159548,2.9631426422857987,0.15667532526352637
34.164128,2.9845083617862067,0.15543304902961663
34.16872,3.005874081286614,0.1541664340640615
34.173312,3.024297128015786,0.15301947434970337
34.1779,3.0425979900308135,0.15188511505726543
34.1825,3.0529702681797835,0.15112687227952035
34.187076,3.061177123291021,0.15048744354182692
34.191672000000004,3.067218555364526,0.1499733648929907
34.196264,3.073137802723885,0.1494788484272556
34.200856,3.070884096788896,0.14940482507027572
34.205448000000004,3.063644479759085,0.1495715305843456
34.210036,3.0621680235575983,0.14948318644666106
34.214628,3.062246066823116,0.1493681358393302
34.219224000000004,3.059137067889107,0.14942169492201823
34.223824,3.052718842041427,0.14966002228545078
34.228416,3.043890823727722,0.15005321127659343
34.232996,3.0396821623664025,0.15026681474571324
34.237588,3.0299547096050503,0.15067164174898795
34.242176,3.021781756310702,0.15105203831571082
34.246776000000004,3.0163071063592968,0.15134138517262943
34.251356,3.007645414208366,0.1517786220185241
34.255944,3.0006604062385853,0.15216807553361456
34.260536,2.999316374382983,0.15235382612735535
34.265132,3.0045127530892066,0.15231352003139487
34.26972,3.014084119319524,0.152157271907569
34.274316,3.0291742769498744,0.1518107459214564
34.278916,3.047984357084961,0.15133458313138193
34.283512,3.069614925277139,0.15075947723362154
34.2881,3.0893244398598743,0.150249630268012
34.292696,3.116962538308666,0.1494093212913209
34.297276000000004,3.1492199937098433,0.14841165530808745
34.301868,3.1787791457680767,0.1475295060874505
34.306456000000004,3.2037189408739253,0.1468046990474262
34.311052000000004,3.230824159017507,0.1459729950280911
34.315644,3.257396496855877,0.14510263532903475
34.320232000000004,3.287278061607919,0.1440663003079688
34.324824,3.3145835077311636,0.14312757568269563
34.329412,3.3442207030549143,0.14216430164777225
34.334008000000004,3.3760233214163984,0.1411210725271885
34.338592,3.40704869004438,0.14010545963632212
34.343180000000004,3.437418993653005,0.1390884964592216
34.347776,3.4643137441851835,0.13816885045969254
34.352364,3.4921079291650106,0.1372703322450764
34.356952,3.5173259955160394,0.13645147806838503
34.361548,3.5388241393623314,0.13575146542902192
34.36614,3.561466087084563,0.13500895460290147
34.370744,3.586151273130381,0.13421596970899494
34.37534,3.6100592094426975,0.13344119203393195
34.379932000000004,3.638586502707399,0.13254832879198666
34.384524,3.660984081001339,0.1318744394111004
34.389116,3.6818271598282744,0.13122669177472385
34.3937,3.704591292264652,0.13053905265008897
34.3983,3.732219151081705,0.12971486859917222
34.402892,3.7635669324034953,0.12882415304418668
34.407484000000004,3.8004335051253184,0.12781715430239074
34.412064,3.838077327580644,0.12683036582433108
34.416656,3.87457734616003,0.12589589486055744
34.421256,3.9104222997200595,0.12496460248591204
34.425848,3.944224014956502,0.12411258316600343
34.430436,3.9779035454787994,0.12328170674063318
34.435032,4.011583076001096,0.12245352830580042
34.43962,4.048083094580482,0.12156819538567687
34.444208,4.079841571493337,0.12081221329753397
34.448796,4.111355678977901,0.12008977779775665
34.453388000000004,4.1441357750525505,0.11931737953620375
34.457972,4.179858543898434,0.11849852513565265
34.46256,4.20994033663014,0.11780616676671338
34.467152,4.238345445180696,0.11713562121089711
34.471732,4.267239292587834,0.11643587580842513
34.47632,4.299442366908645,0.11562751959359288
34.480912000000004,4.330746006781807,0.11484144564992362
34.4855,4.357430289702583,0.11414651990125327
34.490092000000004,4.380516834832769,0.11351740043085891
34.494684,4.396285719667626,0.11301896218430242
34.499284,4.410500105035479,0.11253709532373378
34.50388,4.421483306755178,0.11207936935435248
34.50846,4.433732497064962,0.11157707406273716
34.513056,4.441606699850651,0.11112633127238387
34.517644000000004,4.448170772597629,0.11065753647857202
34.522240000000004,4.45714463781063,0.11011333370337627
34.526828,4.46726230689957,0.109537107232574
34.531428,4.475581107093213,0.10899011039554848
34.53602,4.482589777248145,0.10842203869474473
34.540616,4.490087186259659,0.1078137852025838
34.5452,4.49488629192823,0.10724170782323221
34.549792000000004,4.492489922015618,0.10676813606672884
34.554392,4.493524963730823,0.10619343195790343
34.558984,4.4966032437696155,0.10557492874349543
34.563572,4.496983220465464,0.10499588697324684
34.568168,4.4977297513037495,0.10438822295431956
34.572756,4.494878544351445,0.1038204003985947
34.577348,4.492149522113285,0.10323771146722757
34.581936,4.488643250141622,0.10265238398404762
34.586536,4.489101270102989,0.10198817333189461
34.591124,4.485717182845473,0.10139060302358319
34.595724000000004,4.480045487836078,0.10085463686591842
34.600316,4.472574923931387,0.10034038978726956
34.6049,4.471522585874377,0.09973881438446158
34.609496,4.4731685511603105,0.0991079192545295
34.614072,4.470972409227361,0.09854385448552602
34.618652000000004,4.470697320903854,0.09795433240743862
34.623248000000004,4.471688221170432,0.097325678565619
34.627836,4.4733341864563645,0.09670582264822894
34.632424,4.472281848399355,0.09611499735372395
34.63702,4.4730283792376415,0.09550334177651076
34.641608,4.477372647866519,0.09485239718592879
34.646208,4.478163320153433,0.09430379842964015
34.650788,4.480508491907351,0.09376333590963234
34.655392,4.483508728680626,0.09323706385707782
34.659980000000004,4.484099172987876,0.09278136383256665
34.66458,4.490985658428661,0.09226393440055732
34.66916,4.501836435802475,0.09168297995716183
34.673764,4.520004873471618,0.09103282875667867
34.678356,4.538828376160119,0.09040295356182124
34.682952,4.562926300820358,0.0897395056681067
34.687544,4.593809005470717,0.08898410950720949
34.69214,4.6251024057121395,0.08826078764489556
34.696748,4.656151436525272,0.08757214192296874
34.70134,4.684912859586525,0.08694511502749996
34.705944,4.715106597400637,0.08633487158999432
34.71054,4.744278716052956,0.08575500362207159
34.715136,4.771818291972753,0.08524475039473134
34.719732,4.801933986521349,0.0847264387056172
34.72432,4.838101352775188,0.08418772677932779
34.728908000000004,4.879132445409702,0.08360064820883227
34.733496,4.919919168615926,0.08303932631417606
34.738084,4.966469052650473,0.08241489504061461
34.742672,5.012363871665665,0.0817928987875242
34.747264,5.0586252448232925,0.08115358616212937
34.75186,5.111671397971038,0.080448253615298
34.756448,5.16676078944237,0.07973467318327941
34.761048,5.224181930114209,0.07905141789058383
34.765636,5.275839909957725,0.07844200615387906
34.770232,5.326720640067738,0.0778385829727655
34.77482,5.376946305158394,0.07723724461668
34.779408000000004,5.425373101353754,0.07666118745568375
34.784012000000004,5.479396732214665,0.0760006940820914
34.7886,5.533009667484511,0.075325071186183
34.793188,5.588910210506235,0.07461490683609924
34.797784,5.646321111546335,0.0738695261185835
34.802372,5.701810958976996,0.07314865043684061
34.806968,5.761876021911411,0.07235956287420497
34.811556,5.82717136536894,0.0715266766582074
34.816152,5.890912209359464,0.07070562172642267
34.82074,5.9450477853027826,0.06996417307887166
34.825340000000004,6.001470968997979,0.069196271680513
34.829916000000004,6.055684588206814,0.06842262241467098
34.834516,6.107854969092063,0.06767826952882283
34.839104,6.159536611120729,0.06697115276704722
34.8437,6.206066015891799,0.06628242852996223
34.84828,6.247076629262836,0.0656273768421519
34.852876,6.281013951766836,0.0649919487153263
34.857464,6.316339447575066,0.06432949461007999
34.86206,6.35100987836394,0.06366072108229202
34.866648,6.3822047560763675,0.06300042683714943
34.871236,6.410579145731707,0.062358579037250304
34.875824,6.43462268931158,0.06177752590590041
34.880424,6.456989548710304,0.061199556683249313
34.885012,6.476658104766083,0.06063108955435325
34.889608,6.493261803336483,0.06009173292908897
34.894204,6.511009305782822,0.059539490288187794
34.898792,6.519806605201311,0.059051302411131004
34.903384,6.517854832696654,0.05863120896553192
34.907972,6.512183137687259,0.05822540648506899
34.912568,6.518159949048659,0.057756980486452295
34.91716,6.522215706800616,0.05730181667577138
34.92174,6.525904910410136,0.056868722768121854
34.926336,6.532658971505038,0.056415155571065474
34.93092,6.538757967580583,0.05595097268676231
34.935512,6.544368224799544,0.055513860205739105
34.940112,6.550877916466154,0.05507593883423043
34.9447,6.562784214818651,0.05463305375685821
34.949296000000004,6.572525090133415,0.05421270248536234
34.953884,6.580999976858096,0.05381312171722328
34.958484,6.590374298030423,0.05341345685009922
34.963064,6.600525868936253,0.05301974496138955
34.967664,6.605935898175551,0.05264122733646984
34.972252,6.609713384682329,0.052302200332669836
34.976852,6.614923185941964,0.051981700306289895
34.981444,6.622054040811043,0.05165418230818943
34.98604,6.625997853480593,0.05135400319205462
34.990632,6.637503695873764,0.05102983729478823
34.995228000000004,6.652074395752315,0.050683002077808494
34.999816,6.664479672593133,0.05035529099665677
35.004416,6.667035311958454,0.05007986625778883
35.009012,6.663705605781304,0.049831288689304275
35.013608,6.656533792385272,0.04959634603594101
35.018188,6.644498252608564,0.04938218561162402
35.022772,6.6293978553464745,0.04918701491045736
35.027364,6.609433731703709,0.049011070041743605
35.031956,6.586526935289709,0.04884736816297051
35.036552,6.555935924437943,0.04871039170872163
35.041144,6.524078924996093,0.04859246234418934
35.045732,6.491078121678303,0.04848679259678192
35.05032,6.454890276160986,0.048406229343281273
35.054912,6.4166591923200835,0.04833819795308413
35.059504000000004,6.3832918348598575,0.04824839604702309
35.064092,6.349025042951981,0.048158293328735925
35.068684,6.306418971586984,0.04808147893283147
35.073276,6.258826989127166,0.048030880156290714
35.077864,6.210457756933844,0.0479726229707743
35.08246,6.153627060569257,0.04793331565970784
35.087052,6.092709887557494,0.04792017408968653
35.091644,6.031137649526375,0.04789143772361832
35.096228,5.970831400085342,0.04783918747371969
35.100824,5.913223453987252,0.047786515976713864
35.105412,5.854593888727368,0.0477396751382517
35.110004,5.790978412372661,0.04772104200651703
35.114588,5.721599775189631,0.04772677859920236
35.119188,5.652221138006601,0.047734481455268894
35.123772,5.57977764333819,0.04776660723641106
35.128368,5.506556898936277,0.047792563778985976
35.132948,5.42896116701027,0.04781229670328551
35.137544,5.346746078131879,0.04784218994877093
35.142132000000004,5.259911632301102,0.047883030598903004
35.146728,5.168457829517941,0.04793536541304167
35.151316,5.066499324239924,0.04803253197582423
35.155904,4.959022027561874,0.04814389543629875
35.160488,4.856286272550356,0.04823861069483618
35.165084,4.751996018071834,0.0483171059977741
35.169676,4.641942602764988,0.04843068677890388
35.174264,4.533688056353437,0.048546648933361025
35.17886,4.42363464104659,0.04867204288120892
35.183448,4.308473129930777,0.0488600043655531
35.188044,4.189225142167787,0.049091589095073856
35.192632,4.063558928557118,0.04934920959907984
35.19722,3.9350722268893605,0.049633091835436675
35.201816,3.805031025754598,0.04991711715973993
35.206408,3.6830405932000376,0.05011161075031432
35.211016,3.5602729109119746,0.05030608287876309
35.215604,3.4408144555375846,0.05043401899048419
35.220192000000004,3.3223776193249877,0.050548911456658414
35.224788000000004,3.2049624022741843,0.05065067039556234
35.229384,3.09036767328047,0.05074650744041943
35.23398,2.977449628467906,0.05088048143865316
35.238556,2.8673520717124314,0.051009597192309894
35.243156,2.764938729394722,0.051073817299826935
35.247744000000004,2.6635470062388062,0.051134185936925126
35.252344,2.5602342294734486,0.05121268048786308
35.256928,2.457698702441593,0.05130941150263916
35.261524,2.361947955399856,0.051328279488832444
35.26612,2.2652977739104707,0.05135241060436252
35.270716,2.1726118843541133,0.05130526844874103
35.275308,2.0838902867307856,0.051216118804897
35.279904,1.9933698202121612,0.05115189938378844
35.2845,1.907468710645922,0.05106999340937164
35.289088,1.8215676010796829,0.05102215947834527
35.293676,1.7401636637516833,0.05097417440236366
35.298272000000004,1.6545510650623632,0.051065731324115377
35.30286,1.5717589544301327,0.04846757424116392
35.307448,1.4848803671507282,0.04591828798198709
35.312036,1.398779029604826,0.04338152895397825
35.316628,1.3153759954018671,0.04085726990113471
35.321224,1.2338940148083495,0.038328750319208044
35.325816,1.1564985108620067,0.03575111272909941
35.330412,1.0791030069156626,0.03316681644762437
35.335,0.9983982760556477,0.030623577804400788
35.339596,0.9223129021480172,0.028070097720097758
35.344184,0.849947450745124,0.025508363984509643
35.348772000000004,0.7813019218469678,0.022937444535495788
35.35338,0.7113904043587267,0.0204167052810022
35.357972000000004,0.6442993749275749,0.017888530015032298
35.362564,0.5787628449634273,0.015414739428518247
35.367156,0.5156802489139323,0.012935905343289339
35.37176,0.45979312844561976,0.010411952145573413
35.376348,0.40852536492969227,0.007879935490993143
35.380936,0.36661850003268026,0.005288168285659918
35.38554,0.328187188212114,0.0026812337459907786
35.390128000000004,0.29065531083919555,0.0
35.394724000000004,0.2537784984856336,0.0
35.399308,0.22703983448448942,0.0
35.403904000000004,0.20479834272158445,0.0
35.408488,0.18693183848277312,0.0
35.41308,0.16804371508216817,0.0
35.417664,0.1477674183773328,0.0
35.422256000000004,0.13211047862488232,0.0
35.42684,0.12066220023375157,0.0
35.431436,0.10884736770018383,0.0
35.436024,0.09706840060412011,0.0
35.440616,0.08606668324155856,0.0
35.445196,0.07788545393608623,0.0
35.449780000000004,0.07138090881176393,0.0
35.454368,0.06577579813508948,0.0
35.45896,0.06221392578200209,0.0
35.463552,0.058774238143060376,0.0
35.46814,0.05431293134232513,0.0
