Time,Force,Position
26.380143999999994,1.1290045264933988,0.04081277557662733
26.384731999999996,1.0908278237328626,0.03872536151740757
26.389328,1.0530176751147635,0.036611762326122704
26.39392,1.0137752117438057,0.03443720667038261
26.398527999999992,0.974899302515285,0.032229454351660795
26.40311599999999,0.9300600044787768,0.03007255366772749
26.407704000000003,0.8911943348819948,0.027867354032752274
26.412299999999995,0.8606781843740736,0.02564308148042505
26.416892,0.8450519635168393,0.029004652993201447
26.421496,0.8399406847861987,0.032600502413490065
26.42609199999999,0.8392146332113904,0.036866012606113496
26.430683999999992,0.8410749398971189,0.04163343306883855
26.435268,0.8448665398240275,0.04689595241786037
26.439868,0.8561082243921492,0.05228493336210055
26.444448,0.8754550586208399,0.05791757386094828
26.449048,0.905072465547833,0.06346376711264808
26.453647999999998,0.9449604451731284,0.06897436528677334
26.45824799999999,0.9919319552971994,0.07470337568161074
26.462832,1.045698485043127,0.08049270942525971
26.46742799999999,1.1144771291538873,0.08865307343137037
26.47203199999999,1.1928712809435935,0.09689593948084549
26.476628,1.282191070450958,0.10517162178069919
26.481216,1.378472205742953,0.11351847738085706
26.485803999999995,1.4864562284861087,0.12175024904931472
26.490396,1.6006243472803927,0.12999044817291905
26.49497999999999,1.7214992027992766,0.13828340738164538
26.499571999999997,1.847604338841274,0.14637699019055553
26.504168,1.9715338122138,0.15444069883278355
26.50876,2.08249440954508,0.156978538285257
26.51335199999999,2.186904356682795,0.1591605593754033
26.517940000000003,2.291792803045354,0.1604905995430277
26.522528,2.3921738375379347,0.16135437948518316
26.527128,2.4911564590945465,0.16173044083813432
26.531716,2.5820339309905886,0.1619901701229438
26.536312,2.6712244790737425,0.16189160827313206
26.5409,2.7492450200109455,0.16195257241887276
26.545488,2.819160411287579,0.1619824906400729
26.55008399999999,2.88583437928432,0.16172527110190388
26.554675999999997,2.951476488487528,0.16118183007639006
26.55926399999999,3.009912882477815,0.16063986152362525
26.56385199999999,3.0648634837599174,0.1599105426917854
26.568443999999992,3.1156732273144785,0.15901982935567818
26.57304,3.161198309265559,0.15801610296714708
26.577628,3.1939988846036855,0.15720636747460237
26.582227999999997,3.2167732566718015,0.15646967103429096
26.586808,3.2410918885751827,0.15545145334898788
26.591412,3.255350415391664,0.1547105041967788
26.596,3.2694426160453713,0.15390988651261236
26.600599999999996,3.287499108632107,0.15293458441009602
26.605184,3.3057999706471337,0.15193950269268391
26.609772,3.318337671833837,0.1511773704423523
26.614367999999992,3.333285165486564,0.15028831806507145
26.61895599999999,3.3469225291005786,0.14939633840505848
26.62355999999999,3.364157630505184,0.1483965072313257
26.62816,3.3738307021861695,0.14766547946228759
26.632748,3.3865686313525356,0.14679456786669046
26.63734399999999,3.4013497988424892,0.14583962979093845
26.64193199999999,3.4140877280088553,0.14498302093866644
26.646528,3.418364193003954,0.1444147477763867
26.65112,3.4216190388372585,0.14389244740473273
26.65571599999999,3.420909592737534,0.14352559932970502
26.660304000000004,3.4155807896854258,0.14330664048433917
26.6649,3.4102519866333174,0.14308768606558536
26.66948399999999,3.4078658563524438,0.1427577842259667
26.674075999999992,3.4113650716140405,0.14220908146129796
26.678667999999995,3.4057918991336407,0.14201977893199683
26.68326,3.403938649157978,0.1417113946927831
26.68784,3.400697225878085,0.1414925531522088
26.692435999999997,3.394513129826957,0.14138114808111396
26.697028,3.386041426023951,0.14138329464504365
26.701636,3.377814091649236,0.14135513705148464
26.706228000000003,3.3661553456467033,0.1414969121575333
26.710828,3.356295468539466,0.14158387679216172
26.71542,3.344636722536934,0.14171713994800716
26.72001199999999,3.334899030143842,0.1417915096967436
26.724603999999992,3.3278596410936943,0.14178673955245855
26.7292,3.32045369790111,0.14182698395002838
26.733804,3.3119039508325856,0.14192382479269244
26.738396,3.3129594718112685,0.1416971835103598
26.742996,3.3159360463993925,0.1414086108493988
26.747584,3.3225103587781084,0.14102373826830109
26.752188,3.330639170623829,0.14061955471143037
26.756768,3.3360696791266053,0.14028759063940138
26.761360000000003,3.3404785684675877,0.13999539183966994
26.765956,3.3415782308948985,0.13985591428759153
26.770552,3.349340488598182,0.1395020812190522
26.775128,3.3535050085108735,0.13924240246954286
26.779723999999995,3.3559928442424147,0.1390137507097742
26.784316,3.3622006024786937,0.13867284127347257
26.788908,3.368774914857409,0.13828217119956193
26.793491999999997,3.374982673093688,0.1379338009970719
26.798076,3.38053536631061,0.1375741122692836
26.802664,3.384044821203945,0.13729991180404919
26.807259999999992,3.38755427609728,0.13702625328209814
26.811856,3.3977263262665867,0.13653897847097732
26.816448,3.406099507540598,0.13610954124622582
26.821043999999997,3.413695439081107,0.13569023650026116
26.825624,3.42231298978341,0.1352296301701039
26.830207999999992,3.4254117490856806,0.13493116783267264
26.83479599999999,3.42544565090257,0.13474753966315267
26.839384000000003,3.4236806838241636,0.1346096073528537
26.84397599999999,3.4201168478504624,0.13451638566924498
26.848567999999997,3.420927999400854,0.13432606321326518
26.85315599999999,3.4244374542941887,0.13406978674380493
26.857752,3.4302345169394024,0.13371183025251546
26.86234,3.429491169022789,0.13353692570045333
26.866939999999992,3.4363098508297965,0.13314559401005352
26.87152,3.449424573770338,0.13261076098724803
26.876112,3.462661481425026,0.13207201238032357
26.880692000000003,3.4772085191184265,0.13155016589060683
26.885296000000004,3.4963749137642117,0.13091158976691553
26.889884,3.5188946767722977,0.1302190309605546
26.894484,3.541292255066238,0.12953992609228268
26.899072,3.565244332827182,0.12885454188461812
26.903668000000003,3.586131553102746,0.1282957672951816
26.908247999999997,3.60755165368352,0.1277681280348681
26.912844,3.632447307340741,0.12718870995155418
26.917444,3.661307252930989,0.12650739050255688
26.922040000000003,3.6923767630075988,0.12582812031477594
26.926628,3.726266761141298,0.12508107391511458
26.931223999999997,3.7639988664938793,0.12425027104906589
26.93581199999999,3.8071275785323477,0.12331745894003387
26.940400000000004,3.847557987227873,0.12245136344403884
26.944991999999992,3.8896650801045487,0.1215881010551561
26.94957999999999,3.9303839996769927,0.12080902832396337
26.954171999999996,3.9777655145254096,0.11986785274310216
26.95875999999999,4.019916748850713,0.11911272030519897
26.96336,4.058348060671279,0.1184568846648926
26.967948,4.095879938044197,0.11783121578375766
26.972543999999992,4.136843227044934,0.11710184893663492
26.977135999999994,4.179316874064046,0.1163254530877736
26.981723999999996,4.224200313549182,0.11548351258466479
26.986336,4.270349741624403,0.11459626307226776
26.990924,4.3141674204991185,0.11372124732533137
26.995528,4.356552784620975,0.1128499463533251
27.000116,4.394685345932882,0.1120221469304956
27.004708,4.426766235539546,0.11127340415651493
27.009300000000003,4.450385660974943,0.11068364755818912
27.01389199999999,4.472039891352269,0.11006836404033907
27.018488,4.492383991690884,0.10944046984510997
27.023068,4.508475289219549,0.10886441179449416
27.027668,4.522357022261856,0.10829153741706563
27.03226,4.538648547770185,0.10764401184415455
27.03686,4.549010586287416,0.10705184607232382
27.041447999999995,4.554220387547054,0.1065052164674603
27.046052,4.557753504625538,0.10597787201963631
27.050644,4.5609981108271045,0.10540625817585685
27.05523999999999,4.562932586989958,0.10481519535980961
27.059836,4.5648670631528105,0.10422745435100038
27.064432000000004,4.562059997649134,0.10372321436305372
27.06902399999999,4.549525479384103,0.10339610452291745
27.07362,4.53314885390019,0.10313466077261395
27.078212,4.5167722284162775,0.10287220214583374
27.082804000000003,4.503216090989454,0.10256566958126559
27.087388,4.488638334400838,0.1022788973907125
27.091984000000004,4.47880211947875,0.10191689881757499
27.096575999999992,4.473585261509049,0.10149079945514461
27.10116399999999,4.475930433262968,0.10094732712811066
27.105743999999994,4.481751158093332,0.10037695865726616
27.110336,4.488226947943053,0.09982045498805348
27.11491999999999,4.498833355888576,0.09925089369325218
27.119508000000003,4.506374906348717,0.09874259753441363
27.12409999999999,4.512650468218775,0.09828024451483931
27.128684,4.522401583165278,0.09778949703925094
27.13326,4.542413031178344,0.09716751384014358
27.137855999999992,4.567166020857941,0.0964959563201201
27.142436,4.595394563613984,0.09580586210909652
27.147023999999995,4.626854290018181,0.09511825397204893
27.15162,4.659335635584172,0.09442186893379247
27.156212000000004,4.6916947964360185,0.09373419505748452
27.16080399999999,4.738278582287455,0.09286910487083556
27.165384,4.7875606714818355,0.0919907153589745
27.169983999999992,4.836842760676216,0.09112209520856099
27.174564,4.884203796261155,0.09029019454553054
27.179163999999997,4.936184188798479,0.08942157185126247
27.18376,4.991107254107037,0.0885373411838444
27.18836,5.043209831358507,0.08769367352203275
27.192952,5.095556778038269,0.08685415799621475
27.19754799999999,5.145860486394443,0.08606030893563163
27.202155999999995,5.198085248360059,0.085257380291089
27.206752,5.246834457249228,0.08448346198678425
27.211347999999997,5.304045130309666,0.08363940680467943
27.215944,5.3604785536366,0.08280079371419842
27.220539999999996,5.4197324650206244,0.08195081643040536
27.22512799999999,5.473345400290469,0.08117340389988346
27.229716000000003,5.5201735555701985,0.08048547242157651
27.234304,5.566224461116424,0.07980700426624507
27.238892,5.608144748566849,0.0791361727232732
27.243484,5.648021797693684,0.07849865180738977
27.248079999999995,5.69378419236299,0.0778073385060961
27.252672,5.73132949228932,0.07718855634744255
27.25725599999999,5.763478185529764,0.07660095912864685
27.261835999999995,5.7958712481985,0.07600321902658594
27.266432,5.82838649558138,0.07540040566957973
27.27102,5.854361332402433,0.07484835780830762
27.275608,5.874695193109309,0.07434575309318014
27.28020399999999,5.897727357159128,0.07383297454510342
27.284792000000003,5.917694663723566,0.07336152434941699
27.289387999999995,5.936351840249291,0.07286928022464388
27.29398,5.948835160355627,0.07239822455798116
27.298568,5.960907784870898,0.07190143014887843
27.303164,5.96680655296678,0.07143045695974701
27.307759999999995,5.972827505776808,0.07095312703177649
27.312356,5.9735740366150925,0.07049140796262471
27.316944,5.972766067986374,0.0700205287132152
27.32153999999999,5.971425219052445,0.06952860910676502
27.32612799999999,5.966731001756215,0.06903513367305746
27.33073199999999,5.963835653355281,0.06853429714133571
27.335323999999996,5.959507990201489,0.06801587064543847
27.339924000000003,5.947862666752368,0.06753047309216718
27.34451599999999,5.936217343303247,0.06704470266489887
27.349112,5.928536311787154,0.06652376711523558
27.35370799999999,5.919056411375766,0.06600828877746685
27.358299999999996,5.912519183735613,0.06547247700427339
27.362900000000003,5.911090051904427,0.06488676269646748
27.367496,5.9105603545208885,0.06429833484529253
27.372083999999997,5.914483687926962,0.06365839903512968
27.37668,5.918651390761327,0.06300508680149805
27.381272000000003,5.920653670557959,0.06237513333128119
27.385856,5.929074176202271,0.06172385770484282
27.390448,5.939049181313588,0.06108535479796767
27.39504399999999,5.946858763387174,0.060472039735724153
27.399635999999997,5.952747291851315,0.05986923633751021
27.40423599999999,5.964276796429637,0.059245564181266856
27.408827999999996,5.979404038798549,0.058617403041525656
27.41341599999999,5.99710739979626,0.05799277658556229
27.418016,6.017020325280331,0.057393083966941524
27.42259599999999,6.038732119659699,0.056795204296526416
27.427192,6.06224278293436,0.056195705935303646
27.431775999999992,6.090006249018972,0.055605216159396516
27.43636399999999,6.114704857618202,0.05503924823135438
27.440971999999995,6.14030290066508,0.054478779937975536
27.445559999999997,6.169498681502549,0.05391903231998398
27.450163999999997,6.19473017040699,0.05338890940891232
27.45476,6.218451301293055,0.05289931072212355
27.459348,6.241028628303181,0.05242505201218459
27.463956000000003,6.254411382857166,0.05202414249273743
27.46854799999999,6.268571387144651,0.051631552744716695
27.473144,6.2891496172798185,0.051229673873454555
27.477724,6.306418620501312,0.05086644078784546
27.482324,6.321400015970928,0.05053215503926563
27.486912,6.337280845888193,0.050196830309879724
27.491508000000003,6.354593990558315,0.04988061661989786
27.496092,6.362956932200588,0.04961594600130304
27.500688000000004,6.369398820233419,0.04936036271377041
27.505284,6.3727758507808705,0.04912573842906967
27.509880000000003,6.37562000102311,0.04887201922484404
27.51447199999999,6.376176543513472,0.0486463520014274
27.519068,6.375467097413748,0.0484407148807262
27.523672,6.370016109647494,0.04824874838625601
27.52826799999999,6.365464556328887,0.048055268840662
27.532856,6.354538918611229,0.047915406570818
27.537451999999995,6.334785262579865,0.04781571741064501
27.542039999999997,6.312211118491412,0.04772158213522439
27.54662799999999,6.283340933269425,0.04762631963121413
27.551216000000004,6.249729206380907,0.04754390620893574
27.555816,6.216117479492389,0.0474607542679154
27.560404,6.1758431573279,0.04739671845459205
27.56499999999999,6.126085751830347,0.047359298331098754
27.569596,6.072730608542204,0.04732144421872575
27.574188,6.017698781072913,0.04727541843285324
27.578788,5.96074589999418,0.047234092298973906
27.583375999999998,5.9010947155725,0.04719225655390323
27.587972,5.840666281417322,0.04714287916040176
27.59256,5.773086513129588,0.047145469688544
27.597148,5.704607310394206,0.04714797664045797
27.60175999999999,5.6317972615833565,0.04719389043958188
27.60634799999999,5.55166955247718,0.047248621107744124
27.610944,5.470764593637502,0.04729227759867123
27.615531999999995,5.389981819511968,0.04732724331350237
27.620119999999996,5.307033622348703,0.04738728883609278
27.624723999999997,5.223552544880227,0.04742761914404011
27.62931199999999,5.142114705735338,0.04745480458763003
27.633908,5.061331931609805,0.04749899457731591
27.638496,4.983902525846572,0.0475608188690931
27.643092000000003,4.907616923959279,0.047606615735076255
27.647671999999996,4.826711965119601,0.047663350269691394
27.652272000000004,4.746462071299279,0.047742363975311085
27.65686,4.665434927745455,0.047815809541259746
27.66146,4.582608915296334,0.04789087221980451
27.666052,4.49684023007598,0.04798692693350433
27.670647999999996,4.409028306532038,0.048104589657672184
27.675244,4.321338567702242,0.048211743389557575
27.679836,4.237368751377183,0.04830835930662202
27.68442799999999,4.1567081619657955,0.04836135077654881
27.689016,4.0723276500496715,0.048428784346662174
27.693604,3.985248834790604,0.0485081743813637
27.698199999999996,3.90393318035986,0.048552402555633076
27.70278799999999,3.8184088645677967,0.04865870802331086
27.707376000000004,3.7291646262709963,0.04877839023203709
27.711955999999997,3.6422079957260745,0.0488513792405421
27.71655599999999,3.5599929068476825,0.04889459441663632
27.721147999999992,3.479043806559376,0.048893241975252126
27.725739999999995,3.399360694861154,0.04885168409316795
27.730336,3.3181230836959275,0.048783761373846726
27.73491599999999,3.2406053950354385,0.0486936901950398
27.739512,3.1678292480414805,0.04857535915210713
27.744104,3.0961969049234614,0.0484326525508894
27.748696,3.029061734043681,0.048287163278238336
27.753303999999996,2.9655243009544923,0.04813896383356423
27.75789199999999,2.9009652487035105,0.04800787208540328
27.762480000000004,2.834485142843087,0.04789698878018329
27.767076,2.765184548925574,0.04779492593678045
27.771663999999998,2.693063466950972,0.04770243965645142
27.776256,2.6179997122051355,0.047640521914996695
27.780852000000003,2.5470224341064727,0.04749499725026217
27.78544399999999,2.480131632654984,0.04727087258648771
27.790023999999995,2.4081327353945285,0.0471374769851011
27.794623999999992,2.3373998267241567,0.04695507738944286
27.79921199999999,2.2654009294637003,0.046848435277813606
27.803812,2.186739436927272,0.04680321372468445
27.808404000000003,2.0996164802195763,0.046830586167153986
27.812999999999995,2.0108609807793583,0.04703389839071667
27.817587999999997,1.914176897473084,0.044669096618520074
27.82218,1.8164711950050159,0.04232085213267667
27.826767999999998,1.7177438733751542,0.040004344981962814
27.831364,1.61685112870756,0.0377055235611373
27.835968,1.514037330430524,0.03540954671818574
27.840563999999997,1.410446282419986,0.03311505358452653
27.845144,1.3022358774570628,0.030822087499173978
27.849732,1.199011383588962,0.028499179648624973
27.854319999999998,1.103593288872772,0.026142772293820067
27.858912,1.0145934200042634,0.023788563080671815
27.863511999999997,0.9270258658886129,0.02143636653442018
27.868108,0.8470203414965822,0.019065058144918413
27.8727,0.7664038935338231,0.016763120288234786
27.87729199999999,0.6845214569809792,0.014510898045197285
27.881888,0.6114670387418399,0.012194291731165735
27.88647199999999,0.5420103582932924,0.009882449169849063
27.891068,0.48228113060609706,0.007490636385222367
27.89566,0.4326900512713196,0.005066052633376973
27.900240000000004,0.38939501307007707,0.002598693730046846
27.904852,0.34658871372541716,0.0
27.90944,0.31338768242796416,0.0
27.91402399999999,0.2837843889211026,0.0
27.91862,0.25189348766236264,0.0
27.923207999999995,0.22242235806051636,0.0
27.927804,0.19847001985870286,0.0
27.93239599999999,0.17709380028568725,0.0
27.93699999999999,0.16213580656035229,0.0
27.941588000000003,0.1487323123020217,0.0
27.94617999999999,0.13406282945360623,0.0
27.950764,0.11837172744339725,0.0
27.955364,0.1057454829185688,0.0
27.959951999999998,0.09197543451780117,0.0
27.96455199999999,0.08114805888826845,0.0
27.969136,0.0740406057634728,0.0
27.97373199999999,0.06476772960094443,0.0
27.978320000000004,0.056394287886063925,0.0
27.982911999999992,0.04585542313345071,0.0
27.987503999999998,0.0333955047713961,0.0
27.992091999999992,0.023135171704832723,0.0
27.99667999999999,0.02007031421945215,0.0
28.001268000000003,0.01610602228642373,0.0
28.005856,0.01394059924869101,0.0
28.010451999999997,0.015861652858132385,0.0
28.015044,0.023946583696093402,0.0
28.019648,0.032031514534054416,0.0
28.024244000000003,0.038195391762574055,0.0
