Time,Force,Position
31.59362,1.6107997913913306,0.04609911732082047
31.598204,1.572168251591101,0.04619637744420872
31.602796,1.533536711790872,0.046294144241577746
31.607384,1.498869463923671,0.04631571199723171
31.611971999999994,1.4704541157413769,0.04617448595512383
31.61656,1.4420387675590827,0.0460212588255186
31.62114,1.4200416452244693,0.045853799083255764
31.625732,1.4030304339846777,0.0455853769621729
31.630316,1.3848754188689467,0.04536540817712872
31.634904,1.3712175759914553,0.04515583051944256
31.639508,1.358336982847466,0.0449763685468732
31.644096,1.3458229438459135,0.04470003683951359
31.648684,1.3312656665207738,0.04447392500401519
31.653276,1.3158089547479863,0.044243015463366994
31.657864,1.3052159693558751,0.0439363834636802
31.66246,1.2992423409161489,0.04360937651234603
31.667048,1.2930243430481316,0.043343380025029174
31.671644,1.2854181718758835,0.043195276510462295
31.676224,1.2838195309602511,0.04289525518874398
31.68082,1.2820987053304733,0.04262773432091431
31.685412,1.2811551294341974,0.042393340654762544
31.690012,1.2753478271572454,0.04224473061546106
31.6946,1.2722388282232366,0.04210312523644203
31.699196,1.2668422215373496,0.04208718281461361
31.703772,1.2610790607090252,0.04216895245132091
31.708368,1.2542942807189075,0.04228103049111765
31.712956,1.2409690901669634,0.042439624267965395
31.717552,1.2304643876721084,0.0425636250109213
31.72214,1.2230245426626345,0.042600556645324965
31.726735999999995,1.2121091445767145,0.0425825485374035
31.731324,1.2004164967572923,0.04252573344092271
31.735912,1.1843930028624048,0.04267146445959907
31.740508,1.17053493200525,0.04270819875503536
31.745088,1.1567990458622408,0.04270074406716062
31.749683999999995,1.1394654219286404,0.04264904441301398
31.754268,1.121354548261538,0.04254845331276268
31.75886,1.0998903062321348,0.04232971462762466
31.763456,1.0833339320320368,0.04238611650724717
31.768044,1.0657220368532554,0.0431551411419912
31.772636,1.048120381306213,0.044944569323609296
31.777224,1.0373578868296551,0.04754342409653086
31.781811999999995,1.0327794884042254,0.05083519766464788
31.786404,1.0328306865629193,0.054563702511281745
31.790996,1.0395547196293242,0.05859612846450786
31.795587999999995,1.0534844679086504,0.0629289558021853
31.800168,1.0733539428108134,0.06771860139351382
31.804772,1.104149055430635,0.0726313313042168
31.80936,1.1372861568827017,0.07791868016826614
31.813959999999994,1.1784062232811925,0.08334500153011802
31.818535999999995,1.2275092546261073,0.08894878659913906
31.823136,1.2847174356315914,0.09467837999347489
31.827724,1.3543616123731104,0.1002498674982818
31.832316,1.4300677004516116,0.106005835735545
31.836896,1.5119578845812407,0.11193838504252442
31.841491999999995,1.5986439914577677,0.11818406749754733
31.846087999999995,1.6906147599377748,0.12457868565345687
31.850684,1.796209469478384,0.1309375679531723
31.855272,1.9068342315624434,0.13683608422941232
31.859863999999995,2.018192101931377,0.1421252936822861
31.864456,2.1321158512973697,0.14631379851093979
31.869052,2.239811363163606,0.1496055585590222
31.873639999999995,2.3406677139593577,0.1522576395496504
31.878236,2.4335410998086857,0.15453224424577205
31.882816,2.522029258502182,0.15636964515895918
31.887404,2.6064987441822822,0.15775726637863913
31.891988,2.6900144143343674,0.15853125992521797
31.896576,2.76579148896832,0.1591338035178378
31.901164,2.837549890588878,0.1593800121587967
31.905772,2.9014475119771577,0.1595237074148834
31.910364,2.9573621684190132,0.1595798692310459
31.914972,3.007092728809741,0.15950326551421706
31.91956,3.048229400683317,0.15949640259042105
31.924147999999995,3.082282542058116,0.15940422134053844
31.928743999999995,3.11092883711529,0.15918444570940046
31.933332,3.1364558936067164,0.15869826584624142
31.937923999999995,3.1595187765517516,0.1579840158927168
31.942519999999995,3.1696127834555408,0.1574975326156022
31.947116,3.1730780969002477,0.15709431185480235
31.951696,3.1747004000010306,0.15666440843703777
31.956295999999995,3.1747682036348093,0.15626736425139912
31.960871999999995,3.1705051611931228,0.1560978092472883
31.965472,3.1659977493231444,0.15596384960529142
31.970064,3.1656209555489685,0.15572007473376126
31.97466,3.1601360659658253,0.15573222221158745
31.97924,3.1505646997355083,0.15594968257967665
31.983836,3.13486361853443,0.15647467624900754
31.988428,3.119328863496125,0.15707911292720142
31.993024,3.1030610001729464,0.15779334232464123
31.997612,3.0900243204979216,0.1584205305445686
32.002204,3.081362628346991,0.15889770489803157
32.006784,3.074499805091356,0.15930455733674972
32.011371999999994,3.0675147971215746,0.15973097157384494
32.01596,3.060041050295211,0.16023472999526966
32.020551999999995,3.0534667379164953,0.1607035346490186
32.025144,3.04689242553778,0.1611671335955621
32.029728,3.0343105829024486,0.16191448952662563
32.03432,3.0272475316671503,0.1624506463610643
32.0389,3.0216167951847104,0.16297628115430224
32.043476,3.018029297025858,0.1633982984111233
32.048075999999995,3.0180395366575965,0.1636873268770023
32.052668,3.0243458174228706,0.16376020158547414
32.057252,3.0410346159688526,0.16343584788588286
32.061848,3.0597666528384226,0.16303380938128204
32.066436,3.085405654412256,0.16233582673768382
32.071031999999995,3.11578619765262,0.16145966097965217
32.07562,3.151685532293017,0.16037979388671655
32.080208,3.189750289971146,0.15919412603586922
32.084796,3.229980470687008,0.15790328747939847
32.0894,3.2662463594698417,0.1567853674751733
32.093984,3.301734998519173,0.15571313637620052
32.098583999999995,3.3360798336925654,0.1547198824451704
32.103176,3.3719350268843336,0.15362413959717933
32.107772,3.4139199350468634,0.15228661996104287
32.112352,3.4561492126376843,0.15093557827294748
32.116948,3.497356871066711,0.14963748081265688
32.121544,3.5455936789141473,0.14805638373335323
32.12614,3.5940748561898754,0.14649593053407892
32.130728,3.644843641217481,0.14485054014637622
32.135312,3.697533479854529,0.14319327189813716
32.139904,3.7459705156816283,0.1416789340395995
32.1445,3.792975236755869,0.14019823072890958
32.149088,3.8322957433923444,0.13901299582738302
32.15368,3.8660974586287873,0.13798729659484224
32.158268,3.8978559355416436,0.13705303278564188
32.162844,3.926016674663907,0.1362143224148535
32.16744,3.9520900340139553,0.13538373406231863
32.17202,3.9787743169347336,0.13450475938776435
32.176607999999995,4.005047904264445,0.13360704322663897
32.181216,4.035363826792703,0.13251152934049237
32.185804,4.063103630692163,0.1314691484298392
32.190392,4.08761225094347,0.1304589287478255
32.194987999999995,4.109833263442896,0.129542562484627
32.199576,4.126535484542291,0.12876929564417852
32.20418,4.140172848156304,0.12808955320581353
32.20878,4.154954015646258,0.12736877426815885
32.213372,4.163194772574385,0.1268070498022206
32.21796,4.167715606997774,0.1263346226211227
32.222564,4.169415953364075,0.12593231809840696
32.227144,4.165597508330342,0.12564919940471075
32.231744,4.161412509154173,0.12540358095747534
32.236332,4.1569831405497135,0.12518348314405817
32.240932,4.150877087764103,0.12498479791943047
32.245515999999995,4.147591523035581,0.12472143289955526
32.250108,4.142507089411764,0.124492616463163
32.254687999999994,4.138077720807304,0.12427132874991867
32.259284,4.132015809470321,0.1241425756660456
32.26388,4.122400301791376,0.1241528483535264
32.268476,4.109475567198758,0.12427707126590015
32.273064,4.0918534323882385,0.12458027737323155
32.277652,4.072720939559342,0.12496903822865228
32.282239999999994,4.060661737597483,0.12522812712726214
32.286836,4.048846905063915,0.12546413985635285
32.291424,4.03858657199735,0.1256901910615789
32.296015999999995,4.0348666494926135,0.12577020753613694
32.300612,4.030535803417149,0.12591187511423238
32.305195999999995,4.033400432922867,0.1259197689399639
32.309791999999995,4.039862800219176,0.1258626018125692
32.314372,4.047224601963132,0.12578999561302637
32.318952,4.059083575945327,0.12563776746592287
32.323547999999995,4.070820365213378,0.12549735328283576
32.328136,4.08280152390972,0.1253349391032806
32.332724,4.101445277882033,0.12503020332544795
32.33732,4.119966847140201,0.12474070739175748
32.341908,4.145395381102633,0.12429567821908093
32.346504,4.175032576426383,0.12374240953992384
32.351084,4.2125983556161914,0.12301818838738612
32.35568,4.253351177005525,0.12220673406133978
32.36026,4.298845540061389,0.12130209307144232
32.36486,4.350347433373869,0.120260300710189
32.369443999999994,4.410022279980698,0.11902899020769961
32.374028,4.467121007958728,0.117864460061016
32.378616,4.531781765660377,0.11658943323506045
32.383208,4.5997517502757,0.11525014967997595
32.387808,4.662569497633427,0.11399358189051848
32.392392,4.724443669094878,0.11268897906643136
32.396984,4.782964472194028,0.11144521320949491
32.401584,4.837110287769085,0.11026157419162044
32.406172,4.890601038324785,0.10907869406540892
32.410756,4.941637854965832,0.10792730799076612
32.415344,4.994185029625257,0.10671976998383896
32.419936,5.045177704817677,0.10552353519266512
32.424527999999995,5.091018142752501,0.10439926126501527
32.42912,5.1375916889722,0.10322790364429728
32.433716,5.1776248246300725,0.10217641313888702
32.438303999999995,5.212139168887911,0.10120948158443913
32.442888,5.2359824844881215,0.1003653673007767
32.447475999999995,5.255572997278383,0.09955288241622944
32.452064,5.272176695848783,0.09873824131831103
32.456655999999995,5.280685484390352,0.09800987552915003
32.461244,5.28109936290309,0.09737107046128068
32.465848,5.27726043860588,0.09675809365195133
32.470444,5.264304985118046,0.09624612366830453
32.475032,5.2457085555160345,0.09580410419926992
32.479624,5.2273564953423115,0.09534071406690761
32.484204,5.211947107939826,0.09483262569273007
32.4888,5.1948610363561905,0.09433037652373971
32.493379999999995,5.181861441419728,0.09375833928063097
32.49798,5.170005650359205,0.09316037689584349
32.502568,5.158272044012828,0.09255286974301995
32.507168,5.142818515161713,0.09198246941484207
32.511752,5.128020051329956,0.09142116979369778
32.516344,5.111955598908113,0.0908914213470099
32.520924,5.091560300410805,0.09044351193705052
32.52552,5.071287186627643,0.08998372103444856
32.530116,5.053712376187423,0.08950024936403533
32.534712,5.045009725509538,0.0889533418383183
32.5393,5.043624735126979,0.08834375769318607
32.543892,5.043549874783134,0.08775742312004182
32.548472,5.054634781953502,0.08706844134120101
32.553068,5.072548610562614,0.08635916530567446
32.557655999999994,5.095081796124112,0.08561185469311595
32.562248,5.1201911003144085,0.08485231683844728
32.566844,5.144034415914619,0.08411977507853266
32.571431999999994,5.168044057677604,0.08343523716879933
32.57602,5.190665526136357,0.08280125167914484
32.580608,5.214963678776261,0.08216764123211202
32.585187999999995,5.237873658111935,0.08158335459560437
32.5898,5.261316517752817,0.08102664079852141
32.594387999999995,5.287213311308353,0.08047703836318879
32.598983999999994,5.321327199606865,0.07987745133845704
32.603572,5.357239956800674,0.07927253343697659
32.60816,5.399570939842163,0.07862997508212333
32.612756,5.450729941197356,0.0778996913921553
32.617356,5.501278018981822,0.07721106678332705
32.621952,5.552725531213935,0.07652775156389911
32.62654,5.598287697903578,0.07591686516912158
32.631132,5.6388639534984,0.07537371855701855
32.63572,5.683160131597958,0.07481514206593066
32.64032,5.720549344993254,0.0743400726999818
32.644908,5.752664136416807,0.07388915352608358
32.649516,5.7835129392502775,0.07347206077274611
32.654108,5.816527165121478,0.07302917727358503
32.6587,5.856326170982797,0.07253150492857278
32.663287999999994,5.903398695690818,0.07195751210211067
32.66788,5.952514458722424,0.07137005189132963
32.67248,6.00138585232574,0.07080299569060988
32.677071999999995,6.049602180909698,0.07022992465828577
32.681672,6.0971634444743,0.06965300996520649
32.686268,6.141493524390747,0.06907411340359802
32.690856,6.181326432068957,0.06852343523687086
32.695448,6.224468566660837,0.06794015706360226
32.700044,6.263235713728624,0.06737328168363892
32.704628,6.293419211910996,0.06686598409490983
32.709216,6.327933556168836,0.06630963412068078
32.713812,6.361792835407319,0.06574857004215016
32.718404,6.398061907111825,0.06515023486740164
32.722992,6.436618586568209,0.06452445139980942
32.727592,6.467979790443412,0.06392254276458562
32.73218,6.501628602070492,0.06329340919998387
32.736771999999995,6.534377979249926,0.06266636044765984
32.741364,6.5652063028199175,0.06205190545309633
32.745952,6.594768637799824,0.06146585864183873
32.750544,6.625596961369815,0.06087048481161767
32.755136,6.647841636054393,0.060326291691801905
32.759736,6.668287441843675,0.05979119584009931
32.764332,6.689466355917832,0.05922105635521362
32.76892,6.711422519725489,0.058658830677494785
32.773516,6.731457629923707,0.05810819891089635
32.778108,6.7549682931983694,0.057562622393818014
32.7827,6.777457337311239,0.05702778500526629
32.78728,6.794960470329286,0.05653108230004996
32.791875999999995,6.811564168899686,0.0560368421463612
32.796456,6.834830462746058,0.055518546534110855
32.801056,6.854254649373546,0.055020675629699936
32.805648,6.875477704896331,0.05452631387160291
32.81024,6.894535337381382,0.05405414959539038
32.814832,6.911549731542847,0.053599127832175936
32.819427999999995,6.933183482656696,0.05313533268770298
32.824016,6.952773995446958,0.05268849040865092
32.828616,6.976739495761315,0.052246469028189246
32.833208,7.004791472722846,0.05178076210627705
32.837799999999994,7.031166765503226,0.05131170581637066
32.842388,7.049613474417548,0.05088619998655303
32.846976,7.067038564170077,0.05046553618664773
32.851564,7.077678873932489,0.050070038691162735
32.856156,7.0829667184576435,0.049718314479654004
32.860748,7.08621132465921,0.0493797416436324
32.865351999999994,7.087168323108897,0.04906450719668046
32.869944,7.082362160730262,0.0487692319736497
32.874524,7.073713891132743,0.048485458780149183
32.879116,7.058280841545107,0.04822491985141131
32.883708,7.041581803367386,0.04798154944451054
32.888292,7.015399681856603,0.04776245255258054
32.892888,6.9892175603458195,0.047541584074996014
32.897476,6.955229039683125,0.047350013000974064
32.902083999999995,6.920096715144494,0.047169522026503055
32.906672,6.880100664225184,0.047005424371279025
32.911272,6.835240886925198,0.04685767415533071
32.915868,6.785273013816243,0.046739489591648545
32.920455999999994,6.72606642680252,0.04663117775874036
32.925048,6.658931255922741,0.0465572982897499
32.929635999999995,6.586032924214637,0.04649877855049333
32.934236,6.512235158058885,0.04643790093913071
32.938816,6.436271968865399,0.04639473888753619
32.943411999999995,6.365050321338446,0.046337286885067774
32.948,6.295749727420933,0.04627224605200522
32.9526,6.223750830160477,0.0462042947778708
32.957196,6.15007524871887,0.04612868993069939
32.961788,6.072679744772526,0.04605654529907421
32.96638,5.99593930584554,0.04599770507696203
32.970972,5.9249620277468775,0.04591759990775859
32.975559999999994,5.851819326610483,0.04585819603717599
32.980156,5.783051612998181,0.045805842021358456
32.984744,5.710075238024559,0.04578702479666699
32.98934,5.634933440013205,0.04579194992810334
32.993928,5.55529446976361,0.04579504263698139
32.998515999999995,5.476432749247519,0.04580689529242572
33.003104,5.396427224855488,0.045833871010889884
33.007696,5.3176876890535425,0.04583855878199511
33.012291999999995,5.24446694465163,0.045835720276707556
33.01688,5.172267819411511,0.04582574837243963
33.021472,5.104443681695486,0.04582623904082929
33.02606,5.033432501779933,0.04586135922859422
33.030656,4.965241809921469,0.04589016011222024
33.035239999999995,4.89386407586348,0.045952711974639814
33.039828,4.818399865158316,0.04605273014030448
33.044439999999994,4.741014600843712,0.04616132079970315
33.049028,4.663751521243253,0.046260875586321845
33.053616,4.591762863614537,0.04637409040787109
33.058212,4.521040194575904,0.04645887277423943
33.0628,4.447252668051891,0.0465702117044296
33.067395999999995,4.3719106420608735,0.04666660068688569
33.071976,4.2939924974410575,0.04675121800815139
33.076572,4.21529710308774,0.04683233636320732
33.081152,4.139666566219803,0.04689035962217797
33.085756,4.067633767142457,0.046950232563830935
33.09034,3.99200323027452,0.04701423347526609
33.094928,3.9155954436730807,0.04706999136365849
33.099512,3.834323930690965,0.04716311079295017
33.104108,3.7493324952041123,0.047265851486237145
33.108695999999995,3.6616427563743166,0.04737039426839638
33.113292,3.5735423219534557,0.047419933791320805
33.117872,3.4886289297321205,0.047426214293754695
33.122456,3.4020388533296355,0.04741509365748782
33.127047999999995,3.3150380813360854,0.047348815825686605
33.131636,3.2313465362562073,0.04721637048735899
33.136216,3.148432240909831,0.04709642131657152
33.140812,3.0680940641922527,0.046985435272758044
33.145404,2.977862108550548,0.04686932898091739
33.149995999999994,2.880845372918726,0.04680725407583532
33.154592,2.780353084210458,0.04672659423740021
33.159184,2.6819040338257762,0.04659318970011201
33.163776,2.5784690723462735,0.0465359893816971
33.16836,2.476055730028564,0.04646191314493072
33.172948,2.374786191586794,0.04632458781899798
33.177544,2.270940534516226,0.0461412986392542
33.182132,2.172980222988128,0.0458416493456654
33.18672,2.0732210425647337,0.04550687715016305
33.191323999999994,1.9801244574173114,0.04509600812231162
33.195912,1.8870278722698894,0.0446487551894204
33.200516,1.7975290249130589,0.044176245232491716
33.205096,1.7058647545184955,0.04370156617341503
33.209688,1.613056680247993,0.04136046315560074
33.214268,1.5210258557109928,0.03903729995772877
33.218868,1.4286284770315554,0.03675060299137521
33.22346,1.335986728923827,0.0345007226412011
33.22806,1.245388219139685,0.032238798574776975
33.232651999999995,1.1529908404602478,0.029979023855093365
33.23724,1.0704872407049368,0.027713734522508193
33.241831999999995,0.9965672898350393,0.025416298028915596
33.246427999999995,0.927921760936883,0.023127140444299872
33.251016,0.8586653084679984,0.020891587683643693
33.2556,0.7988919393321751,0.018592043552965187
33.260188,0.7466805999199715,0.016298714313547784
33.264776,0.6923038374700352,0.014069300649521827
33.269364,0.6432014969918404,0.011886369423641269
33.273956,0.594387667390565,0.009808276756689254
33.278552,0.5480277717039419,0.007765920057260648
33.283144,0.5025673104649667,0.005772606336643145
33.287728,0.4616040214642308,0.003815515630963679
33.292316,0.42154016691114266,0.0018834389801719567
33.296912,0.38675073432979595,0.0
33.3015,0.35837952759612984,0.0
33.306087999999995,0.329886136148318,0.0
33.310683999999995,0.3079331552623326,0.0
33.315272,0.2879012279857885,0.0
33.31988,0.2694238001762487,0.0
33.324472,0.25556572931909394,0.0
33.32906,0.24579413510911327,0.0
