Time,Force,Position
25.711012,0.7866258789622107,0.029226379048277552
25.715603999999995,0.7690037441516905,0.02614779833834976
25.720192,0.7470507632657051,0.0232156374278253
25.72478,0.725342151808011,0.020283476517300836
25.729368,0.7054324092456126,0.017251567297627352
25.733964,0.6828243633402706,0.014285062620188766
25.738556,0.6630368054920179,0.011358742062445014
25.743132,0.6441486820914132,0.011358742062445016
25.747728,0.6242389395290147,0.008527358746181947
25.752304,0.5995876553000857,0.005695975429918879
25.756896,0.5754251099277392,0.005695975429918879
25.761484,0.5465210228888623,0.0028219798379817565
25.766072,0.5174947511358398,0.0
25.770668,0.4914552936026802,0.0
25.775255999999995,0.46550411896677696,0.0
25.779844,0.445937268361665,0.0
25.78444,0.43500844772233327,0.0
25.789031999999995,0.43361709149642974,0.0
25.793628,0.442251938540537,0.007877070172937527
25.798212,0.46541016109289435,0.015563334248981275
25.802816,0.4955297294298819,0.02334469807787879
25.8074,0.5419715421704153,0.03099801220894253
25.812,0.6002384270762552,0.03876168770858832
25.816583999999995,0.664078484462495,0.04679299311110116
25.821184,0.7356571373668669,0.05505827648628721
25.825776,0.8164067005422301,0.06344899140505464
25.830372,0.901052752016843,0.07199763040694095
25.834968,0.993193029581297,0.08061299292577953
25.839559999999995,1.0929497179497376,0.08933360596731349
25.84416,1.2051865435028413,0.09808080074313795
25.848752,1.3267164640410818,0.10680961662045306
25.85334,1.4566400451168116,0.11570240795896708
25.85794,1.5941800369965278,0.12462827844856841
25.862528,1.7385930917636179,0.13349312602421648
25.867116,1.8873811340548015,0.14239204927353702
25.8717,2.03072842821147,0.151343740678211
25.8763,2.16482676883163,0.16038643849930015
25.880892,2.289632014466653,0.16937484753506493
25.885468,2.4078424684594824,0.1703779790869849
25.890064,2.511773916372354,0.17171921251060793
25.894652,2.6078445840529465,0.17294702321109645
25.899244,2.691190745120586,0.1744160158927988
25.903836,2.7680642992601774,0.17566242878638066
25.90842,2.840264115367016,0.17656728779161687
25.913028,2.90815674758354,0.17711139263474257
25.917612,2.9690438925668063,0.17745856965155726
25.922224,3.0223146267460854,0.1777014237413065
25.926816,3.0673138851020214,0.17787756431312593
25.93142,3.107106525119994,0.17782277952382472
25.936016,3.1434914156953004,0.17749997463590267
25.940604,3.16890652710432,0.17724348921555524
25.9452,3.1914026279272556,0.17663625533847951
25.949792,3.2059938070692846,0.17594263738380464
25.954384,3.2149337704653953,0.17522759408633123
25.958964,3.2245185592491246,0.17425817295136303
25.963564,3.233281956850724,0.17321971419172644
25.968144,3.2407352244136094,0.17216251775754124
25.972743999999995,3.2461452536529083,0.17120344825190664
25.977328,3.2490233057120372,0.17041707114060342
25.98192,3.257786703313636,0.1693553110650147
25.9865,3.2703922081341186,0.16814613377729615
25.991095999999995,3.2860625704399813,0.16677958989818054
25.995692,3.300877639746823,0.16554510575363607
26.000288,3.314426720463581,0.16440049022979542
26.004876,3.3308404306860564,0.1632610759171622
26.009464,3.3484420862330984,0.16215537553996812
26.014052,3.372339782913676,0.1608526458833105
26.01864,3.399346478528262,0.15950516246826396
26.023228,3.423454642820242,0.15836682295254317
26.02782,3.44364265662782,0.15750386085440402
26.032416,3.470415222445854,0.15649887628900333
26.036992,3.4978869947318723,0.15561402154713833
26.041588,3.5279790270953164,0.15475479863674874
26.046176,3.5583595703356807,0.1539599408573065
26.050764,3.583920528643996,0.15344056454729665
26.055372,3.612712670600466,0.1528740400723552
26.059964,3.652420210642856,0.15201602780606907
26.064556,3.6980572376763434,0.15103891172500528
26.069144,3.745615318319273,0.14999013454908258
26.073736,3.79603802846792,0.1489786293202954
26.078328,3.8391872197698658,0.14825210392230148
26.08292,3.8831136608053143,0.1475308801133977
26.087524,3.9292055248784954,0.14673261690459133
26.09212,3.9791394961705593,0.14583241977487343
26.096716,4.024820664652675,0.14504192529333917
26.101303999999995,4.068047899220139,0.14429547930567116
26.105904,4.106655776835218,0.1436924614414133
26.110492,4.140355786620992,0.14316530691124707
26.115088,4.17760939274873,0.14248215455563862
26.11968,4.2119983693707495,0.14179575972170194
26.124268,4.2441777815064095,0.14114313567806908
26.128844,4.270549891365117,0.14058757659627502
26.13344,4.294956806165755,0.14002357125698878
26.138036,4.316376906746529,0.13947782213231463
26.142636,4.340817723364057,0.13876908453784084
26.147228,4.3586739879711285,0.13815892121396542
26.15182,4.364060355025277,0.13782269269974037
26.156407999999995,4.3620849203354695,0.137586939759699
26.160996,4.361209148072971,0.1372399744672944
26.165584,4.351294889885367,0.13701389734121208
26.170176,4.346566770772249,0.13654984786851196
26.174772,4.3408950757628535,0.13603794557560883
26.179364,4.3304376976383,0.1355743219348489
26.183959999999995,4.312496333055644,0.13521101938916516
26.18854,4.29312265372013,0.1348450073947279
26.193132,4.2750149629747,0.1344217427641962
26.197716,4.2557193269047024,0.1339706310233839
26.202304,4.239610733034233,0.13341203321171044
26.206912,4.220926020534964,0.1328926962081503
26.211504,4.206205599968724,0.13226240856633925
26.216092,4.185311322983095,0.13174042760717183
26.220684,4.167359718768701,0.13113681442492275
26.225276,4.149530299268451,0.13051835904513143
26.229868,4.134399183111146,0.12984499125550122
26.234464,4.116081024754314,0.12927081724975953
26.239068,4.1011162347597825,0.12864886168532658
26.243648,4.091303682022846,0.1279431645132343
26.248248,4.08177964016283,0.1272746919417977
26.252828,4.068335447818414,0.1267844300251576
26.257432,4.060698557750949,0.12621703181992863
26.262024,4.051184755522671,0.12576836631293473
26.266616,4.040815660295374,0.12540648634507076
26.2712,4.035476617611527,0.12497833238025435
26.275796,4.034556703900401,0.12454454762040057
26.280404,4.037767408285078,0.12406469611412643
26.285,4.044087111603764,0.12357354998526648
26.2896,4.054170878875815,0.1230767984640996
26.294192,4.0659754717776435,0.12263549019042473
26.29878,4.080766878899336,0.12219541465745051
26.303367999999995,4.096501861917304,0.1218157389652234
26.30796,4.120087385535811,0.12132108542214262
26.312552,4.144860854478886,0.12086164413695244
26.317143999999995,4.170045019013027,0.12043971908368882
26.321736,4.198582551909467,0.11999606741933658
26.326332,4.229329649292267,0.11955701674120676
26.330919999999995,4.2625306805897205,0.11910344820082543
26.335512,4.296386776906529,0.11866464349245667
26.340104,4.337560533518667,0.11810285949190265
26.344695999999995,4.383475831797337,0.11744599788805239
26.34928,4.429146760647713,0.11682320417237425
26.353868,4.478537612002827,0.11614518455570577
26.358476,4.530382397272594,0.11545373560948882
26.363056,4.580428313647065,0.11480704585010068
26.367644,4.6318624033257665,0.11411087796734018
26.372232,4.682519243270966,0.1134352298499012
26.37682,4.730844334015659,0.11278304922081976
26.381432,4.778758729169286,0.1121159344157314
26.386023999999995,4.824585744550698,0.11144163270554183
26.390628,4.868325380159894,0.1107620086868707
26.395208,4.908178767101581,0.1100935445337297
26.399808,4.943534981805028,0.10949237706031688
26.4044,4.977825435898053,0.10886033099893665
26.408999999999995,5.011460824971722,0.10822304124522539
26.413588,5.035979684854766,0.10771031953721857
26.418192,5.058533349679741,0.1071732641024499
26.42278,5.081165057770233,0.10657815307891437
26.427372,5.100932136355009,0.105968857734824
26.431964,5.117834585434067,0.10535477384201694
26.43656,5.136491761959791,0.10467651815107368
26.441156,5.154083177875095,0.10396575694111833
26.445751999999995,5.162924618742211,0.10333320992206002
26.45034,5.169267984246048,0.10265775412199066
26.454936,5.1709919927975,0.10203719864750035
26.459524,5.16911826355836,0.10145574057321745
26.464108,5.161970112347479,0.10092054596288905
26.468696,5.150202604184212,0.10044015507501004
26.473292,5.134060108496851,0.09999594856207145
26.477888,5.117795428095345,0.09956030959134325
26.482468,5.099609694084398,0.09915038816479914
26.48706,5.084122263416393,0.09871105440134453
26.49164,5.069123571604972,0.09823132169271236
26.496236,5.054657760098763,0.09777058496471783
26.500828,5.042235186916139,0.09727354870227337
26.505416,5.037619012885427,0.0966572007426934
26.510012,5.0345573383217195,0.09604276537504725
26.514596,5.027042632968402,0.0955288986571223
26.519188,5.022881295977384,0.09500012082860634
26.52378,5.019375024005721,0.09448484531915155
26.528368,5.009739037063298,0.0940743629038446
26.532964,5.0006359304260855,0.09368362078513211
26.53756,5.001426602712999,0.09320737834812245
26.542152,5.006103523667424,0.09274267388272887
26.546731999999995,5.020019158526618,0.09218870653381345
26.551332,5.038676335052344,0.0915837368731481
26.55592,5.065306236892754,0.09092640939354119
26.560512,5.099253799028492,0.09020573627906901
26.5651,5.137331979260034,0.08947815897925043
26.569696,5.1793744514246045,0.08870864562855271
26.574276,5.227835149436855,0.08789404269575118
26.578868,5.2761736627349585,0.08709706586866856
26.58346,5.330563847738308,0.08628899293946322
26.588052,5.386630716922805,0.08548771882945584
26.592644,5.443474835840806,0.08470581077827412
26.597236,5.499952400616368,0.08396757455187026
26.601828,5.558351019001374,0.08322146455342375
26.606424,5.622634982928847,0.0824152788706816
26.611012,5.683854089370941,0.08165631386845225
26.615608,5.74380720722295,0.08093814050963899
26.6202,5.806580813132049,0.08019649013892477
26.624792,5.874218145421823,0.07942339888042316
26.629387999999995,5.939034989654509,0.07869191281928455
26.633972,6.002297334420189,0.07797082836489413
26.638564,6.061306876375922,0.0772770204952218
26.643156,6.119294799169862,0.07660915980896091
26.647744,6.174828788049149,0.07595442121784853
26.652348,6.228686092747286,0.0753143901389997
26.656936,6.282010517140213,0.07466406592411234
26.661528,6.32969396541896,0.0740609342990106
26.666124,6.371614252869384,0.07351066941307666
26.670712,6.415944332785831,0.07292654300679394
26.675304,6.455899425178186,0.07236485288816744
26.679884,6.48968066115115,0.07182124359952909
26.68448,6.51998634404767,0.07128940220560068
26.689067999999995,6.54885971219133,0.07074983059883135
26.693668,6.5742575272585455,0.07022071951096588
26.698256,6.598100842858755,0.06969274008765595
26.702864,6.628073873429726,0.06911187675134488
26.707456,6.653016851457248,0.06852648395625704
26.712052,6.678981448646563,0.06793604667006849
26.716636,6.693664093607522,0.06740805177040511
26.721224,6.703194501310885,0.0668827147769086
26.725812,6.705285064004773,0.0663902947408405
26.730412,6.705332388375075,0.06591739573882019
26.735004,6.7037030285642265,0.0654446760871192
26.739604,6.698353746248639,0.06498878390108533
26.744184,6.691205595037758,0.06453897164426138
26.748772,6.684179628541021,0.06408382908159709
26.753364,6.681650834282526,0.06361855385218791
26.757956,6.6783447902905255,0.06314714797837705
26.762552,6.669930650489558,0.06271999620426774
26.76714,6.655875534574414,0.06231589495095388
26.771728,6.646806329754091,0.06187355074977061
26.776316,6.637614940219623,0.06143659387019459
26.780908,6.623682009018624,0.061020279363067705
26.785496,6.610770696979418,0.06059451210358014
26.790084,6.596593396350126,0.06019124173641769
26.79468,6.575098435425507,0.059807190594899716
26.799268,6.559899515634423,0.059410174775769944
26.80386,6.539303989157452,0.05902035490525372
26.808456,6.526392677118246,0.058590404466247366
26.813044,6.520799025374369,0.058142836088773964
26.81764,6.522767403354112,0.057663075496105
26.822236,6.525635215781501,0.05718205298953594
26.82684,6.525682540151804,0.056709998515123185
26.83142,6.525729864522105,0.05623587699652034
26.83602,6.525655004178258,0.05576892425975852
26.8406,6.523536905510827,0.05531773912276305
26.8452,6.515900015443364,0.05487914245986156
26.849792,6.5112057981471345,0.05442425860394589
26.854384,6.508310449746201,0.053966533482517044
26.85898,6.5118333271929485,0.05349474477979595
26.863576,6.516788519392554,0.0530445579851682
26.868184,6.523664765201601,0.0525874287970339
26.872776,6.534016564087094,0.05213231982830396
26.877368,6.542980189668355,0.051704239771966136
26.881964,6.545036850545355,0.051310217363640505
26.886555999999995,6.550446879784653,0.05092673828121101
26.891148,6.5538136707003645,0.05055901729937161
26.895736,6.562821437730256,0.05017563136825911
26.900324,6.565699489789385,0.049833067609413445
26.904912,6.562570011591899,0.04952617014438168
26.909508,6.555231872033093,0.049252743664279494
26.9141,6.546872113312494,0.04898550956165639
26.918692,6.541865722954193,0.0487295433056907
26.923288,6.536614963167602,0.048485115277982584
26.927876,6.528299345895631,0.04825955512238975
26.932468,6.516674501709988,0.04806547605529117
26.937056,6.507747960867288,0.047869985753724434
26.941648,6.496655996986856,0.04769396094133416
26.946244,6.481721925887539,0.047530045232228715
26.950832,6.4637229973028445,0.04738567892140341
26.95542,6.437384789261027,0.047252839822178073
26.960008,6.403773062372509,0.04717185737726751
26.9646,6.367995912446258,0.047110184813097374
26.969196,6.332218762520007,0.0470475922926644
26.973776,6.29938428536499,0.04697152191907192
26.978368,6.262096777420363,0.04694296260139308
26.98296,6.220600608114417,0.04694875331909086
26.98756,6.170687116085831,0.04702341605036233
26.992148,6.123716296828478,0.04708474642971393
26.996752,6.074047174228184,0.04714668862381884
27.001344,6.0224569980184475,0.047216901520361225
27.005932,5.966902529875683,0.0473086168495879
27.010524,5.907750323942327,0.047399134373176735
27.01512,5.846677064399531,0.04749693140647911
27.019724,5.783682751247292,0.047604074633354275
27.02432,5.722076611399283,0.047682600235675436
27.028916,5.654585126008805,0.047791898551829505
27.033515999999995,5.5841509678470915,0.04791728083197069
27.038108,5.514616244133027,0.048044093111477795
27.042696,5.439562729018928,0.048181531970128616
27.047284,5.362099421438805,0.048366155930855526
27.051867999999995,5.286268656591206,0.04850755113111209
27.05646,5.206962338667159,0.04864442124805396
27.061048,5.122914479076583,0.04880069979549858
27.065643999999995,5.033347828085973,0.04897186842117546
27.070232,4.941571612609002,0.049117956832121
27.074832,4.851427939864554,0.0492118697071043
27.079419999999995,4.765737297909718,0.04924772686320108
27.084016,4.675427299002496,0.04929293586480281
27.088604,4.584872930666982,0.04936224752785076
27.093192,4.492519693436172,0.04943812121597712
27.097788,4.399389206471861,0.04950896793059058
27.102376,4.304337665898108,0.049590337259721985
27.106976,4.208386690876708,0.0496743990122929
27.111572,4.1116584661218045,0.04975368607580769
27.11616,4.012642633615023,0.049879980520286464
27.12076,3.9150149744124723,0.04996521441498128
27.125352,3.815955000457063,0.05001693301561949
27.129947999999995,3.7170172112158,0.0500552602741594
27.134528,3.6192232258504755,0.05007149542110867
27.139124,3.5323004971224425,0.04998710831535279
27.143712,3.4450112142519727,0.04993562396709863
27.148316,3.3605424194385924,0.04986693379449477
27.152904,3.2714542676728264,0.04982184330471732
27.157499999999995,3.1917270145259766,0.049728091043616834
27.162092,3.1102008924838316,0.04963257493028935
27.166688,3.0245882937945114,0.04958802181794792
27.171264,2.934356338152807,0.049546848240253856
27.17586,2.846167620834689,0.0494631482032461
27.180456,2.7574460232113607,0.04933231462100132
27.185051999999995,2.6697460447498256,0.049185076257640896
27.18964,2.5829455007359385,0.04903247205549834
27.194228,2.4941017183984644,0.04892587512671166
27.198816,2.4051357513468448,0.048844404168586604
27.203403999999995,2.316047599581079,0.048791772011553304
27.207996,2.227326001957751,0.04868102440070812
27.212588,2.1364389812966906,0.04863386870544498
27.217179999999995,2.046984275388488,0.04865429124212884
27.221768,1.9545868967090505,0.04874340696205117
27.226364,1.8638662022107633,0.04885837198446468
27.230952,1.76071975160818,0.046439082242210654
27.235544,1.6605159737768314,0.044003671511899295
27.24014,1.560190011231337,0.041583287188272436
27.24472,1.4652606553717302,0.03912708732959321
27.249308,1.3628914545026487,0.03670515622020363
27.253903999999995,1.2668182947671025,0.03428181624942687
27.258492,1.1735656230886453,0.031838114189184974
27.263084,1.0848101236484275,0.029411840819555862
27.267679999999995,0.994666450903979,0.02702614201199375
27.272272,0.9090199503977701,0.024663062842982815
27.27686,0.829136610719885,0.02230175853260448
27.28146,0.7528510088325915,0.01994241332028513
27.286048,0.6813069486118285,0.017534055633747724
27.290648,0.6163032989528919,0.015097402413398006
27.29524,0.5570628101222795,0.012627870328173054
27.299828,0.5001540704921734,0.010185545182968651
27.304412,0.44647651451022186,0.007703157457880614
27.309007999999995,0.3935762082617725,0.00517743800211571
27.313596,0.34541744367985366,0.002595806876962557
27.318192,0.29907923018373195,0.0
27.32278,0.2636347325830287,0.0
27.32738,0.22821191717282685,0.0
27.331968,0.19548740510556847,0.0
27.336552,0.1686265563902786,0.0
27.341144,0.14806174880852369,0.0
27.345736,0.1272742539889787,0.0
27.350332,0.11108443393131741,0.0
27.354916,0.09644911334066045,0.0
27.359512,0.08835420331182979,0.0
27.3641,0.07835992186405906,0.0
27.368696,0.06709965182620348,0.0
27.373284,0.05673881623599574,0.0
27.37788,0.04817684954108371,0.0
27.382463999999995,0.037693829236730314,0.0
27.387056,0.026966439504085563,0.0
27.391663999999995,0.018282288095027858,0.0
27.396256,0.012785178885496393,0.0
27.400848,0.010230742447199827,0.0
27.405444,0.008453555742405444,0.0
27.410032,0.008453555742405444,0.0
27.414624,0.006798553751756729,0.0
