Time,Force,Position
27.93699999999999,0.16213580656035229,0.0
27.941588000000003,0.1487323123020217,0.0
27.94617999999999,0.13406282945360623,0.0
27.950764,0.11837172744339725,0.0
27.955364,0.1057454829185688,0.0
27.959951999999998,0.09197543451780117,0.0
27.96455199999999,0.08114805888826845,0.0
27.969136,0.0740406057634728,0.0
27.97373199999999,0.06476772960094443,0.0
27.978320000000004,0.056394287886063925,0.0
27.982911999999992,0.04585542313345071,0.0
27.987503999999998,0.0333955047713961,0.0
27.992091999999992,0.023135171704832723,0.0
27.99667999999999,0.02007031421945215,0.0
28.001268000000003,0.01610602228642373,0.0
28.005856,0.01394059924869101,0.0
28.010451999999997,0.015861652858132385,0.0
28.015044,0.023946583696093402,0.0
28.019648,0.032031514534054416,0.0
28.024244000000003,0.038195391762574055,0.0
28.028832,0.04538088815288722,0.0
28.033432,0.05256638454320039,0.0
28.038012,0.0588524464858657,0.0
28.04260399999999,0.06423907398088316,0.0
28.0472,0.06872626702825277,0.0
28.051787999999995,0.07435726395156157,0.0
28.056384,0.07704558810363547,0.0
28.060979999999997,0.07871229309391586,0.0
28.065583999999998,0.07871229309391586,0.0
28.07018,0.07871229309391588,0.0
28.074768,0.07871229309391588,0.0
28.079372,0.07871229309391588,0.0
28.083964,0.07843376140786602,0.0
28.088559999999998,0.0744353072170791,0.0
28.093144,0.07121410275979435,0.0
28.097744,0.06709346385486177,0.0
28.102336,0.06285064023578349,0.0
28.106936,0.05476570939782247,0.0
28.111516,0.04668077855986146,0.0
28.116104,0.04051690133134182,0.0
28.120696,0.03333140494102866,0.0
28.125291999999995,0.026145908550715493,0.0
28.129888,0.019859846608050177,0.0
28.134483999999997,0.014473219113032712,0.0
28.13908,0.0099860260656631,0.0
28.14368,0.004355029142354294,0.0
28.148276000000003,0.0016667049902803859,0.0
28.152871999999995,0.005929747431967083,0.0
28.157452,0.013624461942340498,0.0
28.162044,0.030646173254740075,0.0
28.16663599999999,0.05429657802622226,0.0
28.171227999999992,0.08547511070443489,0.0
28.175824,0.1231601521275845,0.0
28.180416,0.16085543318247283,0.0
28.185011999999997,0.20813232009941746,0.008763149840290026
28.18959999999999,0.26605657348884004,0.017729510247569566
28.1942,0.3387146699979147,0.026343511327650997
28.198779999999992,0.4214872526742565,0.035083059615365175
28.203371999999995,0.5238574048509266,0.04324258324132384
28.207968,0.6439040729184837,0.05111179459886688
28.212556,0.780194942124069,0.05877436600514162
28.21715199999999,0.9251679827440628,0.06658369082075505
28.221748,1.0833203670167042,0.07436563831920515
28.226336,1.255551529389641,0.08209643052014659
28.230932000000003,1.4350766898727563,0.09003029245133293
28.23552,1.622628956750923,0.09806204538075464
28.240115999999997,1.8199630574708092,0.10605852543079874
28.24470399999999,2.019839114561735,0.11401781553064003
28.2493,2.227932266395637,0.1218556831449592
28.25388,2.427197399915835,0.12985518365359588
28.25848,2.6271175984553903,0.13780328577906473
28.263068,2.825527438976569,0.14576091392193902
28.267667999999997,3.022549106193517,0.1537489174816961
28.27225599999999,3.2266779660943925,0.16164166389376122
28.276847999999998,3.4224912087232973,0.1607168206687119
28.28144,3.6116994200782706,0.15940663928946935
28.286036000000003,3.7786898018554886,0.1585693253340413
28.290624,3.935399371302665,0.15755776242546965
28.295212,4.068747307296149,0.15715804529621732
28.2998,4.179755228997733,0.1571024902151586
28.304388,4.272431569789071,0.15725723342202272
28.30898,4.358957716346173,0.1571517171496052
28.313568,4.433281996963792,0.1569792512905024
28.31816,4.489763435527752,0.15688878624118605
28.322752,4.537107865637606,0.15657325268844505
28.327347999999997,4.574337809580193,0.1561617407249111
28.331935999999992,4.598310366604616,0.15585804164651879
28.336536,4.609314047587791,0.15570133776927048
28.341124,4.606737928958993,0.15575723571770334
28.345719999999996,4.607627123774901,0.1555222900314785
28.350316,4.600333125664722,0.15536105637562259
28.354904,4.589064595989776,0.1551206993761449
28.35949999999999,4.574598784483565,0.15479407575983323
28.364091999999992,4.5557138440046305,0.15449901765489435
28.36867999999999,4.5385055877068465,0.15417214288314543
28.373276,4.515089573172784,0.15410494605170433
28.377863999999995,4.503532532620916,0.15382686969752085
28.38246,4.491775264089387,0.15363327548001113
28.387044,4.484192755102287,0.15343531179641595
28.391636,4.486958862079007,0.15310272539942843
28.396228,4.494799163047806,0.15274657272982844
28.400828,4.502849931628006,0.15250713221774634
28.40542,4.512787852000759,0.1523539637356249
28.41002,4.532052769175537,0.1521071393103228
28.414616,4.557946379809399,0.15182915256695945
28.419216,4.590835238044782,0.1514876264267258
28.423808,4.633006951633563,0.15099778203688777
28.428403999999997,4.6862603894710375,0.1503197553263902
28.432984,4.749573932395411,0.1494855268775547
28.43757999999999,4.80998894399718,0.14880785398781082
28.442168,4.87482308457167,0.14810873466914995
28.446763999999995,4.938435378004702,0.14752494093162283
28.451356,5.001847443458075,0.1470273444295126
28.455948,5.066325269521867,0.14657473113547084
28.46054399999999,5.132401736501292,0.1461847318645903
28.46514,5.207350363243051,0.14563916837811497
28.469732,5.281688066414081,0.1451676946186598
28.474327999999996,5.363099060452149,0.14458711478060626
28.478919999999995,5.449662291747812,0.1439384724263862
28.483512,5.5336494044146765,0.14335278491442557
28.48810799999999,5.6186581362433365,0.14275701465712595
28.492696,5.702356738033284,0.1421576720714799
28.497291999999995,5.787443513127462,0.14152117223383678
28.501872,5.868644039554128,0.14093132353604107
28.506464,5.948290066513789,0.14037070980604638
28.51107199999999,6.028547017044181,0.1397939874325957
28.51565999999999,6.1037739150311205,0.13928934828878933
28.520256,6.176013998798197,0.13881789945134387
28.52483999999999,6.245389453059556,0.1383672262300791
28.529428000000003,6.31831850366288,0.13782775786794108
28.534032000000003,6.387605675026983,0.13729484187132834
28.53862399999999,6.461057366303779,0.13663433647866333
28.543232,6.536097458864465,0.13587676537256937
28.547812,6.608517291347728,0.13511353251756866
28.552412,6.676884549000705,0.13434530604240802
28.556992,6.736990570462077,0.1336605589016309
28.561584000000003,6.792677462950725,0.13298764777626154
28.56617599999999,6.84124692312371,0.13236919936265457
28.570776,6.886008177894703,0.13173138926307854
28.57536,6.926594673121262,0.13108788574923852
28.579956000000003,6.964150212679331,0.13041730228368878
28.584544,7.001006545769417,0.1297044854087178
28.589132,7.029723827382041,0.12904844941693147
28.593724,7.055698664203095,0.12838451169085507
28.598319999999998,7.077620926193863,0.12770591765671216
28.602907999999992,7.090915397850591,0.12711399362407505
28.60749599999999,7.104287912772837,0.126475137756847
28.612087999999996,7.108377572341685,0.12591133376538152
28.61667599999999,7.104205995718927,0.12540538928200942
28.621264000000004,7.094349301533364,0.12493562031208152
28.62586,7.082893966432166,0.12442770885290826
28.630456,7.062566471568636,0.12401273677952859
28.635035999999992,7.03684237001922,0.12365603385562134
28.639627999999995,7.01287299591647,0.12323611468527103
28.64422,6.986327503184923,0.12283576083878205
28.648812,6.962069618205256,0.12238461307943321
28.653395999999997,6.940465895119902,0.12186109289312251
28.65798,6.9179627375869,0.12134487297377611
28.662584000000003,6.891495288120869,0.12088617857073104
28.667172,6.864539099798257,0.12045439554969307
28.67176,6.836727618476624,0.12007211006079553
28.676364,6.809693386888494,0.11968552646641742
28.680956,6.789488076739108,0.11924543349104547
28.685551999999998,6.7716145157902305,0.11879830633651302
28.690144,6.755706149899421,0.11836626131914003
28.694752,6.741107914047326,0.11794275634413454
28.69933199999999,6.730395926862742,0.1175119527832689
28.703928,6.7281895452980525,0.11701873791338427
28.708516,6.734244399924968,0.1164788377281184
28.713112,6.744185503219395,0.11593278983082476
28.7177,6.760344604381841,0.11537779281617595
28.722292000000003,6.784109876716533,0.11477382074684365
28.72688,6.811639213004591,0.11416993613431395
28.731472000000004,6.835004029379957,0.11368185297277777
28.736063999999992,6.8640539633181294,0.11317235165138383
28.740655999999998,6.894047473152578,0.11269991721932231
28.745248,6.922452581703133,0.11232382551370546
28.74983199999999,6.956664992530639,0.11192209875066728
28.754423999999997,6.995663086473306,0.11150754248624628
28.75901199999999,7.038669613797628,0.11108108441195767
28.763600000000004,7.08143177169366,0.11066876819466095
28.768196,7.124115886324175,0.11030861971142442
28.772788,7.165534012364604,0.10998260145986216
28.777371999999996,7.210838387072543,0.10965823726947384
28.781956,7.255654022923902,0.10936322058351061
28.786544,7.307787319070587,0.10900311231037073
28.791136,7.357877376893687,0.10868075088197658
28.795731999999997,7.41066573805973,0.10834524679494617
28.800312,7.463454099225773,0.10801711441809388
28.804916,7.5159980909635244,0.1077074750533429
28.809504,7.56506652962483,0.10742519389584934
28.814091999999995,7.612991164410197,0.10716815428147353
28.8187,7.6601385494620615,0.10691334433329032
28.823292,7.713293464770541,0.10658806986778703
28.827887999999994,7.766570564793167,0.10626367431868196
28.83248,7.821890903139379,0.1059184550657628
28.837072,7.8799875880940515,0.10551364747927688
28.841652000000003,7.935630339134073,0.10512344774853141
28.846252,7.993682882640117,0.10469858640261205
28.850844,8.052468534431036,0.10424393630944953
28.85543599999999,8.120204389249805,0.1037035870474731
28.860024000000003,8.190716590677035,0.10311131097153417
28.864612,8.261839715674995,0.10249586937047567
28.869216,8.326378288662498,0.10190346045471181
28.873811999999997,8.393693208258464,0.10125923133133627
28.878404,8.458021313634568,0.1006218782204225
28.882996,8.51731936646722,0.10000262053782216
28.887584,8.572608985918215,0.0993982724654462
28.892171999999995,8.622990737539906,0.09880761840055635
28.896759999999997,8.67140729410353,0.09820368203864369
28.90134,8.720312589523735,0.09758156536135597
28.90593599999999,8.76917374349531,0.09693237936742466
28.910527999999992,8.818645821037615,0.09625937431946774
28.91511599999999,8.863210030750615,0.09560190862402702
28.919695999999995,8.906464110424903,0.0949402971075727
28.924292,8.948652429488769,0.09426423630929201
28.928875999999995,8.98904187965734,0.09360413799910032
28.933456,9.028121199787197,0.09293642942409636
28.938051999999992,9.06282553239296,0.09229356496877537
28.942632,9.093809942493987,0.09167768715118962
28.947219999999994,9.109914662576065,0.09115721757273554
28.951816,9.120500591258109,0.09067064434248165
28.95639599999999,9.1312087046543,0.09018214698853147
28.96099999999999,9.145103860250018,0.08966106776006955
28.96558799999999,9.156955777522148,0.08916228583111906
28.970188,9.165865022023043,0.08868775257943762
28.974776,9.179515808190468,0.08818334819555264
28.979375999999995,9.187281248815422,0.08772213558642125
28.983963999999997,9.199910415821057,0.08722755988410767
28.98855199999999,9.210740713931392,0.08674106199267055
28.993143999999997,9.223614250365317,0.08624040293133545
28.99774,9.231624060418564,0.08577441417063125
29.002335999999996,9.239756055185959,0.08530552193776805
29.00692399999999,9.246499876649121,0.08485984366256942
29.011524,9.246581102836313,0.08445404994905799
29.016116000000004,9.239755364319237,0.08409803405436554
29.020707999999992,9.230353507173367,0.08374740975890982
29.02529599999999,9.219563476723264,0.08342012212363412
29.029887999999996,9.206608023235429,0.08311428277692523
29.03447599999999,9.19401912389003,0.08279254218988734
29.039067999999997,9.191035492591837,0.0824098280445239
29.04366,9.18858474159886,0.08203793276364124
29.048256,9.181514633653494,0.08168802540115008
29.052835999999992,9.172034733242103,0.0813700791535243
29.057432,9.161533213668921,0.0810606671484582
29.062012000000003,9.156550485495769,0.0807278310456895
29.06660399999999,9.14874726926553,0.0804099479138677
29.0712,9.149772071348995,0.08003371992846002
29.075788,9.14491152788999,0.07969639106791312
29.08039999999999,9.141483299183845,0.07936732350775778
29.084979999999995,9.130004301897497,0.0790967985390364
29.089572,9.124166280725326,0.07879822271311329
29.094159999999995,9.11706227096307,0.07851773050161298
29.098747999999997,9.114821987581493,0.07820823666308127
29.103351999999997,9.119244299475884,0.07786310913249067
29.107936,9.131228641093896,0.07748007753946387
29.112540000000003,9.145666916626562,0.07709890420342927
29.117124,9.163947299378112,0.07669833676479147
29.121720000000003,9.1833714860056,0.0762847230836044
29.126308,9.207170660157182,0.07586553967770902
29.130908,9.2274162379668,0.07549105200369575
29.135496,9.250848857975944,0.07509063897196834
29.14007999999999,9.279678084670978,0.07467607963360641
29.144659999999995,9.317335329679716,0.07421544044547725
29.149256,9.356014193850248,0.0737498299797236
29.153848000000004,9.385332159401862,0.07332477187313345
29.15843999999999,9.414405755525186,0.07290952289958558
29.163031999999998,9.441191743896631,0.07252267295595474
29.167624,9.476194827011051,0.07211302512182988
29.172204,9.515040017344356,0.07168819420895621
29.176799999999997,9.56259104127722,0.07122042704095202
29.181384,9.607199392438849,0.07077257425415948
29.185976000000004,9.654506046943421,0.07032143405174146
29.190572,9.697071159781462,0.06989294359894778
29.195152,9.73861465345771,0.06947489871517969
29.199747999999992,9.77901434325802,0.0690723502769918
29.204339999999995,9.820313467505978,0.0686706262124056
29.208927999999997,9.857237604229839,0.0682765845065449
29.213524,9.900579966801383,0.06786910725629101
29.218112,9.942001275763484,0.06747462903889559
29.2227,9.988652865248701,0.06704819661742585
29.227296000000003,10.037347693057505,0.06661540669168049
29.23188799999999,10.084243651971011,0.06618991734173593
29.23649199999999,10.11961328922787,0.06581406238435414
29.241083999999997,10.15432786146537,0.06543343572830247
29.24568,10.196604463426493,0.06502814214148468
29.250272,10.245910214806024,0.06459097105689461
29.25486399999999,10.296604139489787,0.06414008203475431
29.259452000000003,10.34496631497304,0.06368762023934697
29.264052,10.389975122093997,0.06323633580441614
29.26864,10.433429429747944,0.06278467628028914
29.27323599999999,10.476350857096687,0.062323330883133694
29.277832,10.521027011892093,0.06183787935026852
29.282424,10.571710696944116,0.06132852164323331
29.287007999999997,10.623660370586224,0.06081003733677957
29.29159599999999,10.671357241418383,0.06029026531545666
29.296199999999992,10.718887786087768,0.0597514512304462
29.30078799999999,10.769238818814244,0.05920781418594897
29.305367999999994,10.811617126226034,0.05867279764704309
29.309955999999996,10.850764249989671,0.05813167082175388
29.31454,10.882960267600415,0.057593058600293685
29.319128,10.909637493811125,0.0570663912985458
29.323711999999997,10.93091811333595,0.056543667420658375
29.328296,10.953586906165006,0.05600212428414209
29.33288799999999,10.971758526755822,0.055463465236687735
29.337476,10.981713052603661,0.054934547365437195
29.342071999999995,10.980385626223145,0.054430146543260984
29.346659999999996,10.966876813166621,0.053946826792098154
29.35124,10.941186613434095,0.053483838545343096
29.355832,10.911898675910976,0.05302076718967531
29.360424,10.871084416731208,0.05258410166287101
29.36501599999999,10.828226919227856,0.052153920072784576
29.369612,10.770778242582471,0.051762584978267856
29.374204,10.70270267872809,0.051396917762254996
29.37879999999999,10.623100793217057,0.05105567528830331
29.383379999999995,10.542477288544232,0.05071444088964162
29.387976,10.452659211415266,0.05040846268677084
29.392564,10.355156919848534,0.050116972475520126
29.397168,10.250503294149247,0.049851686001435254
29.401751999999995,10.139597768765054,0.04961241723154655
29.40635199999999,10.021296539820016,0.04940756146486114
29.410948,9.896088346170712,0.04922034174962187
29.41554399999999,9.771657402254911,0.049032220039115934
29.420135999999992,9.641996177815997,0.048866286726686387
29.424732,9.510458041216271,0.04873243004829653
29.429324,9.379574969635899,0.0486026356840451
29.433912,9.245382671141856,0.048492502102695664
29.4385,9.113399937134174,0.04839784285937411
29.443083999999992,8.983748952327,0.048313759239585835
29.447664,8.852465424787303,0.0482536853393448
29.452263999999992,8.725679069485846,0.04819113893841098
29.456855999999995,8.594806237537213,0.048144962429345045
29.461448,8.470229446722119,0.04809644662659219
29.466044000000004,8.344386667316936,0.04806167490026946
29.470632,8.224962113759435,0.04801897315461044
29.47522399999999,8.102472702716552,0.04798754251602821
29.479812000000003,7.983825398892554,0.04794373879351488
29.484407999999995,7.864811540926119,0.047914368377061325
29.489004,7.7525824629498015,0.04786165923044513
29.493592,7.643173873030572,0.04780200269900572
29.498187999999992,7.536585771168432,0.04773639037764021
29.502779999999994,7.429631115163855,0.047687099393132995
29.507367999999992,7.319489416959752,0.047658346748309634
29.511964,7.213067641260386,0.047622583598335815
29.516556,7.1059908005416625,0.04757587688729307
29.52116,6.998791775108796,0.047531808270277615
29.525748,6.898133160237753,0.04747534399068183
29.530352,6.799517783690297,0.047405609089050296
29.53494,6.703722895199932,0.047327830279516085
29.539548000000003,6.603430834471327,0.047247652840338286
29.54413999999999,6.503260958456869,0.04715672862723884
29.54874,6.401414398261259,0.0470553405757837
29.553328,6.2929052427896774,0.046971762868738096
29.557932,6.183496652870448,0.04688789030983609
29.56252,6.065626598779952,0.04682054158193876
29.56712,5.946734925527662,0.04675688412294483
29.57170399999999,5.8231017106088405,0.046702431237962846
29.5763,5.699057800098954,0.04661101145589663
29.580896000000003,5.569128544046598,0.046543604836600624
29.585484,5.43343612716592,0.046498267949867375
29.590088,5.296722091123447,0.046461102417502995
29.594688,5.1612740436710585,0.046397569625652134
29.599276,5.02529311591346,0.04630072793813933
29.603872000000003,4.881872343146385,0.04621490844350002
29.60846,4.734853832588721,0.04612194440147113
29.613048,4.5832159650786695,0.04602836200043919
29.61764,4.419396710892615,0.04597379558673392
29.62223199999999,4.254022957239557,0.04587338296695949
29.626823999999992,4.08018773941523,0.04579975845972991
29.631415999999994,3.9062303368767575,0.04573542895694855
29.636012,3.730107511300553,0.04569907195860139
29.6406,3.554639750743705,0.04568541928297476
29.645188,3.383136282119884,0.04562773734440826
29.64977199999999,3.2136760518196517,0.04552796384605767
29.65435999999999,3.049612428205305,0.0454373850800002
29.658956,2.887347673486255,0.0453362885217048
29.663543999999995,2.7230396804436174,0.045276294668079455
29.668131999999996,2.557099144668458,0.045344005816768465
29.672732000000003,2.3901369897315052,0.04549269833421233
29.67732,2.228160745889374,0.043190379710270274
29.681924,2.0679833709425397,0.04088087211892747
29.686512,1.909360495462709,0.03858605396393876
29.691107999999996,1.7511483155739436,0.03631872278961255
29.695699999999995,1.6010310457140087,0.03404748546300389
29.70029999999999,1.4570876322734634,0.03178425995350901
