Time,Force,Position
27.99008,0.015106828269882919,0.0
27.994668,0.009960085174106258,0.0
27.999255999999995,0.006734395687770969,0.0
28.003852,0.0027314564679335,0.0
28.008444,0.0013046358768939142,0.0
28.013031999999995,0.0,0.0
28.017632,0.0,0.0
28.022208,0.0,0.0
28.026804,0.002614765915606931,0.0
28.0314,0.007272770154800908,0.0
28.035988,0.012952393555788408,0.0
28.040584,0.019531451404423757,0.0
28.045172,0.02713212841485263,0.0
28.04976,0.033711186263487986,0.0
28.054356,0.040534613540414675,0.0
28.058948,0.04748022553148705,0.0
28.063544,0.053648587789057234,0.0
28.068132,0.05993913476077309,0.0
28.072732,0.06622968173248894,0.0
28.077312,0.07162079425655696,0.0
28.081912,0.0779113412282728,0.0
28.0865,0.08342463846648648,0.0
28.091104,0.09098117402828719,0.0
28.095692,0.09559503681885302,0.0
28.100288,0.0973884115523296,0.0
28.104864,0.10085847046695626,0.0
28.109456,0.10163022603863932,0.0
28.11406,0.10342360077211592,0.0
28.118652,0.100808834856509,0.0
28.12324,0.09782202063664595,0.0
28.127836,0.0938135872549894,0.0
28.132424,0.08890571942568497,0.0
28.137012,0.08387566688223488,0.0
28.1416,0.07896779905293046,0.0
28.146196,0.07344900765289766,0.0
28.150788,0.06797435770149303,0.0
28.155364,0.06373179452328391,0.0
28.159956,0.06174293728006382,0.0
28.164544,0.06327377456191759,0.0
28.169132,0.07114479442593448,0.0
28.173736,0.0804922704914382,0.0
28.178324,0.09561314701700485,0.0
28.18292,0.11745099989891038,0.0
28.187496,0.1496035669277462,0.0
28.192096,0.19669020505589735,0.008657597362798608
28.196692,0.24652952760735888,0.017972992447340568
28.201284,0.307460814039253,0.027263363316498427
28.20588,0.37576414184684254,0.03653470297027181
28.210456,0.451556201582454,0.04603521225375042
28.215056,0.5310058743508429,0.05584323706545146
28.219644,0.6193820879619316,0.0656140779801167
28.224248,0.7184837113110158,0.07522339442558945
28.228832,0.8253680716268605,0.08487266623583058
28.233432,0.9455539603094988,0.09431647777144599
28.238028,1.0759323784249215,0.10371143374284073
28.242624,1.2215672803334683,0.11267170421266573
28.247212,1.374974679577037,0.12156740630427032
28.251804,1.5315352192032425,0.13051303653019883
28.256392,1.6916595948031503,0.139469174443324
28.260988,1.8533045680531726,0.14845152287533683
28.265568,2.0217004194764234,0.15734621081053662
28.270152,2.194549301689286,0.16604265853981487
28.27474,2.358315556528413,0.17485796983018795
28.279336,2.5216608761447366,0.18347132279849138
28.283928,2.674080558043401,0.18344239113621905
28.288512,2.826323674147553,0.1826471374227587
28.293104,2.975858247277022,0.1817617086332925
28.297684,3.120763223822368,0.1808485722553428
28.302268,3.2656579607359753,0.17960017115353485
28.306856,3.4066562093503325,0.17803477942123966
28.311444,3.540038047160703,0.17650977576217744
28.31604,3.665270593861876,0.17508891263474105
28.320628,3.7827204035962887,0.1736051453600452
28.325216,3.8896891730209973,0.17226928101449668
28.329812,3.9923507585553906,0.17083889727532947
28.334404,4.081144033600891,0.16982426839995599
28.339,4.162609408719324,0.16885314022712147
28.34358,4.242387860024869,0.16772646779779155
28.34818,4.318147638317019,0.16649536258854009
28.352772,4.384247767481595,0.16529767626092948
28.357372,4.44428598530919,0.1640942970539004
28.36196,4.492298902991814,0.16313694579031662
28.36656,4.541900221958333,0.16200701885166965
28.371144,4.582995935304954,0.16109576499049016
28.375736,4.62339244218359,0.1601238374585795
28.380316,4.660147069823008,0.1592039904099122
28.384908,4.691705318756202,0.1583543920904491
28.389512,4.718189373697317,0.1575448392393407
28.394108,4.740376484379857,0.15677747878328185
28.398684,4.75969896555668,0.15602375799609303
28.403272,4.778444424979663,0.15519957142060611
28.407852,4.7924042012874875,0.15444412876501445
28.412456,4.805053847556597,0.15368531797241594
28.41704,4.81345069101576,0.15300681845735226
28.421632,4.815140797750321,0.15245267609384558
28.426224,4.813066840531517,0.15192901661660188
28.430812,4.810460003007503,0.15139175238379277
28.435404,4.802334374083457,0.15098707369283046
28.439996,4.787668334597582,0.1507432856395804
28.444584,4.778887640654176,0.15033407093665851
28.449176,4.767164273939535,0.1500065849290789
28.453764,4.760060264177281,0.1495701738743001
28.458356,4.751690265824941,0.14918747493348966
28.46294,4.745896386101399,0.14875789055680588
28.467528,4.740635386683068,0.1483437571687485
28.472124,4.733497475103924,0.14803884113913685
28.476704,4.723949771058756,0.14782817530706366
28.481304,4.717633250661741,0.14757490317515123
28.485892,4.709928556960497,0.14738553374234212
28.490492,4.70815335025035,0.1471001235643479
28.495076,4.711286011369507,0.1467544301928003
28.499676,4.719981605337327,0.14635113908841804
28.504268,4.734484501582099,0.14587580166557662
28.50886,4.753650896227884,0.14536098034212197
28.513452,4.778380223722331,0.14479744260891325
28.518044,4.806629245741851,0.1442320617430223
28.522648,4.836965647533586,0.14367582613361793
28.52724,4.870533232973474,0.14308245997977703
28.531832,4.909908120690316,0.1424071072711974
28.536424,4.948305530693993,0.14183250628247757
28.541012,4.987358005717026,0.141264635541645
28.5456,5.025921741883478,0.14074819686677337
28.550188,5.066039977516932,0.14022216286611527
28.554784,5.103992790112654,0.13975992839643558
28.559376,5.141456863851794,0.13934194550841453
28.563968,5.18071980648623,0.1388854750440245
28.568564,5.226156605540054,0.13832697170849614
28.573152,5.272004100184945,0.13780370886572282
28.577744,5.320305528744488,0.1372573560360054
28.582324,5.367707522856383,0.13674836250943653
28.586916,5.407058748388077,0.13644003950871691
28.591512,5.441912801681532,0.13621034298877494
28.5961,5.4701042596990135,0.1361209953667712
28.600688,5.499806075734872,0.13597407893726973
28.605272,5.526687403713643,0.13588583974144713
28.60986,5.5559785241584345,0.13572504824410217
28.614456,5.58269352597443,0.1355987727631511
28.619044,5.612351200561661,0.13541718308189132
28.623644,5.644296482900769,0.13517843336157312
28.628224,5.673010581591722,0.13496594646311824
28.632824,5.705566787501559,0.13468780182269802
28.637408,5.7401662317349835,0.13437118176894663
28.642008,5.774477165091488,0.13402713844767689
28.646604,5.812385836238583,0.13363111528859786
28.651196,5.855402603194647,0.13313607328386942
28.655776,5.9035274659596775,0.13254502985158562
28.660372,5.949442764238347,0.13196959730230687
28.66496,5.996868420535394,0.13135089021477725
28.669556,6.042861762079579,0.1307372788421867
28.674144,6.085257365833174,0.13017818434502748
28.678728,6.131206565928731,0.12952037626121263
28.683316,6.1821416771191116,0.12877503492295433
28.687916,6.2345871463278675,0.12797253226931077
28.692504,6.280247835546506,0.12728923714710036
28.697096,6.321655721955197,0.1266452197420575
28.701692,6.360365305020943,0.12604620456195365
28.706272,6.404060799181512,0.1253657584995552
28.710864,6.443381305817988,0.12474321929551777
28.715452,6.48000350911152,0.12416602645886253
28.72004,6.522755427375815,0.12348340643957412
28.724636,6.559211304506572,0.12288246234068444
28.729216,6.593457617150969,0.12229091879845264
28.733812,6.629258429262371,0.12170184726394002
28.738404,6.6637491113350595,0.12110762613204695
28.742996,6.691044317826565,0.12060137101030212
28.747588,6.713964536793977,0.12014610891315908
28.752168,6.737906374923183,0.11968011390348102
28.756764,6.7564516063665,0.11927437776297413
28.761348,6.776018456971613,0.11885504008011487
28.765944,6.797628545900312,0.11840447435587705
28.770532,6.820138069276659,0.11794862984557965
28.775132,6.838150420414767,0.11754210316933596
28.779728,6.858861074895818,0.11711207251197292
28.784324,6.886723063509423,0.11657046071785884
28.788916,6.920470397665499,0.11594793634127241
28.793512,6.954584285964012,0.11530847572895546
28.798104,6.984201002024284,0.11472115887626344
28.8027,7.014062087512849,0.11412115298738862
28.80728,7.041469239086763,0.11353516379676187
28.811868,7.065034283441793,0.11300580931747596
28.816456,7.093585238891646,0.11241026511212475
28.821044,7.119970771303764,0.11185398552382847
28.825628,7.142880750639437,0.11132607268630818
28.83022,7.1682005224411345,0.11075425034882168
28.834812,7.194297543976335,0.11017946751336578
28.839404,7.224481042158708,0.10955580769715322
28.844,7.250045183388696,0.10898032368674651
28.848588,7.27855199738992,0.10836937792868832
28.85318,7.3056264966382845,0.1077577572074261
28.857776,7.3320459308672925,0.10714523859130044
28.862368,7.357810300076945,0.10653169610197519
28.86696,7.386639526771976,0.10587984110339284
28.871552,7.413914254000004,0.10523536751667376
28.87614,7.437469058723296,0.1046324446125819
28.880728,7.45922499455129,0.10404927175409631
28.885316,7.478937692055699,0.10349425527868304
28.889912,7.494686097627079,0.10298321841773689
28.8945,7.513254991255547,0.1024496081677456
28.8991,7.531823884884016,0.10191587692632262
28.903684,7.547572290455395,0.10140881779402694
28.908284,7.558212600217805,0.10096853077829779
28.912872,7.573961005789186,0.10046705444251301
28.917472,7.592652084131799,0.09993574068514573
28.922052,7.6071345011130935,0.09946503307576095
28.926648,7.625581210027415,0.09895296360985333
28.931228,7.6380203886851215,0.09851365330040687
28.935824,7.653157870685773,0.09805642008777231
28.940412,7.666129929648689,0.0976309635821293
28.945,7.681433737812113,0.09720969985143695
28.949588,7.695593742099597,0.09680844917016172
28.954172,7.709509376958791,0.09642181640202285
28.958764,7.724080076837341,0.09604600485441436
28.963356,7.739428026449393,0.09567363121608476
28.967952,7.757107725261951,0.09530572331868939
28.972544,7.773521435484424,0.09496287539579236
28.977136,7.793532883497489,0.09460049717844034
28.98172,7.824049034005409,0.09415297091989479
28.986312,7.849579273418505,0.09375742082511195
28.9909,7.879484500355697,0.09334523481574913
28.995488,7.914664149264629,0.09291054181669489
29.00008,7.956506393449534,0.09242575269101477
29.004668,7.991852368521242,0.09202695827795598
29.009272,8.02491073584107,0.09166418112128934
29.013864,8.064265144294433,0.09127150788417962
29.018464,8.10157631442421,0.09090471275057846
29.02306,8.137377126535615,0.09056963652128665
29.02766,8.175098992256457,0.09022313277015635
29.032264,8.217440214929685,0.08985013473388373
29.036844,8.260025807031203,0.08947168401114243
29.041452,8.30351083358037,0.08909071723143387
29.046032,8.346995860129537,0.08871247082608574
29.050624,8.386638779459823,0.08836608564701928
29.055204,8.427181133237754,0.08802014077555209
29.059804,8.46514736838689,0.0876842838720103
29.0644,8.50630064573555,0.08731688946702815
29.068992,8.545777238903058,0.08695634677089488
29.073588,8.579612855956391,0.0866380812789739
29.078184,8.620355437713988,0.08626740143183736
29.082776,8.657744651109285,0.08590583826009532
29.087372,8.693046484732367,0.0855337633077907
29.091952,8.722052277221911,0.085191428926773
29.09654,8.75599983935765,0.08477672471714222
29.101132,8.795299866730646,0.08431130724300953
29.105716,8.831613079883782,0.08384186594378876
29.110308,8.870213900788794,0.08334935738602929
29.114904,8.911835437730561,0.08279778322462768
29.119496,8.950103606310027,0.08225364096526626
29.124076,8.984363341507835,0.08171025976186477
29.128672,9.01220485085796,0.08119657974605167
29.133252,9.041434533512323,0.08066289628424762
29.137844,9.070009151147325,0.08012432862117778
29.142432,9.099971942086558,0.07956297955926102
29.147012,9.126947918805927,0.07899286493117673
29.15162,9.153391015220086,0.07841161821444158
29.156208,9.177135808291302,0.07784368120448329
29.1608,9.199326101895512,0.07727333015488216
29.165396,9.21996189603272,0.07670042824265678
29.169988,9.234301649036391,0.07615128872873062
29.174584,9.247864152306557,0.07560077219931423
29.179172,9.259261232538995,0.07507194380964266
29.183772,9.273723170256808,0.0745207697796509
29.188352,9.283732077185018,0.0740161523746056
29.192952,9.284912965799519,0.07356603531103413
29.19754,9.27996413944326,0.07316048685924965
29.202144,9.270151586706323,0.07278285493295346
29.206728,9.26279296788404,0.07240862086487072
29.211324,9.259032086852347,0.07202563722518987
29.215912,9.256703520573513,0.07165273433087373
29.220508,9.261570429875864,0.07126151828827906
29.2251,9.26427191614048,0.07089070621129478
29.229696,9.268772271300392,0.07051668548485969
29.234284,9.276093114517396,0.07013334616091324
29.238876,9.282314295307087,0.06979264351501763
29.243468,9.293032648335014,0.06944337167175713
29.248052,9.304283881668155,0.06910726294553811
29.25264,9.320032287239533,0.06876329536700729
29.257236,9.338234626725566,0.06842420312024922
29.26182,9.359668149859752,0.06809242297057891
29.266408,9.387275529413326,0.06775541861520323
29.271008,9.417703397023992,0.06740993839889
29.275596,9.450585198549309,0.06707215695741256
29.280187999999995,9.49037396477889,0.06670197107223413
29.284776,9.54078961821747,0.06628900714156735
29.289364,9.600566170274966,0.06584806167678273
29.293976,9.662918840961261,0.06540784779309455
29.298564,9.725149326933412,0.06497829199591743
29.303156,9.785336574581974,0.06456549399892378
29.307748,9.849365929449418,0.06414316677866902
29.31234,9.910941350402208,0.06372145599437899
29.316944,9.976358878573883,0.06328974418849553
29.321532,10.041898591459702,0.0628586138123016
29.326136,10.106050131041293,0.06245121693260806
29.330724,10.17669793973608,0.06200122210417583
29.335324,10.245546879535574,0.06156013584913057
29.339912,10.317705046248738,0.061099550134750436
29.344512,10.388963778514254,0.060646993926289
29.3491,10.462510118531648,0.060181696650072995
29.353692,10.53781118599571,0.05969240816352798
29.358276,10.605139528145092,0.059212749222991155
29.362872,10.670791186113318,0.05873473085529255
29.367464,10.733211660433392,0.05825338206012943
29.37206,10.789458278334074,0.05777924533936729
29.376656,10.836588367044133,0.057322479636100175
29.381256,10.876112284581943,0.05686044881627064
29.385848,10.915225506528689,0.05638514606575828
29.39044,10.9480426873419,0.055915880852975795
29.395032,10.978528118954605,0.0554377918712821
29.399616,11.000141390804977,0.054963764031918834
29.404204,11.020200163188345,0.05448455440765285
29.4088,11.030365156647587,0.0540113362119162
29.413392,11.033212489811502,0.05354535846463171
29.417984,11.029885966556023,0.05307795456106278
29.422576,11.013112068034458,0.052643558586973366
29.427168,10.988121074769914,0.05221500429250869
29.431764,10.950826510115224,0.05180928605106945
29.436352,10.900573309051024,0.05141734048513943
29.44094,10.838016536596673,0.05104687761510303
29.445536,10.762789638609737,0.05070853550291923
29.450124,10.682821198956269,0.05037464231582888
29.454716,10.598233402350415,0.05004215419851687
29.459308,10.501874914659622,0.04974030342337609
29.4639,10.398365092836274,0.049463861104662735
29.468496,10.287826121594515,0.0492086843389504
29.473084,10.169891446791915,0.04898731757291337
29.477676,10.045294176713341,0.04877406761166012
29.482268,9.916321919110674,0.04854974528666707
29.486868,9.775578970423068,0.04835634354800328
29.49146,9.629483556498197,0.04818900645387307
29.496056,9.472516885936042,0.048052588431150255
29.500648,9.31224098846021,0.047933548846728485
29.50524,9.14697917988956,0.047828338989287844
29.509836,8.974399711023578,0.04772156687061956
29.514432,8.800021373262304,0.04761055080538831
29.519024,8.621556558853852,0.047513355644302674
29.523624,8.439904702245874,0.047434427681821746
29.528212,8.259807345104903,0.04736202302998506
29.532808,8.073824642421462,0.047309044906830654
29.5374,7.8886191894715205,0.04725906540275486
29.541988,7.700226694322054,0.047227872419040154
29.546576,7.504027800020677,0.04722037891707592
29.551164,7.310771578490535,0.04720029185138308
29.555756,7.116615922512744,0.047179226706397584
29.56034,6.923237516268457,0.047165521720020954
29.564928,6.730103479452459,0.04713770030894128
29.56952,6.531206281808139,0.047122530933555014
29.574112,6.32941055284121,0.047168134922867866
29.578704,6.133377984702608,0.04719525643013768
29.583284,5.938489220439943,0.047207417338038155
29.587872,5.746543128948513,0.0472037291517496
29.59246,5.553697603009438,0.04719880040556456
29.597064,5.364694184289243,0.04717065499487395
29.601652,5.179943568378996,0.047152605180480936
29.606244,5.0007117438687825,0.047115893946506004
29.61084,4.824056037987367,0.047089353448273766
29.615428,4.650220820163039,0.047060970285987415
29.620036,4.476507787052858,0.04701555443606968
29.624636,4.312155652561594,0.04694139353011392
29.62924,4.1457602797467406,0.046890930189974395
29.633816,3.983207014150771,0.04681388935045686
29.638408,3.82629472466898,0.04670793282894865
29.642996,3.6719585538159865,0.04660430434294734
29.647584,3.5173780135347017,0.04652889924696565
29.65218,3.364063461843502,0.046396738044712435
29.656772,3.2133250287811004,0.046263286598350585
29.661364,3.0699042560140266,0.04609994835315323
29.66596,2.9335126326653618,0.045844300489633553
29.670548,2.7969988246025514,0.0455745851464283
29.675144,2.6619173312926003,0.04534752440630897
29.679732,2.527490903002005,0.04513551947370609
29.684328,2.4012815694543863,0.0448858831199374
29.688916,2.2747056817643303,0.04466430597341237
29.6935,2.1498064782554245,0.04445523136465723
29.698088,2.0227418517087865,0.04427901814914133
29.702684,1.9005409515428242,0.04398019684416081
29.707268,1.784225396919332,0.04165916168922921
29.711856,1.670241591496346,0.03935640602085461
29.716456,1.5552361669115669,0.03707109228609824
29.721044,1.4468933376027597,0.034763147406926174
29.72564,1.3410044422086045,0.032475974470661674
29.730224,1.2375694807291013,0.030211681653052807
29.734812,1.1359333881448943,0.027953643733849554
29.739408,1.0427587597319545,0.025668667711225755
29.743996,0.9537147494148175,0.023433442034285
29.748592,0.8681462921741259,0.02120921490757562
29.75318,0.7822112807909973,0.019016952276569483
29.757768,0.6977085841607273,0.01688139177117829
29.762364,0.6223224167210816,0.01476987416400845
29.766952,0.5535988445574078,0.012626478325674083
29.771548,0.49489123603200635,0.010479664701312511
29.776128,0.4358170733641677,0.008372582636948938
29.780728,0.3839383862775118,0.006261651513664203
29.785316,0.337456305876743,0.0041409339262450644
29.789904,0.2924900776561696,0.002013399226889588
29.794488,0.24997778335024823,0.0
29.799084,0.20979723824483348,0.0
29.803688,0.17525766925359723,0.0
29.808284,0.14729715811099633,0.0
29.812876,0.12575487281607603,0.0
