Time,Force,Position
27.608823999999995,0.16978591369061183,0.0
27.613416,0.16140249278486166,0.0
27.618004,0.15199745271731796,0.0
27.622592,0.14439128154506997,0.0
27.62718,0.13588567592517414,0.0
27.631768,0.1321216119718089,0.0
27.636352,0.13003423219959373,0.0
27.640944,0.13203332907455262,0.0
27.645532,0.13313299150186364,0.0
27.650112,0.13284448062494417,0.0
27.654704,0.13831913057634881,0.0
27.6593,0.1482909527659927,0.0
27.663888,0.15033419108957974,0.0
27.668496,0.1533990485749603,0.0
27.673084,0.16018382856507796,0.0
27.677676,0.16582480467925637,0.0
27.682264,0.17260958466937404,0.0
27.686852,0.18335865659252013,0.0
27.691448,0.1970504012869011,0.0
27.69604,0.20972052681948852,0.0
27.700636,0.2195701642949867,0.0
27.705224,0.2267214984275414,0.0
27.709824,0.238492189512481,0.0
27.714412,0.2521839342068619,0.0
27.719012,0.26407681000594724,0.0
27.7236,0.2731491977479433,0.0
27.7282,0.2803005318804979,0.0
27.732788,0.2796454668611414,0.0
27.73738,0.2770693482323435,0.0
27.741968,0.2788240756790111,0.0
27.746564,0.277513945640298,0.0
27.751152,0.2736718384214153,0.0
27.755748,0.27641428321298694,0.0
27.760336,0.273315523910717,0.0
27.76492,0.2689949174669904,0.0
27.769508,0.27293554721486823,0.0
27.774108,0.28170600152653297,0.0
27.778692,0.29224142291660404,0.0
27.783287999999995,0.30560757199550304,0.0
27.787884,0.3238918285354454,0.0
27.792472,0.34840432257514387,0.008987669599085799
27.797056,0.38376441106698356,0.01799708020118712
27.801644,0.4271516059538752,0.026824092754517588
27.80622,0.4808976564363252,0.035564984064292066
27.810816,0.5516651577903057,0.04398002474765862
27.815404,0.6341796880440752,0.05234797774446225
27.820008,0.7276639974641314,0.060728241741747964
27.8246,0.8341613243740615,0.06914081492670432
27.8292,0.9533051146314285,0.07747555706992154
27.833796,1.0853838791131518,0.08563708430392822
27.838388,1.230641987247523,0.09375901687631084
27.84298,1.3872364286906178,0.10185863378014762
27.847568,1.5550008772796629,0.10982108838009592
27.852167999999995,1.7414973627382775,0.11766591315346235
27.856756,1.9341338027993924,0.1255608571927823
27.86136,2.1228942338247347,0.1336230170078335
27.865948,2.3157072396803624,0.14166219743873684
27.870548,2.5148604281181526,0.14963318455391583
27.875143999999995,2.7211649506884976,0.15745998908182293
27.879732,2.9353097742276435,0.16505937939832785
27.884324,3.1498109122774878,0.1635961911665687
27.888919999999995,3.360049007885645,0.1620571196506484
27.893528,3.5585842160426417,0.16077378602825254
27.898124,3.74897013309044,0.15953711157048794
27.902712,3.925321413486571,0.15866055212158137
27.907308,4.094589163383928,0.1578055814649178
27.911895999999995,4.257672817230156,0.15691351199794373
27.91648,4.416004689778116,0.1559681906963135
27.921068,4.564676913198502,0.155100286047065
27.925668,4.697227120195007,0.15443199175234698
27.930247999999995,4.818763406576596,0.15375069559249607
27.934844,4.929818652648481,0.15305599507784431
27.93944,5.026184197049343,0.1525049275791546
27.944023999999995,5.106960605331531,0.15209434234581107
27.948624,5.182818906152677,0.15157523223144662
27.953212,5.258500641179309,0.1508125669752029
27.957808,5.324522727078368,0.15006941355455694
27.9624,5.380640794421563,0.1493753423293227
27.966992,5.4222796277051355,0.14887887559428975
27.9716,5.445885630587123,0.1486974639199214
27.976188,5.466216308372328,0.14850901829110527
27.980796,5.481472792165456,0.1483418429796144
27.985388,5.503181403623153,0.14793638910005386
27.989975999999995,5.5186720172128325,0.14758368975214484
27.994564,5.531009490419875,0.1472005708736523
27.999156,5.53684045488198,0.14683704448193557
28.003751999999995,5.5361649105991475,0.14649227918510532
28.00834,5.526528923656724,0.14619450190348174
28.01294,5.513739796331662,0.14586879480361498
28.017527999999995,5.499640538967889,0.14553497709258897
28.022128,5.479367425184724,0.14530579341470887
28.026708,5.454963693305758,0.14512770637807998
28.031308,5.430027081121582,0.14493505587646166
28.035896,5.407255891975139,0.14467721922014917
28.040488,5.381253519180541,0.14445245215275074
28.045079999999995,5.353574462204794,0.1442451810653995
28.049672,5.3269170243908395,0.14400997679680294
28.054264,5.299115782700944,0.1438104015210097
28.058855999999995,5.272091790744551,0.14360766783091924
28.063436,5.2503422207599,0.1433172932915663
28.068024,5.224261804699783,0.14315370776854286
28.072612,5.196304476478853,0.14309024637135184
28.077207999999995,5.159441086678701,0.1433003741326475
28.0818,5.125075772241828,0.14354156787104322
28.086392,5.09590683651118,0.14375707106035246
28.090988,5.0725893445061105,0.1439499902735671
28.095568,5.055123296226623,0.14412114933503645
28.100164,5.045429745282157,0.1442286057465511
28.104752,5.0390115194344745,0.14435505274825342
28.10934,5.0408545297783975,0.1443773840647886
28.113948,5.04993715715213,0.1443232772665899
28.118535999999995,5.065892847413237,0.1442240827981432
28.123132,5.087044916380568,0.14410411264490836
28.127724,5.110572875997034,0.14402320709552452
28.132328,5.136476726262634,0.14397957122977573
28.13692,5.164878651891517,0.14396707778689727
28.141508,5.195412098741241,0.14401102662354934
28.146104,5.23289665174386,0.14395507536843227
28.150684,5.277987375918727,0.14380054083528224
28.155276,5.328108152637045,0.14359047821371765
28.159856,5.385057850794107,0.14329048271938952
28.164456,5.449203024532353,0.14287110645261708
28.169044,5.519888608832424,0.14231761462754158
28.173644,5.597114603694323,0.14164982043234361
28.178232,5.6752400330038695,0.14098008936494516
28.182828,5.753732016455851,0.14029954724984867
28.187408,5.828748446831389,0.1396707843774751
28.192,5.907729169139954,0.13898733359542348
28.196592,5.98503320726737,0.13832532318576282
28.201184,6.058084442584839,0.13773439173895655
28.205772,6.13162441675889,0.13712348320369735
28.210356,6.204875880056021,0.1364988378226561
28.214944,6.275795594152647,0.13589670202519546
28.219528,6.349491654857734,0.13521997330594804
28.224108,6.426863496618928,0.13445591458185227
28.228696,6.502270143322052,0.1336925590721404
28.23328,6.579265191309071,0.1328368649653734
28.23786,6.649431317857344,0.13206704133942448
28.242448,6.718531683795194,0.13129356444281126
28.247056,6.786688473836769,0.13051091314658134
28.251643999999995,6.851858449658479,0.12974838607635372
28.256232,6.915185415136267,0.12898405756217718
28.260828,6.984353584707897,0.1281150578053859
28.265416,7.049757690326161,0.12727340002131438
28.270008,7.1133187856005,0.12642141906745286
28.274604,7.173404327798394,0.1256087395449281
28.279208,7.240763388842989,0.12468506703987853
28.283792,7.3001497245729,0.12385506412587595
28.288392,7.362312406911268,0.12295853190334737
28.29298,7.422265524763277,0.12206535540172049
28.29758,7.479764708700635,0.12119652580281284
28.302164,7.534032708989838,0.12035233427094925
28.30676,7.588256567830411,0.11947595486763381
28.311356,7.635529320518093,0.11866700369523056
28.315947999999995,7.67650603207224,0.11792820616012216
28.320536,7.713885005835795,0.11722470265689815
28.325132,7.745745188199318,0.11658424478891458
28.32972,7.778749174438779,0.1159224004821513
28.334316,7.808399792315941,0.11528738622783735
28.338904,7.830610565183629,0.11473349107980549
28.343488,7.8516333927267485,0.11416660839825507
28.348075999999995,7.87008010164107,0.11362213887629985
28.352676,7.874302185555802,0.11323836158165587
28.357264,7.876725400575237,0.11287167114418703
28.36186,7.881969103651761,0.11247900007757951
28.366452,7.887046480565511,0.11205561942859453
28.37104,7.883906762736286,0.11170797126493304
28.375624,7.884076271820732,0.11130769330214477
28.380212,7.88310197702924,0.11092977285961393
28.384804,7.883271486113687,0.11053232688078825
28.3894,7.883030299607067,0.11011793124538008
28.393988,7.879191375309857,0.10972990101388619
28.398584,7.876496254888586,0.10932424608498237
28.403172,7.877643241686197,0.10887969056891234
28.40776,7.8782573481785985,0.10842233452549108
28.412356,7.880381812689375,0.10792625500943641
28.416948,7.881851212180797,0.10742231435148215
28.421544,7.881643927491069,0.10692502956038374
28.426124,7.881681012229631,0.10641609969525058
28.430724,7.884660769739429,0.10587230299176126
28.435312,7.885597288925639,0.10535395851675214
28.439912,7.886289438683558,0.10484873668851988
28.4445,7.894421433450951,0.10427675274781045
28.4491,7.9007545593230475,0.10371760589213587
28.453692,7.900547274633319,0.10321774671518312
28.458288,7.902916108572388,0.10270647184363552
28.462876,7.906306561673252,0.10218177428972688
28.467468,7.906754342002879,0.10168973155950606
28.472072,7.902827134808414,0.10122234824464295
28.476664,7.897633939023861,0.10077931299875793
28.481256,7.893095808258667,0.10034323898535827
28.485848,7.893299219160002,0.09986374690193828
28.490436,7.890071218433517,0.09943983230947422
28.495024,7.8835339907933655,0.09906465582286209
28.499612,7.87752964345842,0.09870083738226809
28.504204,7.874756479771629,0.09833304253312831
28.5088,7.8790566069518775,0.09792712689258082
28.513384,7.88965277526566,0.09748445739578834
28.51798,7.898738585561064,0.09707772578950473
28.522568,7.91232156809471,0.09664641172857603
28.52716,7.933999460657186,0.09617134081759506
28.531752,7.957476222114959,0.09568844859634927
28.536335999999995,7.977765941373205,0.09524635298882426
28.540952,8.00116465956546,0.09480777443355878
28.54554,8.028816180567661,0.09435531443011914
28.550144,8.056756212446784,0.09393154062789819
28.554732,8.088826862421708,0.09350380089383768
28.55932,8.125394684634871,0.09305569068954009
28.563908,8.168136363267424,0.0925820933059749
28.568508,8.217540637175949,0.09206416640421577
28.573104,8.267477791389684,0.09156310549621588
28.577691999999995,8.322689367575162,0.09105017157804826
28.582284,8.38072143181773,0.09052004862259552
28.586876,8.439897299936236,0.08997511028866403
28.591464,8.502915275273624,0.0894055176574201
28.596052,8.565933250611014,0.08884447160682818
28.600656,8.626130737891314,0.08831159289146366
28.605248,8.684651540990464,0.08779251122485307
28.609839999999995,8.748158255184435,0.0872363158257772
28.614424,8.80974391576897,0.08670198087403636
28.619019999999995,8.86299029689638,0.0862205134114327
28.623608,8.914315624414344,0.08575545567146493
28.6282,8.971770666903073,0.08524097714367294
28.632788,9.034700359343205,0.08467643324751523
28.637376,9.098118790639921,0.08409716744016717
28.641964,9.158428223002627,0.08351530447063223
28.64656,9.214362667841243,0.0829507512339471
28.651148,9.265555571013326,0.08241856820274181
28.655743999999995,9.312373486661317,0.08190317943794018
28.660336,9.353550426195127,0.08142453743133013
28.664928,9.39443885485202,0.08092813341485498
28.669528,9.428131807927727,0.08046334735257965
28.674108,9.46039244625058,0.07999291699395525
28.6787,9.496250822364022,0.07951370856494464
28.683288,9.532231383191608,0.07903530469441901
28.687876,9.564736390942748,0.07856680696040876
28.69248,9.595442529798595,0.07810659620215198
28.697068,9.621284942273762,0.07767718040889345
28.701656,9.641364193920609,0.07728129631046181
28.706244,9.658745142224511,0.07689511547903839
28.710836,9.680090382461438,0.07648461512648146
28.71544,9.702701611288456,0.0760587402485846
28.720016,9.718650244839498,0.07566848074582432
28.724616,9.7220509375721,0.07534645729692938
28.729208,9.721731707799963,0.07503985009021084
28.733804,9.724477335513209,0.07471245416123393
28.738392,9.727100778512309,0.07438937253289851
28.742992,9.730868025387345,0.07405451699626116
28.747576,9.738355194767122,0.07370654210181642
28.752172,9.743921310537452,0.0733677312046953
28.75676,9.74719981855591,0.07305274545095432
28.761356,9.752032826041368,0.07274268008764231
28.765944,9.755722029650888,0.0724443639760832
28.77054,9.759000537669346,0.07213247655466458
28.775132,9.758559123183064,0.07183493656263248
28.779724,9.760816012039726,0.07153153243260023
28.784312,9.764216704772327,0.0712176244683934
28.788908,9.769538451114368,0.0708946894465417
28.793496,9.77882448938944,0.07055038175225364
28.798088,9.791175385149891,0.07018757022863686
28.802684,9.800461423424963,0.06984528719905257
28.807272,9.80950309227174,0.06951331048410787
28.811864,9.82136524917561,0.06917136061669336
28.816452,9.840911620517245,0.068795415510996
28.821044,9.866754032992416,0.06840860679739036
28.825631999999995,9.88736616494447,0.06805872476035024
28.83022,9.913863642438995,0.06768281591398416
28.834816,9.942282173542964,0.06730122301885476
28.839404,9.96877965103749,0.06693053503459304
28.843992,9.999119235750898,0.06654532127848524
28.848588,10.032401493235543,0.06614785119570407
28.85318,10.066949739310271,0.06573823103990553
28.857776,10.105340092603884,0.06531600678732295
28.862352,10.138744534802672,0.06492139827736336
28.866952,10.176768333953847,0.06451791428762614
28.871544,10.214014883371519,0.06411468771681632
28.876144,10.253959736132135,0.06371131670847642
28.880724,10.29529276219698,0.06329210920213844
28.885324,10.338546841871265,0.0628709719693637
28.88992,10.38245598656491,0.062461279869451505
28.894511999999995,10.43147322706752,0.06202784913380029
28.899108,10.479835402550775,0.06158967536814993
28.903704,10.528319762748177,0.061150390766362285
28.908292,10.579380241574375,0.06071702728535042
28.91288,10.625943548162335,0.06029306879896312
28.917468,10.681212688349852,0.05984218983935523
28.922063999999995,10.731862471584986,0.0594053422539224
28.926652,10.782390070105974,0.05897630355422434
28.93124,10.833162038055253,0.05854241770627576
28.935828,10.885077809880471,0.0581040553939604
28.94042,10.93838175500992,0.05765391269039457
28.945011999999995,10.990786265691721,0.05720820551427584
28.9496,11.041391907478227,0.056767967874306734
28.9542,11.095717471769468,0.056322494632378116
28.95878,11.146323113555974,0.05588744489731923
28.963372,11.195907136180686,0.05545933798073442
28.96796,11.239072932957715,0.05504186780170236
28.972548,11.283671044487605,0.05463830016367837
28.977144,11.321606560741523,0.05425223856604175
28.981732,11.353001666433615,0.05387827590446342
28.98632,11.37838924186909,0.053528307498699336
28.990915999999995,11.401977948409272,0.053179939699420455
28.995508,11.419925678835275,0.05284165136520483
29.000104,11.425281326994208,0.052508908044432076
29.004684,11.425240368467254,0.052177342228823365
29.009284,11.411341339083142,0.05186221645139323
29.013876,11.392700768032503,0.05155507333058255
29.018476,11.363922048629446,0.05125722964289056
29.023064,11.326437495626827,0.05097925573577173
29.027664,11.282412532062382,0.050709613849381975
29.032256,11.225717442965353,0.050471612608143264
29.036848,11.160683074411201,0.05024060704547599
29.041443999999995,11.084366753628688,0.05002458162869525
29.046036,10.99599123088432,0.04981995188670622
29.050636,10.897355375073388,0.04962581426804731
29.055232,10.789480805357686,0.04943753043817348
29.059828,10.67302258675657,0.049262975850160644
29.064424,10.540663058974712,0.049108380639417686
29.069012,10.40176312063103,0.048959288111750446
29.073596,10.253624468382576,0.04881654132945922
29.078188,10.096369286943498,0.04867561190367155
29.082776,9.931307706352507,0.04855252216471301
29.087368,9.762404018542636,0.048434243715300085
29.091964,9.59223434214268,0.04832381156396827
29.096556,9.416179320200253,0.04822709843975348
29.101144,9.240779363277184,0.04813476614132566
29.105736,9.058838995792286,0.04804693041777057
29.110323999999995,8.875877009145597,0.0479593484322873
29.114916,8.689072915280025,0.04787995080771196
29.119512,8.492785738081391,0.04781490686296312
29.124099999999995,8.294577507273317,0.0477547052600185
29.128696,8.094203853427508,0.04770554223624655
29.133284,7.89832737181994,0.04765278981415684
29.137872,7.707192431878903,0.04758237866858899
29.142468,7.5186336105666625,0.04751463256050253
29.14706,7.3307298542737795,0.047453889980613395
29.151656,7.149488693256867,0.04736981765619319
29.156236,6.972866889192341,0.04727856477064146
29.160836,6.798943388470758,0.04718207162632491
29.165424,6.63245973275865,0.0470676076750478
29.170024,6.470473249284781,0.04694715744164517
29.174612,6.309386200258559,0.046822655944959185
29.179196,6.149853650699342,0.046708745760918643
29.183792,5.992775035054778,0.04660597713180506
29.188388,5.841215210810245,0.0464917442589948
29.192976,5.691332070746862,0.04638025707493864
29.197568,5.5467233526552215,0.04627190485038858
29.20216,5.408410675697116,0.04615884939340102
29.206755999999995,5.2756167901390425,0.04603699206449987
29.211344,5.147975141838564,0.04593144610073382
29.215932,5.025974469652265,0.04580609395979523
29.22052,4.905650481647115,0.045686670744778834
29.22512,4.783161070604233,0.045591556481146656
29.229708,4.655441379038239,0.04554673532499443
29.234304,4.5267000683104515,0.045510941596159094
29.2389,4.4016786800874,0.04546103490710363
29.243488,4.273225880236531,0.045470389459654995
29.248088,4.148493002890399,0.04546576542655707
29.252668,4.02171688722068,0.04548063934705801
29.25726,3.895595836570317,0.045510735051923296
29.261856,3.767309362882222,0.04557942579226617
29.266435999999995,3.639800138927629,0.045666325913408384
29.271032,3.512413099687182,0.045745472411311924
29.27562,3.388213102646261,0.045760054134468466
29.280208,3.264912540052989,0.04576212528108606
29.284804,3.1387914894026263,0.045777921772833005
29.289396,3.012548254038118,0.0458128012900491
29.294,2.8777213697881967,0.04592315772061771
29.298588,2.744937723861862,0.045980719453870354
29.303184,2.615341120135054,0.04595933462073536
29.307772,2.4874212005893956,0.04594385639024092
29.312372,2.361422334653179,0.045908682581972525
29.31696,2.237711076468841,0.04576775627466379
29.321552,2.1207845982746205,0.045542160595241805
29.326148,2.007700227299282,0.045238262820800686
29.330744,1.891428814124418,0.04502665116883728
29.335336,1.7782222584349345,0.04270499884885839
29.339932,1.6657929524789528,0.04039991146590233
29.344536,1.5588824379230044,0.0380852922923025
29.349132,1.4549145961382906,0.035773505116737915
29.353728,1.355932665448399,0.03343421443835473
29.358328,1.2664338180915684,0.031080942425478666
29.362915999999995,1.1815543276871228,0.02873024100707411
29.367512,1.095042294550155,0.02643863590207951
29.3721,1.0109841953278398,0.024171553505138384
29.376688,0.9351431908485006,0.021893997967202265
29.381276,0.8657204122168422,0.019600773349824418
29.385868,0.8102778891564842,0.017243521792232458
29.390464,0.7589659841919285,0.014942992788375976
29.395056,0.7106408934472358,0.012706407918675059
29.399652,0.6646475519030498,0.01047836644537609
29.40424,0.6236842629023139,0.008264969074481671
29.408832,0.5907378406648912,0.0061404370782194885
29.413424,0.5633543512761292,0.004071925297605788
29.418012,0.5423110444695305,0.0020741704976364765
29.422608,0.5319387663205601,0.0
29.427188,0.5246754871055986,0.0
29.431776,0.5223200757199414,0.0
29.436368,0.5238509130017952,0.0
