Time,Force,Position
27.419204,0.006798553751756729,0.0
27.423804,0.006798553751756729,0.0
27.428396,0.005676432066318853,0.0
27.432996,0.004554310380880975,0.0
27.437584,0.004554310380880975,0.0
27.442184,0.0035543734095887704,0.0
27.446767999999995,0.002676621152442237,0.0
27.451356,0.0,0.0
27.455936,0.0,0.0
27.460532,0.0,0.0
27.465132,0.0,0.0
27.469728,0.0,0.0
27.474316,0.0,0.0
27.4789,0.00022268723779002493,0.0
27.483488,0.0023664280850214246,0.0
27.488076,0.002711300036957121,0.0
27.492668,0.002811802560601476,0.0
27.49726,0.0028118025606014762,0.0
27.501856,0.003933924246039352,0.0
27.506444,0.005056045931477229,0.0
27.511028,0.008509916817421647,0.0
27.51562,0.013806798047289919,0.0
27.520208,0.0207023201927907,0.0
27.524812,0.027275429644482617,0.0
27.5294,0.03622442974530923,0.0
27.533996,0.04730495106697919,0.0
27.538584,0.06104987391470334,0.0
27.543172,0.07799207859369252,0.0
27.547768,0.10189562905731193,0.0
27.55236,0.13832345815422253,0.0
27.556956,0.188707880637283,0.009766327036293411
27.561544,0.24842953955410843,0.019572337425989045
27.566144,0.31879856494341186,0.02938782786632923
27.570732,0.3986928351197553,0.039293645830275566
27.575332,0.4880465264440093,0.048997747747999615
27.579912,0.5902130072784741,0.05863157102476799
27.584512,0.7027383437084973,0.06826607699675816
27.5891,0.8300980257818169,0.07762226796861693
27.593696,0.9680045718039701,0.08695152928220415
27.598284,1.1173357340321035,0.09629707245544061
27.602879999999995,1.2790689901793824,0.10545380807479035
27.607476,1.450461895454235,0.11453781615408834
27.612076,1.6302043198179486,0.12359070639306298
27.616668,1.8221383704894059,0.13254096291114761
27.621256,2.0239322982681,0.14135913651966947
27.625844,2.235053222848821,0.1500723464491065
27.630428,2.4562342525164422,0.1586306444695963
27.63502,2.684366388336955,0.16710469198616013
27.639612,2.9130653062795693,0.175497116875209
27.644207999999995,3.1350472478658453,0.18378724849884964
27.648796,3.3446270955329758,0.18229192813856646
27.653392,3.5474458253951386,0.1807072790467151
27.657983999999995,3.741660427108411,0.1790523666655006
27.662576,3.9263714662251448,0.17728600429031127
27.66716,4.104321387536911,0.1756151779518103
27.671744,4.275998929900293,0.1739019313226863
27.676352,4.441770647457727,0.1720669415380446
27.68094,4.590476772695004,0.17053313707017656
27.685548,4.728369205297028,0.16895660659912168
27.690136,4.85605886883453,0.16726502929578912
27.694728,4.965372810013159,0.1657786062526385
27.69932,5.062607069966451,0.1642996088236492
27.703912,5.150093397894913,0.16277921161542444
27.708516,5.226810174636752,0.16127249687056175
27.713096,5.286749869935353,0.15992837323252035
27.717696,5.331056287666651,0.15869017948748015
27.722284,5.357319635364625,0.15764615395819806
27.726884,5.369259835534014,0.1566880341814433
27.731472,5.36667666019515,0.15587936126155139
27.73608,5.350269315816021,0.1552755489428867
27.740672,5.330953200482546,0.15462494815148844
27.745268,5.308728314194726,0.15392671068724467
27.749852,5.28106267977239,0.15328323171988995
27.754448,5.2525756541679245,0.15258481487998296
27.759036,5.214927957924205,0.1520281547710846
27.763628,5.1649325488417075,0.15171911754830508
27.768216,5.107086599158671,0.15155078551393172
27.772812,5.054226560570455,0.15123173023183475
27.777404,4.998179479782712,0.1510077889398084
27.781988,4.937434998777066,0.15095499464884707
27.786576,4.880698951153079,0.15084826414580324
27.791167999999995,4.820820002778191,0.15090636879492772
27.795756,4.761518076157143,0.15102768777987152
27.800336,4.702138106270578,0.1512033899694755
27.804932,4.654372740937918,0.1511923331155551
27.809512,4.6137689493695495,0.15115968024327317
27.814104,4.581714904869707,0.15104405430314327
27.8187,4.557721868581805,0.15088830037783135
27.82328,4.541667655791698,0.15070733278629078
27.827872,4.539315427327712,0.15034876300449404
27.832467999999995,4.536196188761962,0.15018823607391205
27.837056,4.53590767788504,0.15015079716179863
27.841656,4.544213055525269,0.15008840869848497
27.846248,4.557392399177915,0.15009050865035822
27.850852,4.580431619937798,0.1500174626244272
27.855432,4.619216063347387,0.14971031526903675
27.860032,4.666472210559983,0.14938883796640892
27.864624,4.71627057458449,0.1491707408084573
27.869216,4.770776578458638,0.14896103077595244
27.873804,4.836897186886691,0.14858937227981334
27.878396,4.908869239040325,0.148209426218025
27.882984,4.99449913407145,0.14762016715225693
27.88758,5.0819720394465,0.14705507866495168
27.892172,5.170144151289535,0.14655308767671046
27.89676,5.254884851504752,0.14619911584521575
27.90136,5.346165962281796,0.1457440968390752
27.905944,5.439778822259346,0.1452926185808247
27.910536,5.5363343550081305,0.14480442601807877
27.91512,5.639674667747033,0.14418975354156813
27.919712,5.741460481018931,0.14361540745922916
27.924308,5.855383539518207,0.14277888292338156
27.928899999999995,5.970816956035858,0.14189246793059493
27.933496,6.0855511660855255,0.14098455129064974
27.938088,6.1993418002389165,0.14006144428760126
27.942672,6.312433227924322,0.13912047929114194
27.947268,6.419184473027565,0.13825892097742146
27.951856,6.523926381624112,0.13735581544125566
27.956448,6.62551514983802,0.13644414879632838
27.961044,6.72959175378347,0.13543114601813547
27.965632,6.827694729289195,0.13446908720564668
27.970227999999995,6.919824076355191,0.1335394683052491
27.974816,7.001360438029076,0.13271527300043662
27.979416,7.080887463196263,0.13184264208866847
27.984012,7.160204020752048,0.13089914304137437
27.9886,7.232891884848751,0.12996600437501563
27.993196,7.29396514439155,0.12914771926709553
27.997776,7.34661084157997,0.12836492719426323
28.002376,7.386742499766838,0.12768691741380234
28.00696,7.418324410885181,0.12705583777360924
28.01156,7.448674235230328,0.1263795036491042
28.016148,7.468186704755074,0.125796227325203
28.020752,7.481070480820737,0.12521748019299636
28.025344,7.48695900928488,0.12466444980181161
28.02994,7.486873909309296,0.12411801673726174
28.034531999999995,7.477505953980315,0.12364047967051235
28.039128,7.464740488840406,0.12314600450340783
28.043724,7.449599133051361,0.1226189319438147
28.04832,7.4287726596995105,0.12211931022458804
28.052924,7.404304307108441,0.1216162608074655
28.057516,7.373251402506915,0.12114698201825896
28.062108,7.342154356456762,0.12063549966731386
28.066696,7.311912603405627,0.12007279626340807
28.071276,7.281015785335136,0.11950232633197214
28.075872,7.248442283083495,0.11893993325766045
28.08046,7.216890399993648,0.11835750744469418
28.085052,7.186360136065593,0.11775558228593595
28.089648,7.162248097985222,0.11708458543197345
28.094236,7.146353154647825,0.11632635731962578
28.098832,7.130502352759056,0.11560582564532614
28.10342,7.1081552817570905,0.11499652977904698
28.108012,7.087773405813194,0.11440227339316907
28.1126,7.072177212984456,0.11379106927671102
28.117187999999995,7.059978529966645,0.11319896831797858
28.121784,7.0517882803304905,0.1125917121833778
28.126372,7.052225821028379,0.11192273092334225
28.13096,7.0552836218036905,0.11127636751974848
28.135544,7.059573509352199,0.11069116351608678
28.140136,7.0684047105875765,0.11010436075013863
28.144728,7.072049772748466,0.10963790864207194
28.149315999999995,7.0825678977967295,0.10916793751124643
28.153916,7.092519240722893,0.10877398994509621
28.158504,7.103947039850545,0.10842774841447277
28.163104,7.117995099055622,0.10810781285116232
28.167692,7.13478560305227,0.10780732091933373
28.172291999999995,7.160081712668819,0.10746263469371768
28.176876,7.1879980823627925,0.10714362166054706
28.181468,7.215958593505393,0.10687133516900277
28.18606,7.242164377201326,0.10665642024557383
28.190656,7.272090083401997,0.10640813534448296
28.195244,7.310477253773933,0.10607740885390443
28.199836,7.348620054717579,0.10576229891572281
28.204424,7.387540105394728,0.1054524812212881
28.209008,7.429402828843113,0.10511350306069082
28.2136,7.472697867044356,0.10478573017570394
28.218188,7.516770154979099,0.10446677872594133
28.22278,7.567627222903964,0.10408708737880941
28.227356,7.618973029685409,0.10368663672891507
28.231952,7.675182562847531,0.103244044735727
28.23654,7.739442864589856,0.1027085928922976
28.241132,7.804191905188764,0.10215508298783213
28.245719999999995,7.871595107681988,0.10154894185930691
28.250304,7.93960923374594,0.10091876634572589
28.2549,8.006313229771179,0.10028229558987617
28.259488,8.071052030738347,0.09963319881922136
28.26408,8.127573736962539,0.0990501504218917
28.268676,8.18302968257631,0.09844576236103697
28.273264,8.233455575646627,0.09786127198106906
28.27786,8.28461457700182,0.09724493821317406
28.28244,8.333564013870655,0.09662839920926287
28.28704,8.376217409605953,0.09605567216693855
28.291628,8.417560675302537,0.09547188194308376
28.296228,8.455428387922675,0.09490734945503708
28.300808,8.488266047999366,0.09436112667728253
28.305408,8.519671393323195,0.09381269773145597
28.310004,8.544125632494135,0.09329692915725794
28.314596,8.555743419969712,0.09286592129861174
28.31918,8.562864035207053,0.0924600106082797
28.323768,8.561234675396202,0.09209329429348449
28.328356,8.559971869727791,0.0917133031660102
28.332948,8.553801196230074,0.09133928693153896
28.337536,8.547997076874791,0.09095024867722745
28.342124,8.541415707786012,0.0905614606846967
28.346712,8.534179273677871,0.09016657409674034
28.351312,8.527597904589088,0.08977874629152795
28.3559,8.523304143252183,0.08935973498556739
28.360496,8.519132566629423,0.08893555738937452
28.365088,8.518680912511403,0.0884893026952822
28.369668,8.518107073679236,0.08804993921476811
28.374264,8.521786037657016,0.08760395925174493
28.378852,8.530206543301327,0.0871284744165692
28.38344,8.543246405898023,0.08663072174456025
28.388036,8.557307887656512,0.08612423164621777
28.392624,8.57370111861551,0.08562264576264524
28.397216,8.587928926536772,0.08514549553282381
28.401812,8.605632287534482,0.0846584282880633
28.4064,8.63143055856102,0.08413651890538719
28.411004,8.662869805701739,0.08358326280293
28.415592,8.700360724547702,0.08301597417714797
28.420188,8.731599743708756,0.08251139182872592
28.424776,8.769789869022702,0.08199245368558986
28.429383999999995,8.807491255480066,0.08150015760693352
28.433972,8.844048838061493,0.08102471466487253
28.438572,8.881261485662275,0.08055912491309641
28.443159999999995,8.91949575242485,0.08008882619218907
28.44776,8.961982821997374,0.07961779539475149
28.452352,9.00692382548455,0.0791516724783525
28.456948,9.046101668143402,0.07872033849269466
28.46154,9.0887550638787,0.07828697739788543
28.466135999999995,9.12576748349982,0.07788604095219727
28.470732,9.157138927006763,0.07751518793539981
28.47532,9.184790448008966,0.07716484832356865
28.479908,9.21550682649655,0.07679457317300267
28.484504,9.248510812736013,0.07640257148016073
28.489092,9.283924591441497,0.07598209165581703
28.493687999999995,9.319582739575276,0.07555479382812957
28.498272,9.354585822689698,0.07512493198332931
28.502864,9.386646233032884,0.07471590332248526
28.507452,9.417152143909068,0.07430595981724504
28.512044,9.450967281698922,0.07386509190480614
28.516636,9.480407431964682,0.07343620900186844
28.521228,9.507271463601645,0.07301164881254203
28.52582,9.534257679952752,0.0725836731193588
28.530408,9.561610450446299,0.07214418417303281
28.535,9.587286536758695,0.07170718087914442
28.539596,9.606910951365847,0.07127907128031988
28.544184,9.62510305122014,0.0708444249290912
28.548796,9.651101550226345,0.07037074024869017
28.553384,9.669127323917865,0.06991286736745167
28.557972,9.687641836465966,0.06943673106743814
28.562567999999995,9.712818944290042,0.06893460061158518
28.567156,9.736074998504673,0.0684412813853604
28.57176,9.759741748310372,0.06796955958479296
28.576352,9.778422587021247,0.06752720062357583
28.580952,9.795060187408536,0.06709897418500506
28.585543999999995,9.811697787795824,0.06667290078888166
28.590144,9.829357007344907,0.06624415471094537
28.594732,9.849059465217577,0.06580505802732622
28.599332,9.866718684766658,0.06537927924247162
28.603912,9.884500089029888,0.06495134112802406
28.608504,9.90497979663606,0.0645213913184103
28.6131,9.930078861194616,0.06408217934451188
28.617696,9.957098979362613,0.06363803849903656
28.622284,9.984896347264113,0.06320004972400274
28.62688,10.015514203222702,0.06275688898291057
28.631476,10.049729796971885,0.06231035948641358
28.636076,10.086643694064009,0.0618646592476993
28.640668,10.122003091689129,0.06141832528804675
28.645268,10.166723387933164,0.060950958814034485
28.649847999999995,10.214919237253646,0.0604869615296328
28.654436,10.263237271288272,0.06002563624788723
28.659016,10.319483889188954,0.05953622411014984
28.663612,10.372377138727337,0.0590464923975774
28.668199999999995,10.430256299360543,0.05853822931976563
28.672788,10.491855382498485,0.05802580896276653
28.677388,10.551533412026988,0.0575219068928281
28.68198,10.604304476851226,0.0570458677393684
28.686572,10.656298291941962,0.05657072077092152
28.69116,10.711479149232224,0.056080067031547706
28.695751999999995,10.766537821808338,0.05559729060190532
28.700356,10.817099322146216,0.05512096107909241
28.704944,10.859443727741118,0.05465616361801983
28.709532,10.897046591669488,0.0542037018793641
28.714128,10.928109045036033,0.0537636352972794
28.718716,10.952508903126603,0.05334048627398984
28.723312,10.971389969817142,0.05292489976902717
28.727904,10.979766334012828,0.05253435538662915
28.732508,10.981890798523605,0.0521745122382016
28.737088,10.970812257196586,0.051840220009896146
28.741688,10.952293870860089,0.05151635609313769
28.746276,10.920328109257504,0.051223677072670504
28.750872,10.874792787674686,0.050966159853377366
28.755464,10.818752763597013,0.05072918106270203
28.760064,10.75449564477636,0.050495938464247055
28.764648,10.681899246498586,0.050270553002236366
28.769244,10.603661872106635,0.05005161294647726
28.773836,10.520927325476443,0.04983083748053257
28.778428,10.426666457189608,0.04963368654933387
28.78302,10.318836028922535,0.04946881908990295
28.787616,10.201400332608253,0.049323524997413576
28.7922,10.074114998818473,0.049206859447811
28.796788,9.940944319486224,0.049104954634963775
28.801376,9.802132664039798,0.04900940478323529
28.805964,9.660256151107989,0.048924871335501434
28.810548,9.511717042900209,0.048851890750352206
28.81514,9.358314208311752,0.04878897716211633
28.819732,9.199270397609116,0.04873527589554029
28.824324,9.033808361058801,0.048685768445581444
28.828904,8.865281467023106,0.04864990678820026
28.833496,8.689725423569001,0.04864491433156935
28.838084,8.514169380114897,0.048640354574407504
28.842688,8.335792848603703,0.048640826997303835
28.847276,8.161380609025537,0.048621624017297305
28.851884,7.981493719495966,0.04864479968186956
28.85648,7.794822049976278,0.04869002183674102
28.861068,7.609049814904238,0.048730636687074974
28.865656,7.421356526222755,0.04877745617350037
28.870248,7.240081463388955,0.04881724293881713
28.874844,7.06342575750754,0.0488532777185803
28.879432,6.886770051626124,0.04889065825242095
28.884032,6.714978072125384,0.04891110836679781
28.888612,6.546661645701091,0.04894041367600618
28.893212,6.377079230686713,0.04899366744803242
28.8978,6.210439488443569,0.04903038012900579
28.9024,6.047275299276871,0.049077160724023086
28.906984,5.88758666318662,0.04913023055287118
28.911576,5.735460056819987,0.0491597816549846
28.916164,5.586931188243945,0.04919024310398571
28.92076,5.442244426886787,0.04920586697817375
28.925364,5.302421391910303,0.049203720339447275
28.929956,5.167994963619708,0.04920102933049753
28.934548,5.037943522853206,0.04920879639257017
28.939132,4.908302777677771,0.0492479794110805
28.943712,4.78466956275895,0.04924494416007209
28.9483,4.670275061744899,0.04922185754543899
28.952891999999995,4.555514006588411,0.04922503362572461
28.957467999999995,4.4492144156031905,0.049191161473994965
28.96206,4.33817328295144,0.04917775859167418
28.966652,4.227132150299689,0.049164701854378115
28.971243999999995,4.118012071257379,0.049138246620293126
28.975832,4.009669241948572,0.04911961100972169
28.98042,3.9033696509633518,0.049078088565723
28.985016,3.799235483015864,0.049003049391758154
28.989604,3.6910148384212023,0.04897633218183679
28.994208,3.58393799770248,0.048923803671302946
28.998804,3.474040668926668,0.04888884572444714
29.003392,3.3609562979513306,0.04891157074587291
29.007988,3.249792980585434,0.04891633422127906
29.012584,3.1412057818483348,0.04893149925670756
29.01718,3.03364020227303,0.04892732378698112
29.021768,2.924397938516575,0.048902439017928234
29.026368,2.8133568058648244,0.048892510542440454
29.030948,2.7014162387654257,0.04890090670092498
29.035547999999995,2.585389195018853,0.0489998164691002
29.040132,2.4635989904439555,0.04919793301108374
29.044736,2.338088863364322,0.049505118659549464
29.04932,2.207348455761574,0.05003628856684263
29.053916,2.079550720930062,0.05057457812053591
29.058508,1.9555950933174322,0.04813229756689363
29.063099999999995,1.8324167154383046,0.04570169892086297
29.067692,1.7111593911686187,0.043269972133814665
29.072284,1.5908015013465802,0.04085155197336862
29.076875999999995,1.4805817598769595,0.03844715595819943
29.08146,1.376247363949809,0.03601049821203406
29.086048,1.271668598594367,0.03358889414659416
29.090636,1.1690108868483662,0.031148241373725453
29.095236,1.070317467035394,0.028667125056424506
29.099832,0.972279112241778,0.026202255555687025
29.104424,0.8752623766099557,0.02373508979471248
29.109012,0.7808217596069313,0.02128564158807035
29.113596,0.6924328143091505,0.018855929816120567
29.118176,0.6141820173637873,0.016399038127367885
29.122764,0.5422272615519593,0.013910890985548856
29.127372,0.47926685021660975,0.011352831317465081
29.13196,0.4295535861676866,0.008706100879278214
29.136555999999995,0.38859029716695065,0.005937038797272987
29.141144,0.3549446684615431,0.0029789575008235237
29.145732,0.3280057764807357,0.0
29.150328,0.30225482982449564,0.0
