Time,Force,Position
37.268204,0.12797392438229782,0.0
37.272792,0.10554244427146846,0.0
37.27738,0.08556489807529132,0.0
37.281984,0.06947360054662506,0.0
37.28658,0.062010093352000334,0.0
37.291176,0.06436232181598445,0.0
37.295756,0.07526429734849252,0.0
37.300356,0.09503843264333345,0.0
37.304936,0.12352667754885754,0.0
37.30954,0.15475736724595338,0.0
37.314132,0.19245042423935796,0.0
37.318728,0.2308426877007472,0.0
37.32332,0.27569731845844525,0.006717038428353611
37.327916,0.3255820017595933,0.013124545205559144
37.332512,0.3775540648329566,0.019572410759393245
37.337108,0.4316135076785351,0.026057518369093306
37.3417,0.486860895848681,0.03264418168362427
37.346284,0.5470161518481312,0.039028360741670126
37.350872,0.6051281695239945,0.04562468952537552
37.355456,0.662899258863186,0.0522210183090809
37.360044,0.7135970573353404,0.05924059771681406
37.36464,0.7616406939131792,0.06639842708550703
37.369232,0.8159803716245531,0.07333082749186201
37.373816,0.8673332351160639,0.08033299390970505
37.378412,0.9150442193683551,0.08724467083972191
37.383,0.96099023654224,0.09376459489936248
37.387592,0.9997746799518314,0.10025301622345825
37.392172,1.0307085827608837,0.1069834230051515
37.39676,1.0586556713500728,0.11366736659572554
37.401356,1.0803847620712443,0.12059299236292617
37.405944,1.0922981171338073,0.1277402305249774
37.410544,1.102324320403818,0.13478783495474775
37.415136,1.1009802885482156,0.13545033686878905
37.419724,1.094195508558098,0.1362755883191181
37.424332,1.0809483612716715,0.12982772276528398
37.428932,1.0650809539078194,0.12334261515558391
37.433524,1.0468376558948318,0.11675595184105296
37.438108,1.0176348183472967,0.1103717727830071
37.442708,0.9853229818657527,0.10377544399930172
37.447288,0.9552987531360873,0.09717911521559634
37.451888,0.9302604355012437,0.09015953580786316
37.456476,0.9015802386271805,0.08300170643917021
37.461068,0.86835872806625,0.07606930603281523
37.465652,0.8352594022194652,0.06906713961497218
37.470248,0.803059510820328,0.062155462684955316
37.474848,0.7671838383650821,0.055635538625314736
37.479444,0.7342949801296994,0.049147117301219005
37.48404,0.7050038596849079,0.04241671051952573
37.48864,0.6757127392401163,0.03573276692895169
37.493232,0.6546387135383012,0.028807141161751055
37.497824,0.6376953059322882,0.02165990299969982
37.502412,0.6216954742225514,0.014612298569929462
37.507004,0.6138346939902732,0.007232758227534563
37.511592,0.6039748168830363,0.0
37.516188,0.6019654803763386,0.0
37.52078,0.6012662739083539,0.0
37.525368,0.603309512231941,0.0
37.52996,0.615002160051363,0.0067444534051093125
37.53454,0.6364664020807657,0.013019930188602048
37.53912,0.6553986669299987,0.019404576570471784
37.543704,0.6761298006745274,0.02552168438643454
37.548292,0.7022575411049432,0.03139991199472018
37.552884,0.7284294229839873,0.03742259324062615
37.557476,0.7562779890441813,0.04338400396223753
37.562068,0.7817167626383513,0.04955317821408834
37.56666,0.8093209592702539,0.055610083857268726
37.571248,0.8377024056356589,0.06159302999472758
37.575844,0.8690265247722986,0.06731160981735007
37.580424,0.8999840897665012,0.07311619512835489
37.585024,0.9250563092182343,0.07906265951420408
37.589604,0.9511501478317609,0.08490051810939611
37.5942,0.979042855340583,0.09071914738738046
37.598796,1.0026827600394572,0.09663199953391709
37.603388,1.0304091413855057,0.10248254529679686
37.607968,1.0544156002268168,0.10841591634673096
37.612564,1.0791993088016303,0.11432828076965296
37.617152,1.1030835829287957,0.1202705893022602
37.621748,1.127989476217755,0.11919516161997025
37.626336,1.149708327307188,0.11861183479968739
37.630924,1.1711828089683296,0.11806506133873984
37.635512,1.1904918675917382,0.11781378362024195
37.640092,1.2066138840156206,0.117911145465767
37.644688,1.2284990612678277,0.11760385864790458
37.649272,1.250917118825245,0.11737806099541462
37.653868,1.276155664439752,0.11693153037975972
37.658456,1.3018049056453238,0.11661658658676416
37.66304,1.325288723813163,0.11650369813578598
37.667628,1.3437866308861806,0.11679406867621808
37.672216,1.3629396029785543,0.11708760870078114
37.67682,1.3840136286803693,0.11722924600347975
37.681408,1.404843284953893,0.11746002915444727
37.685996,1.4269389298175017,0.11755904739041324
37.690592,1.448012955519317,0.11770538933335342
37.69518,1.4680653620593387,0.11793610966696368
37.699776,1.4900388222088017,0.11803465531155606
37.704372,1.5085367292818193,0.11826651874555796
37.708968,1.5263795713354802,0.11846843806987463
37.713556,1.5347393300560797,0.11926631322282524
37.718156,1.541011709004464,0.12002085072532227
37.722744,1.546995577075929,0.12064380473867559
37.727344,1.5542454337374787,0.12110927406695518
37.731932,1.5648045173127003,0.12126638584742888
37.736532,1.5664914411255888,0.12182714927702504
37.741128,1.565968800452117,0.12237995334377727
37.745724,1.5614377263969883,0.12301949762509112
37.750316,1.552898218960203,0.12375557663798961
37.754912,1.5453361892365833,0.12421663403720505
37.7595,1.539162332817194,0.12450238484828915
37.764096,1.53396595411097,0.1245077323941265
37.768684,1.5310571831566244,0.12428839125181114
37.77328,1.5270826515918572,0.123955362574773
37.777868,1.5157904597317615,0.12398432639961376
37.782456,1.5087069292329858,0.12368123123493266
37.787044,1.500557638123788,0.12326009753423156
37.79164,1.4910982169758775,0.12278625720188281
37.796232,1.482782599703906,0.12220510733792996
37.800812,1.4747113518602262,0.12155574765487138
37.805408,1.4706043959495745,0.12062249405614062
37.81,1.4652314514488376,0.11982557228435893
37.814592,1.4628011797193363,0.11882966246282113
37.81918,1.4548521165898016,0.11812442145706746
37.823764,1.4429387615272387,0.11769771059682813
37.828364,1.4362998284364172,0.11704161281348668
37.832948,1.4323591986885396,0.1162568703023753
37.837536,1.434592425360051,0.11521614578238028
37.842132,1.440423389822154,0.1139926488593538
37.84672,1.4447439962658808,0.1129829971711724
37.851324,1.4490646027096072,0.11197708853102781
37.855904,1.4519970358491034,0.1111624081836167
37.8605,1.451620242074928,0.11064788870967052
37.865092,1.44961090556823,0.11036931248336893
37.869688,1.4567180982521566,0.10967239382179927
37.87428,1.460516064022411,0.10926259670427022
37.878884,1.4675452134408202,0.10881853080260694
37.883476,1.47343055898329,0.10847774165607718
37.888072,1.4818920231545578,0.1080693010888311
37.892656,1.4913751064876188,0.10761022614297999
37.897252,1.50085818982068,0.10714154751180222
37.90184,1.5134061306391218,0.10646897767159595
37.906436,1.5248102675816242,0.1059246153724572
37.911024,1.5409559461906575,0.10513553829803192
37.915624,1.5565687444944798,0.10426175916225168
37.920212,1.5696054241695039,0.1034714576691803
37.9248,1.5816204846827349,0.10277125297435863
37.929376,1.5891383729577266,0.10225053933632067
37.933972,1.5937135884614835,0.10188009439085585
37.938564,1.601353661450621,0.101330457847702
37.94316,1.6089937344397585,0.10078465479845725
37.947748,1.6158565576953936,0.10023553957157122
37.952336,1.6194881973028743,0.09969806412939124
37.956928,1.6232420216245007,0.09911677861705215
37.96152,1.62159923926024,0.09874064444727469
37.9661,1.6231434990955054,0.09815035340516577
37.970696,1.6181473483689446,0.09783529481710024
37.975284,1.6157273162711818,0.09746033737636992
37.979872,1.6107311655446208,0.09714547584033248
37.984468,1.6014041687425946,0.09713830605399591
37.989056,1.5960414638735971,0.09691311329782204
37.993648,1.5912116393098101,0.09674992831913322
37.998236,1.5844607611365817,0.09667170328045191
38.002836,1.5782427632685643,0.09665148756499269
38.007416,1.5744786993151991,0.09660861202438076
38.012016,1.5712475156670447,0.09662854348020146
38.016604,1.566461832551886,0.09664183918036717
38.021204,1.563475018332023,0.09660038726382332
38.025796,1.563430876883395,0.09641957839049634
38.030392,1.558400824339945,0.09649258395618379
38.034976,1.5542702062441427,0.0965359353869564
38.039572,1.5547589451007253,0.09642037256941259
38.044168,1.558601052319608,0.09625648333267357
38.048756,1.5664074514715192,0.09590657937823073
38.053344,1.57421385062343,0.0955536554216983
38.057932,1.579199761718252,0.09531296946218136
38.06252,1.5898266489272526,0.09485528285407623
38.067104,1.5997984711168967,0.09438100168999232
38.071696,1.6104253583258972,0.09393623563483483
38.076292,1.6288586446868085,0.09315310485498475
38.080884,1.6460259424576351,0.09252314156544478
38.085472,1.6586960679902227,0.09199870510031428
38.090064,1.67136619352281,0.0914649759625841
38.094652,1.6844028731978342,0.09086834005175594
38.099244,1.6966623031393566,0.0902738388404124
38.10384,1.7104320910992548,0.08952682819105066
38.108428,1.7248569440785098,0.08881274194863024
38.113024,1.7391596123436193,0.08813977061900813
38.117604,1.7553833342181697,0.08742812048266788
38.1222,1.7756935327398946,0.08651349475043743
38.126796,1.7972697198517047,0.08553870676654972
38.131388,1.8120611269733966,0.08481203103165677
38.135984,1.8290179571328216,0.08398351753230181
38.140564,1.8412332456257154,0.0833083628913063
38.145164,1.8551252182997595,0.08262513566982979
38.149752,1.8728592981926866,0.08184176206857843
38.154352,1.8905933780856132,0.08108532750139527
38.158936,1.9061620349408075,0.08043750439721985
38.163536,1.927860406766763,0.0795927264958796
38.16812,1.9421189335832443,0.07892689452886434
38.172716,1.9545785915044296,0.07829674262352905
38.177304,1.9749668332916719,0.07743776426525101
38.1819,2.001118235907238,0.07646197840686816
38.1865,2.02432696575157,0.07558199058799994
38.191092,2.0484351300435497,0.0747008863554014
38.19568,2.070377871297796,0.07391910694675077
38.200268,2.0952632853232775,0.07307871015152397
38.204856,2.1194936343294026,0.07221738371759633
38.20944,2.140126245544936,0.07141966517681479
38.214036,2.161536106493972,0.07065301105529552
38.218636,2.1795145558151905,0.07004787482661175
38.223228,2.199658428174142,0.06934435751608369
38.227816,2.2180034316377966,0.06867664541143599
38.232416,2.237492238977391,0.06795103250067508
38.237004,2.256203796583484,0.06722005668397506
38.2416,2.269929443094754,0.06662453538852077
38.246188,2.2799351671012875,0.06608578916084838
38.250776,2.292883563879055,0.06548304199093416
38.25538,2.296226692609616,0.06507345048974124
38.259968,2.302390309397267,0.06461488444780705
38.26458,2.3059778075561197,0.06415418472057688
38.269172,2.3024139715824177,0.06389537013279735
38.273772,2.2910437364568046,0.06379635899342413
38.278364,2.280939489921276,0.06362701986452207
38.282956,2.2699358089381,0.06346319017708871
38.287552,2.2618748007261584,0.063238574369972
38.292132,2.2480506316858926,0.0631116604637991
38.296724,2.233082658769688,0.06302846108230184
38.301316,2.2215902389299296,0.06293675201436513
38.305916,2.2121410574137577,0.06279280224778375
38.310496,2.2028140606117317,0.06263106846427711
38.315096,2.197084801600297,0.062446742565081995
38.31968,2.1950754650935997,0.06222437782966446
38.324268,2.1965416816633474,0.062003139788457215
38.328856,2.1998067671283907,0.06177508174547166
38.333452,2.205115090917022,0.06149915215175357
38.338048,2.212344468315094,0.061193675055841924
38.342636,2.214055054313133,0.060932512761718564
38.347228,2.2175645092064684,0.060655334744941516
38.351812,2.2210739640998036,0.06037904596823028
38.356392,2.2271595376219366,0.06010489087681503
38.36098,2.2365543380577417,0.05971917090825182
38.365576,2.2500356151407206,0.05923208174718804
38.370168,2.2650713916907037,0.05878490097052954
38.374764,2.2810066026883353,0.05833851461373816
38.379352,2.293999140914732,0.05794803285323878
38.383948,2.310955971074156,0.05748091727253192
38.388536,2.3308554740048155,0.05696882367003025
38.393124,2.3442145663736484,0.05652108639030279
38.39772,2.3507888787523648,0.05618014430332713
38.4023,2.35683031082587,0.05578143718464072
38.406892,2.3592740051087833,0.055401140693617595
38.411484,2.353011865792137,0.0551444611498856
38.416076,2.342374738951398,0.054883379059683074
38.42068,2.3292836781960067,0.054590385935348824
38.42528,2.314271563831174,0.054318447155864195
38.429884,2.3031015566852235,0.0540000428015199
38.434468,2.2965509064916585,0.053647860283929906
38.439076,2.2947417979646247,0.05324885452420438
38.443656,2.294975927761177,0.05281289688493348
38.44826,2.2963538614336687,0.05234094429029477
38.452848,2.295566372068428,0.051927532431878594
38.457452,2.2899151563225106,0.05157128044888266
38.462044,2.277723530014767,0.05125724545157771
38.466632,2.2657762731353146,0.05090539504974901
38.471228,2.253951200970008,0.050531509306419906
38.475824,2.241104509642908,0.050175865152132154
38.480416,2.221350853611545,0.0499155836255484
38.485004,2.206338739246712,0.04961072586253496
38.489592,2.1915709943101707,0.049259819839640256
38.494184,2.1783577488406336,0.04894159872872968
38.498772,2.1661661225328896,0.048599107025150315
38.503364,2.1605149067869722,0.048210256814399055
38.507952,2.1553965713462664,0.04787555841461156
38.512552,2.1478684434395356,0.04763756418728584
38.517136,2.145081857199336,0.04735706394463767
38.52172,2.1346110565213707,0.04715861359044901
38.526316,2.1223413869481096,0.04695836935947476
38.530904,2.1022653182229374,0.04686019401602224
38.535496,2.0790022072982395,0.04683996516587165
38.540084,2.052796423602306,0.046855523703943205
38.544672,2.023770151849283,0.04689497592216272
38.549268,1.998830356743435,0.04684442558113523
38.553856,1.977488299428178,0.04679837887439735
38.558448,1.9519375807516008,0.04685938213500037
38.56304,1.9233220045896435,0.046993620456995476
38.56764,1.890864321208803,0.047178187020877824
38.572244,1.8653136025322266,0.047249382279842204
38.576832,1.838741264693856,0.04734038577414139
38.581424,1.8148672301984292,0.047426244136350125
38.586012,1.7921369995789416,0.04745878829774477
38.590612,1.7691623995311627,0.04753227979864059
38.595188,1.7419349966734359,0.04754776807177056
38.599788,1.7120092904727653,0.04756790487334346
38.60438,1.683105203433888,0.04757638267264162
38.60898,1.6463947172431004,0.047716321797024695
38.613564,1.6116052846617537,0.047839887913393817
38.61816,1.576815852080407,0.04795292297694418
38.622752,1.5480339497556757,0.04793828579866349
38.627344,1.5185969824115881,0.04786669476513294
38.631932,1.4910810686769416,0.04776218622071163
38.636528,1.469450500484765,0.0475412917808315
38.641116,1.4502738662072405,0.0473703857102107
38.645704,1.4333848396815945,0.04708924094690217
38.650288,1.412898075365357,0.04679275700728928
38.654888,1.3944545493727067,0.04643441509979638
38.659476,1.3789536961512912,0.04600640776236377
38.664072,1.358711301263345,0.0456194254457495
38.668668,1.333849549423014,0.045241881059442185
38.673256,1.3079661784208894,0.044885510589933404
38.677848,1.2781185154857366,0.04460550287218872
38.682436,1.2416082572746117,0.044423687293439526
38.687028,1.2094729865875802,0.044260192133070364
38.691616,1.184000311176521,0.0440001314280542
38.696196,1.158772005193753,0.04365421539549559
38.700784,1.1378745452864505,0.04307192893054581
38.70538,1.1163220203597914,0.04235903026949727
38.709968,1.0965683643284283,0.041646057373825714
38.71456,1.0719509819163886,0.03929441324006458
38.71914,1.0459454262001184,0.03697738488684973
38.723736,1.0168750129984676,0.034693481611671295
38.728324,0.9826965039878494,0.03250227419646922
