Time,Force,Position
29.528676,0.03956458926916474,0.0
29.533268,0.060284078301865975,0.0
29.537868,0.08030258302499824,0.0
29.542448,0.10388670156341685,0.0
29.547044,0.13016912344477902,0.0
29.551636,0.15816035348259627,0.0
29.55624,0.19200480508757825,0.0
29.560832,0.22290658392132534,0.0
29.565424,0.25368617804092675,0.0
29.57002,0.28458795687467386,0.0
29.574612,0.3165113548702144,0.0
29.579204,0.34639151454216804,0.0
29.583792,0.378192727823563,0.0
29.588396,0.4098276149421841,0.0
29.592976,0.44080743704144876,0.0
29.59758,0.47317543244494387,0.0
29.602172,0.5046997795612468,0.0
29.606756,0.5314384435623911,0.0
29.611344,0.5550239671808984,0.0
29.615936,0.5663839626747729,0.0
29.620528,0.5701377869963993,0.0
29.62512,0.5673070593075713,0.0
29.629712,0.5627996474375931,0.0
29.634312,0.554938867205315,0.0
29.638891999999995,0.5440132294876564,0.0
29.64348,0.5305114731411998,0.0
29.648068,0.5112465559664192,0.0
29.652664,0.4996658532294041,0.0
29.657256,0.4927045074447739,0.0
29.661848,0.48615385725120874,0.0
29.66644,0.48373382515344593,0.0
29.671028,0.4849115308462745,0.0
29.675624,0.4799595215683419,0.0
29.680212,0.47456291488245467,0.0
29.6848,0.4702320688069893,0.0
29.689391999999994,0.4669669833419455,0.0
29.69398,0.4586379435165624,0.0
29.69858,0.45677127098748793,0.0
29.703172,0.46046753130707435,0.0
29.707764,0.472913766674848,0.0
29.712368,0.49039005458607177,0.0
29.716956,0.5137958294883935,0.005623965415279086
29.721552,0.5409215268954523,0.011106268377615573
29.726132,0.5679250395883654,0.016769078835826467
29.730732,0.5942734872619219,0.022562023094530273
29.73532,0.6218098802600459,0.02852065058522553
29.739919999999994,0.646037046344498,0.028520650585225526
29.744504,0.6642566821723345,0.02852065058522553
29.749104,0.6769575266001382,0.02852065058522553
29.753695999999994,0.6929675979416141,0.02852065058522553
29.758292,0.7029259975778464,0.02852065058522553
29.76288,0.7083872249758391,0.02852065058522553
29.767468,0.7215326668115974,0.02852065058522553
29.772072,0.7343895977704362,0.02852065058522553
29.776664,0.7468358331382097,0.02852065058522553
29.781256,0.7547848962677441,0.02852065058522553
29.78584,0.7671869901868896,0.02852065058522553
29.790432,0.7773795196196742,0.02852065058522553
29.79502,0.7840964959760132,0.028520650585225533
29.799608,0.7922016456365826,0.034982048313498826
29.804203999999995,0.7937663847353257,0.034982048313498826
29.808799999999994,0.7919777554717687,0.029358082898219735
29.81338,0.7847925195223248,0.02387577993588325
29.817976,0.7823488252394114,0.018212969477672352
29.822555999999995,0.7845244879088831,0.01895091917403952
29.827136,0.7860450855589979,0.01964225049354214
29.831744,0.7943504631992307,0.026023035885928265
29.836336,0.8058428830389897,0.032205137920905846
29.840927999999995,0.8188898023457527,0.038473244582570294
29.845516,0.8260513761100461,0.04499578262703864
29.850104,0.8337458301795505,0.05168352267406179
29.854703999999995,0.8482250642391723,0.057966083012880074
29.859292,0.863193037155377,0.0638542991685749
29.863888,0.8836798014716143,0.06943687517355622
29.868476,0.9062098041114387,0.07484597376840336
29.873076,0.9337257178460852,0.08005306066861914
29.877664,0.960220012418938,0.08529794744070884
29.882264,0.9868364917059366,0.09046645562607748
29.886856,1.0126757212594328,0.09567354252629325
29.89146,1.0354500933275486,0.09441786042806476
29.896052,1.0643541803664256,0.09940605154775883
29.900648,1.0895383449005653,0.10457548136668447
29.905231999999994,1.119464051101236,0.1096335936206774
29.909828,1.1460363889396061,0.1146193756384401
29.914416,1.1663126856444417,0.11318305567782251
29.919012,1.1869555364917141,0.11158998704997408
29.923592,1.2046115731191236,0.11011677839786116
29.928176,1.2196914911177352,0.10880259453000597
29.932768,1.2306407910205444,0.10754918442948268
29.937356,1.2409350259039973,0.10616341442697395
29.941944,1.249919130748737,0.10465692646189664
29.946539999999995,1.252895705336861,0.1037835660928345
29.951132,1.2490874999348676,0.10351143395544182
29.955711999999995,1.240782122294635,0.10349645956994094
29.960312,1.233131809673759,0.10349656094484994
29.9649,1.2184523476344735,0.10411305205974244
29.969484,1.2047945047569821,0.10463109616166126
29.97408,1.1937127805082886,0.10500299005571767
29.97866,1.1861066093360406,0.1052309791321364
29.983272,1.1756799501067032,0.10564951451284878
29.987852,1.161699694535403,0.10646834289997184
29.99244,1.155037099259431,0.1068946364661265
29.997036,1.147108515393374,0.10746789450741612
30.001636,1.139346257690091,0.10823268865458203
30.006228,1.1377578564061972,0.108735971442302
30.010808,1.1358029009798665,0.1093566430876985
30.015408,1.1347915214498119,0.11015145628819903
30.019995999999995,1.1365225867113287,0.11104013754594158
30.024596,1.146470746715822,0.1115322278630977
30.02918,1.1625927631397044,0.11178447175763614
30.03378,1.1829675823735353,0.11191891858840958
30.038372,1.2083283127021875,0.11169534591922775
30.042968,1.2361429769454924,0.11135733363623741
30.047552,1.2616700334369186,0.11123072725292364
30.052148,1.2833549827094624,0.11136383475923338
30.056752,1.3138679502957102,0.11084513342546029
30.061343999999995,1.3452803523296064,0.11032348817902374
30.065936,1.3702745285158215,0.11015172698825076
30.07052,1.392692586073239,0.1100852919002683
30.075112,1.4181755011160369,0.10976591757084628
30.079695999999995,1.4442693397295634,0.10923337386418783
30.084284,1.4630455180477613,0.10907864571527423
30.088876,1.4784683280036595,0.10899903311615762
30.093471999999995,1.4948686156727227,0.1086313489715095
30.09806,1.5061166660841905,0.10845580638760853
30.102648,1.5216955625711235,0.10793450771269161
30.107228,1.536208698447635,0.10729524817666583
30.11182,1.5452810861896311,0.1066651532140257
30.116404,1.550877920855181,0.10618882131433353
30.120988,1.5513225182631356,0.10586144185128804
30.125584,1.5467370631276403,0.10564001730562585
30.13018,1.5384316854874076,0.10558279317638543
30.134768,1.5327804697414902,0.10523378096698958
30.139364,1.5305606656233905,0.10459471608032882
30.143956,1.5288296003618733,0.10381900985544726
30.148556,1.520802493966822,0.10327374958217317
30.153136,1.5104436383712634,0.10272219140525612
30.157736,1.501228586651644,0.10206818795782478
30.162328,1.491358469912668,0.10137578668200571
30.166927999999995,1.4796894842783967,0.10074245030074061
30.171516,1.4662216297488297,0.10016512497048145
30.176116,1.4585169360475863,0.09929274792192067
30.180703999999995,1.456697587888813,0.09809813917857985
30.185299999999994,1.4515690128163679,0.09715559880227564
30.189888,1.4493831105151576,0.09604990361065285
30.194484,1.4402902435096838,0.09531927518199589
30.199072,1.4299313879141256,0.09470862021492854
30.203668,1.424969139004454,0.09391477692208156
30.208255999999995,1.4171864020376939,0.09323381316655772
30.212844,1.4112025339662289,0.09248758913007257
30.217436,1.4077947845235619,0.09167476196312849
30.22202,1.4046314045091863,0.09078429746623709
30.226612,1.3964821133999887,0.09016931576283888
30.231208,1.385023595377119,0.08980975940664451
30.235804,1.374220142373606,0.08948553214877177
30.240392,1.364849004122952,0.08920547205171923
30.244992,1.3520464542444801,0.08924135166090771
30.249572,1.3409205885471582,0.08925232127953041
30.254168,1.3296725381356906,0.08929680344684421
30.258764,1.3184244877242228,0.08934096753885298
30.263352,1.309874740655699,0.08928329542465713
30.267948,1.2994039399777337,0.08931378785502012
30.272536,1.2875449659955378,0.08949025530881496
30.277124,1.2806719031081641,0.08938158935540433
30.28172,1.2726550363448508,0.08936004340647768
30.286307999999995,1.2693797112480683,0.0891419668074702
30.290908,1.266881635884788,0.08893242341543696
30.295504,1.2651608102550096,0.08873580258812719
30.3001,1.2649944840922358,0.08855619595433861
30.30468,1.2666270268247577,0.08833221104653764
30.30928,1.2699362537384296,0.08809980524162858
30.313872,1.27467779540496,0.08792207036987712
30.318476,1.2848159437573776,0.08760867580642737
30.323064,1.2999400032046173,0.08705325942447652
30.327663999999995,1.3178845507089463,0.08642026101391373
30.332259999999994,1.3368507173750686,0.08573460503834618
30.336856,1.3609249798501588,0.08473333871211847
30.341439999999995,1.389862968705925,0.08358743578469667
30.346028,1.419456022581048,0.08247188289872359
30.350616,1.4507257606373205,0.0813491245857562
30.355208,1.4848159867506827,0.08020784806710907
30.359796,1.5205828970451947,0.079085992958799
30.364384,1.5516082656731762,0.07811009672292389
30.368968,1.5757266695968943,0.07743472253491131
30.37356,1.5993563346640296,0.07687321208087391
30.378156,1.6211871308358696,0.07637339416652651
30.382748,1.6453055347595877,0.0757364202316795
30.38734,1.6657040161785686,0.07521858567435144
30.391916,1.6864690517399865,0.07461645691126725
30.396512,1.7072340873014047,0.0740450115202055
30.401096,1.7232575811962922,0.0736011390191752
30.405684,1.7405470636812648,0.0730721283151222
30.41028,1.7551382428232936,0.07260263815469226
30.414867999999995,1.7658873147464398,0.07225831528331075
30.419471999999995,1.7720170297172009,0.07201516582328106
30.424056,1.7755706260591644,0.07178590192712694
30.428643999999995,1.779002037686982,0.07158825502057645
30.43324,1.7746270501628885,0.07162500548414615
30.437828,1.7713958665147338,0.07159686165522328
30.442436,1.767143063704786,0.07160741207867906
30.447023999999995,1.7553282311712182,0.07179407931591185
30.451624,1.7427361489041484,0.0719600494445829
30.456212,1.7333311088366044,0.07199083141088228
30.460816,1.7277681759879435,0.07192302204537344
30.465404,1.7246150356053067,0.07169928197958511
30.469999999999995,1.7213397105085244,0.07150136430666518
30.474595999999995,1.7129562896027744,0.0714970920865267
30.479188,1.7025296303734374,0.07157934873289332
30.483775999999995,1.6957007089346912,0.07160009504372906
30.488368,1.6869507338865042,0.0716686190426686
30.492956,1.684330473809078,0.07150925644252454
30.497551999999995,1.677990291226915,0.0714198262007129
30.502144,1.6700956091777475,0.07129911689777768
30.506728,1.6632225462903734,0.07113997647374598
30.511316,1.6563494834029993,0.07097929076077297
30.515903999999995,1.6539735927538646,0.07076088130938797
30.520496,1.6532743862858799,0.07055064265818624
30.525088,1.6566616564650691,0.07019046086870759
30.529679999999995,1.6609483610919065,0.0698276469357621
30.534272,1.6654794351470354,0.06941373523651484
30.538864,1.675773670030488,0.06885475519030342
30.543452,1.6845134054469362,0.06827234982743927
30.548044,1.6958292594921829,0.06770225880723163
30.552627999999995,1.7091883518610163,0.06707502927530459
30.557208,1.7187053370109668,0.06653728364645592
30.561796,1.7283445068750631,0.06597646151457866
30.566392,1.7390052959009528,0.06535808022866006
30.570984,1.7556736151834582,0.0645558673399465
30.575575999999995,1.7655571544758457,0.0639271268297131
30.580156,1.7755628784823787,0.06327490584009657
30.584755999999995,1.7841804291846814,0.06275508353509618
30.589344,1.7972951521252234,0.06220228117672838
30.593944,1.8138854281422108,0.06164998420102575
30.598524,1.8343178113780814,0.06104570685654603
30.603124,1.8574484979568955,0.06041607832970389
30.60772,1.8781252506210573,0.059783956950447276
30.612312,1.8964702540847125,0.05912023599283233
30.616896,1.911872584777133,0.058521154267068914
30.621492,1.9235549929648161,0.05796875047964327
30.62608,1.9352374011524995,0.05741987338559986
30.630676,1.9448765710165958,0.05693469206679851
30.635264,1.9539048173099638,0.05655939466330041
30.639852,1.961134194708036,0.056202790891343495
30.64444,1.9645214648872256,0.055908110004179834
30.64902,1.9717508422852976,0.05555569230190084
30.653616,1.9789802196833697,0.055205353547589694
30.658208,1.9910733234621183,0.05477477037764643
30.662804,1.9966260166790404,0.054413719967195816
30.667392,2.006143001828991,0.053969135564620484
30.671984,2.013861118083646,0.05352900579573384
30.676572,2.0181036812618545,0.05307949693957881
30.681164,2.016827453040031,0.052669201561353914
30.68576,2.0118313023134706,0.05229121000294747
30.690348,2.0000503715967923,0.05201776540055778
30.69494,1.989657614184344,0.05165504597820921
30.699532,1.9769772490200181,0.05137739406839639
30.704116,1.963030895265607,0.051161486340359524
30.708716,1.9538260831777265,0.050895009519900114
30.713308,1.9465423246992875,0.05060149710390959
30.717904,1.9392585662208484,0.050306723630028666
30.72248,1.932996426904203,0.04999036604656522
30.72708,1.9286553411969987,0.04965178075361369
30.731672,1.9195727138232637,0.049357663765839256
30.736272,1.9115117056113224,0.0490354266716718
30.74086,1.900752394056437,0.04871325464307743
30.74546,1.8890936480539047,0.0483877591156667
30.750044,1.875636033156076,0.04806351444224549
30.754632,1.868352274677637,0.047759733514289165
30.75922,1.8562047898185214,0.04751772241435174
30.763808,1.8456118044264103,0.04731803387072999
30.7684,1.8357960687678017,0.047136976356334785
30.772992,1.8295780708997842,0.04695477407102039
30.77758,1.8261805610888564,0.04674900019431799
30.782167999999995,1.823804670439722,0.046515113145679465
30.786748,1.8152990648198255,0.0464175305786335
30.791344,1.8058940247522823,0.046319412921738565
30.795936,1.796366799970593,0.04624608346662633
30.800524,1.7810764143605797,0.04624444723050842
30.805124,1.762965540693477,0.046264872504690524
30.809704,1.7439552325787264,0.046279427500009525
30.8143,1.7221244364068866,0.04631461144087132
30.818891999999995,1.694241968529803,0.046293036405284184
30.82348,1.6732664653569829,0.04613534773793606
30.828088,1.6531903966318107,0.04597170044194816
30.832676,1.6298051009929664,0.04593608801312365
30.837264,1.6061754359258307,0.04595453285653778
30.84186,1.5756388061544322,0.04611213979378147
30.846452,1.5386839505353525,0.04630119596328143
30.851047999999995,1.5069593754393869,0.04630453534631498
30.855636,1.4747019200382099,0.04620962900154667
30.860232,1.4425666493511786,0.04607575537704699
30.86482,1.40503477197826,0.045920155389729995
30.869412,1.3637829721006047,0.04577236405837428
30.874004,1.3233084219564513,0.04566497164326708
30.878608,1.2867981637453263,0.04547089230200431
30.883195999999995,1.2513095246959949,0.045243292779155134
30.887788,1.2169646895226027,0.04494615814839794
30.892384,1.1844187232445063,0.04466209850890798
30.89698,1.1545710603093535,0.04437839669051865
30.901568,1.12165853988882,0.04419655419197496
30.90616,1.086824965858845,0.04183702012530003
30.910752,1.0602084865718464,0.041634713928914206
30.915348,1.0237423698093497,0.039424712239157084
30.919936,0.985233014723266,0.037244004911358854
30.92452,0.9518317554461498,0.03498213016200817
30.929108,0.9157321928260901,0.032690519194295976
30.9337,0.8866617796244393,0.030304435495673545
30.938288,0.8595124200322298,0.027881961122187437
30.94288,0.830075452688142,0.02560545561485581
30.947476,0.799494681468115,0.023403899124704794
30.952064,0.7678922910862946,0.02124235513072551
30.956664,0.73976545378092,0.01910149228312318
30.961252,0.713437485370841,0.016974862229587554
30.965844,0.6882533208367012,0.014810369324255146
30.97044,0.6610259179789744,0.012688838772008538
30.975031999999995,0.6355973840165432,0.010578102252920161
30.97964,0.6063267428352292,0.008511739848577952
30.984228,0.5735805485774697,0.006406721463896019
