Time,Force,Position
29.70488799999999,1.3163754024810719,0.02952924219440922
29.70949199999999,1.1878445593646854,0.027242495966161465
29.714080000000003,1.0621783457540162,0.02500956238846855
29.71868,0.9471831608009753,0.02275781898189672
29.72327599999999,0.8391829630085853,0.020499131002516876
29.727872,0.7376009910638759,0.01822870801815327
29.732464,0.6433366794144949,0.015946067352777336
29.737064,0.5577004185400247,0.01369534427264163
29.741668,0.48134701301895233,0.01148134988053577
29.74625199999999,0.41386576726021296,0.009253328164416864
29.750852,0.3497378898637736,0.007038305839446953
29.755447999999998,0.29754702971504765,0.004785162187485096
29.760035999999992,0.2588476862810393,0.002435757350999759
29.764632,0.2304528173622227,0.0
29.76922,0.2077872074548408,0.0
29.773807999999995,0.1974693103862375,0.0
29.778395999999997,0.19655645338517788,0.0
29.782983999999992,0.20259470253700967,0.0
29.78758,0.21378518894643725,0.0
29.792163999999996,0.2355245192993477,0.0
29.79676,0.267812693595741,0.0
29.801340000000003,0.30374274713135385,0.006387012842563089
29.80593199999999,0.3448250379245626,0.012822155123048566
29.810528,0.39256992399374324,0.01882050649197295
29.81512,0.4474664046363476,0.02460343686159927
29.819715999999996,0.5042058956228759,0.030534659963510305
29.824307999999995,0.5554265952093714,0.03688731945360673
29.828895999999997,0.6004731779356085,0.04359365865264864
29.833488,0.6397124583848933,0.050559411492833536
29.838075999999997,0.6745767513100844,0.057679532521781596
29.842672,0.713938216473515,0.06463961570128358
29.847264000000003,0.753055312208654,0.07153892703046172
29.851871999999997,0.7835446176097516,0.07880461519389749
29.85645999999999,0.8153779548664516,0.08559408771190871
29.861063999999992,0.8445468905970973,0.09235435093827586
29.865644,0.8637779059549886,0.09923989496183343
29.870248,0.8751142392637125,0.09923989496183344
29.87484,0.8855069966761603,0.09923989496183344
29.879432,0.8922578748493886,0.09923989496183344
29.884015999999995,0.8890708326498623,0.09923989496183344
29.888603999999997,0.8801545314389014,0.09923989496183344
29.893196,0.872049381778332,0.09285288211927037
29.897792000000003,0.8596472878591866,0.0864177398387849
29.90238399999999,0.837595784444206,0.08041938846986049
29.906984,0.8071608601234754,0.07463645810023417
29.911576000000004,0.7738171648483991,0.06870523499832314
29.916164,0.749545857315319,0.062352575508226704
29.920752,0.7266627230864693,0.055646236309184804
29.925344000000003,0.7039017735717653,0.048680483468999905
29.92993599999999,0.6815073781994982,0.04156036244005185
29.93452,0.6578028527885185,0.03460027926054986
29.939108,0.6308671437293841,0.027700967931371716
29.943688,0.6076513571749868,0.020435279767935938
29.948283999999997,0.5792052900974762,0.013645807249924716
29.952876,0.5555449061351244,0.006885544023557578
29.957463999999995,0.5329502827831941,0.0
29.962079999999997,0.5139975386704836,0.0
29.966664,0.4953333054346924,0.0
29.971252,0.4765910289333838,0.0
29.97584,0.46071338193779254,0.0
29.980432,0.4442689528201011,0.0
29.98503999999999,0.42071733101848313,0.0
29.989631999999997,0.3999081540084369,0.0
29.994235999999997,0.3869495175989299,0.0
29.998816,0.37992036818052094,0.0
30.00342,0.373468240515951,0.0
30.008000000000003,0.362973777652835,0.0
30.01259199999999,0.3591860515143192,0.0
30.017180000000003,0.3596511281857514,0.0
30.021784000000004,0.36142633489589643,0.0
30.02638,0.3607917491400175,0.0
30.030976000000003,0.36122292399456024,0.0
30.03556799999999,0.3620647944401681,0.0
30.040164,0.36728165240986954,0.0
30.044756,0.36967802232248187,0.0
30.049351999999992,0.37669374918747905,0.0
30.053952,0.38779595269965034,0.0
30.05854399999999,0.40171864426891085,0.0
30.063128,0.4187061933235519,0.0
30.067716,0.4385142304352822,0.0
30.072296,0.4608542447271822,0.0
30.076891999999997,0.4931660812087262,0.0064235740970840765
30.081488,0.5257222871185614,0.012823523272536334
30.086071999999994,0.5496948441429834,0.012823523272536332
30.090668,0.5686814900725834,0.012823523272536334
30.09524799999999,0.5897113743257705,0.012823523272536334
30.099844,0.6131510510449815,0.012823523272536334
30.10442799999999,0.6313163057924511,0.012823523272536334
30.109008,0.6514026141493621,0.019829627055222385
30.113607999999992,0.6708338574869166,0.026835730837908432
30.118188,0.690631654966908,0.03394122050516548
30.12278,0.7121841798935671,0.040823327072010966
30.12737599999999,0.7342254436768088,0.047553288534529864
30.131967999999997,0.7558560118689853,0.054080160112224315
30.136564,0.7805514375465427,0.06026637925938412
30.141164,0.7979292029287712,0.06696512007543606
30.145772,0.8097881769109672,0.07385066409899363
30.150364000000003,0.8212364553020979,0.08036912444672097
30.154964,0.8321518533880178,0.08668859477480419
30.15954399999999,0.8376706447880506,0.09332196523431269
30.16414,0.8422900017404356,0.09989320897256986
30.168727999999994,0.8376706447880506,0.09346963487548575
30.17332799999999,0.8325184075304548,0.08706968570003351
30.177919999999997,0.8352947541389159,0.09348089511313584
30.182516,0.8409696320699838,0.09964663781881385
30.187104,0.8444349455146907,0.10577091096371656
30.191692,0.8452019556164541,0.11191491988598191
30.196279999999994,0.8432706623752739,0.11191491988598191
30.200872,0.8361871318764981,0.10490881610329587
30.205459999999995,0.8284485363583656,0.09790271232060983
30.210052,0.8217315600020267,0.09079722265335277
30.214644,0.8168134525409835,0.08391511608650729
30.219239999999992,0.8093192264511424,0.0771851546239884
30.22382799999999,0.7991266970183578,0.07065828304629396
30.228424,0.7825159417378924,0.06447206389913414
30.233020000000003,0.7744888353428405,0.0577733230830822
30.237608,0.7701816514525256,0.05088777905952462
30.242192,0.7615436214867453,0.04436931871179731
30.246779999999998,0.7498407340355844,0.038049848383714086
30.251372,0.7431237576792455,0.03141647792420558
30.255968000000003,0.7342413582851738,0.024845234185948417
30.260556,0.7290788813958394,0.024845234185948417
30.265151999999997,0.7255930886876549,0.024845234185948417
30.26973999999999,0.7200640576558833,0.018434024772846065
30.27432799999999,0.7178883949864118,0.012268282067168072
30.278924,0.7164899820504425,0.006144008922265354
30.283516,0.7203659910862146,0.0050192189004103415
30.28811199999999,0.7314374757031696,0.009842600891840997
30.292700000000004,0.7439412750729831,0.014715743313648296
30.2973,0.7586546389291576,0.01959574312432513
30.301888,0.7749225022523366,0.0244354101230686
30.306487999999995,0.7853050200330456,0.02951042742972233
30.31108,0.798918721461909,0.03453754778006986
30.315684,0.8184619098818704,0.0393916367892583
30.320276,0.8411140972358404,0.044378697638477356
30.324868,0.8617230462662234,0.04928230530407743
30.329463999999994,0.8801665722588738,0.054272297641904534
30.33406,0.9016749557369046,0.059221000961005445
30.338648,0.9285799459008227,0.06405673809111592
30.34324399999999,0.9519313397227775,0.06909330696428923
30.34783199999999,0.9828447632683521,0.07386992799389666
30.352428,1.016089936014433,0.07862175953431141
30.357008,1.0471696857227817,0.08344544560652677
30.361596,1.0819693579358671,0.08808157551165854
30.366184,1.1134598032352807,0.09278893936322383
30.370776,1.1435620752304638,0.09762748031564389
30.375364,1.168145555825614,0.0975131376896254
30.37994799999999,1.1899085483636749,0.09759671052352037
30.38453599999999,1.2137147792253233,0.09753429880308266
30.389124,1.2349448914581738,0.0975293927102456
30.393719999999995,1.2543761347957283,0.09759871337034155
30.398312,1.2804699734092546,0.09727904930329546
30.402899999999995,1.3047649431274853,0.0970393373585226
30.407508,1.3187995797791527,0.09730061013482895
30.412096,1.3348774547544071,0.09739377986302732
30.416684,1.3491564608343658,0.09757040277484465
30.421276,1.36944299717094,0.09737405900858356
30.425868,1.3907511526693077,0.09713291824991194
30.430463999999997,1.408828124519521,0.0969438408566142
30.435044,1.430336507997552,0.09644425323439473
30.439648,1.4415845584090197,0.09639483827166544
30.444236,1.4485798060105393,0.09642719606556079
30.448835999999996,1.4540205541450544,0.09644754199245971
30.45342399999999,1.4503447730889456,0.09681906754857957
30.45802799999999,1.4474021003177107,0.09697941700664973
30.46261599999999,1.4478908391742933,0.0968440094431321
30.467207999999992,1.4447818402402848,0.09683520576761985
30.471799999999995,1.4402405265534173,0.09678530451631209
30.476396,1.4310798559141649,0.09693747757739103
30.480991999999997,1.424206793026791,0.09687629003759285
30.48557999999999,1.4184775340153561,0.09671099670171382
30.49016799999999,1.4073516683180343,0.09672839259419999
30.494764,1.3982690409442993,0.09661167977938953
30.499351999999995,1.3982588013125608,0.09593869971092799
30.503939999999997,1.3978378660897564,0.09517355076409002
30.50852799999999,1.392675389200422,0.09461287598071297
30.513128,1.375209340920937,0.09464814412955569
30.51771999999999,1.3541455548508607,0.09480444889649142
30.522311999999992,1.3320601496189908,0.09501848767528032
30.526908,1.306254821882384,0.09537971965342373
30.531496,1.2885002627259794,0.0952251295352536
30.5361,1.27368837634081,0.09489986264139219
30.540688,1.2625964124603772,0.09441492568418842
30.54528,1.2551021863705363,0.09379589223314215
30.549872,1.2436436683476666,0.09341097216868813
30.55446,1.2300197272870645,0.09319063202496713
30.55905599999999,1.22485725039773,0.09257699245227463
30.56364,1.2230481418706955,0.09192240173920399
30.568228,1.2257362055819003,0.09111231642973153
30.572827999999998,1.2252372270935787,0.09053734551757248
30.577415999999992,1.2230615644241072,0.08998510194142434
30.582012,1.2251387045645838,0.08936517126230659
30.58660799999999,1.2254169758097644,0.08881205264749703
30.59121199999999,1.2244292584648604,0.08840720161893419
30.595792,1.2211539333680779,0.08818640723806609
30.600384,1.2254406379949152,0.08766178264687226
30.604964,1.239088241240668,0.08673622430391237
30.609564,1.2542903439534252,0.0858073864051046
30.614152,1.2684708275043888,0.08492113935988707
30.618748000000004,1.2860046794176525,0.08398973445458068
30.623339999999992,1.2989633158271594,0.08350114239058015
30.627936,1.3117997675225208,0.08307291180763449
30.632535999999995,1.3237367847702342,0.08269267875511388
30.637132,1.3383721053608912,0.08224469125489244
30.641732,1.357504598189787,0.08166611134997415
30.646324,1.3766370910186836,0.08108753144505584
30.650916,1.3901286077334014,0.08074573292885265
30.655504,1.4011661905334671,0.08042273189230632
30.66008399999999,1.4123259580476781,0.08008484628795566
30.664668,1.4261840289048329,0.07967368544009776
30.66926399999999,1.4414744145148461,0.07932259495512135
30.673855999999997,1.4526341820290574,0.07898470935077069
30.678452,1.4618728959338274,0.07871615792864756
30.68303199999999,1.471111609838597,0.07846398973550554
30.687616,1.4835373659428932,0.07803727996682841
30.692204,1.493509188132537,0.07762473496184408
30.696791999999995,1.49873946865565,0.07736029062508482
30.701388,1.5061351722164964,0.0769794253536438
30.705972,1.5180280480155817,0.07652111898662467
30.710559999999997,1.529510228223602,0.07597804365873327
30.715156,1.542502766449998,0.07526461829193169
30.719748000000003,1.556394739124042,0.07455816954998311
30.724348,1.5702867117980863,0.0738684010092038
30.72894399999999,1.5834014347386283,0.07318253148530657
30.73354,1.592918419888579,0.07255105386395183
30.738128,1.6007587208573795,0.07191209776313241
30.74272,1.6124411290450626,0.07116748657127013
30.747312,1.6201592452997176,0.0705454988046649
30.751916,1.623258004601988,0.0700171371677266
30.756504,1.624924449151399,0.06943027868532108
30.761108,1.6242591445003036,0.06879365919756693
30.765691999999994,1.6242489048685649,0.06819192857826542
30.770288,1.6280807724557087,0.0674816283072051
30.774880000000003,1.6279483481098243,0.0669094680412006
30.77947199999999,1.626549935173855,0.06644563133424808
30.784072,1.6238855336478009,0.06607644736570975
30.78866,1.6233865551594793,0.06559359724126428
30.793252000000003,1.618268219718773,0.06519357178969874
30.797847999999995,1.6095521464874751,0.06484083518560192
30.802435999999997,1.5967495966090033,0.06464082475991406
30.80702,1.5856237309116812,0.06444313496378612
30.811612000000004,1.5715551924431241,0.06433221777746298
30.816203999999992,1.5547883506316242,0.0642460055387833
30.8208,1.5353232054771804,0.06418316189965713
30.825388,1.51855636366568,0.06409199574721158
30.829987999999997,1.5035883907494754,0.06397659560201278
30.834568,1.4856777450620358,0.06394034382421805
30.83916,1.4762285635458638,0.0637356763513239
30.843755999999992,1.4715209236962228,0.06342818901330191
30.84834399999999,1.4704110216371729,0.06309065419326526
30.85294,1.4736761071022169,0.06274671205341892
30.857532,1.4819271036620822,0.06227230642392026
30.86212,1.4940202074408306,0.06175794564616316
30.86671599999999,1.5055804309143683,0.06115193142398379
30.871312,1.5144423510449623,0.06055971929045304
30.875908000000003,1.5231820864614107,0.059985147050584726
30.88049999999999,1.5325768868972156,0.05946521140852223
30.885096,1.5462244901429685,0.05896650848810275
30.889676,1.558972658941074,0.05846389778580766
30.894276,1.5746635005104137,0.057876303489777715
30.898864,1.5866344195750164,0.05734457983338329
30.903460000000003,1.5951297855631734,0.0567860778783168
30.90805199999999,1.6064456396084197,0.056182719888866126
30.912648,1.6203376122824642,0.05558811967907704
30.91724,1.6344739543847995,0.05495072359884791
30.92184,1.6495097309347826,0.05431837430183222
30.926432,1.6645455074847662,0.05367739193826175
30.93102799999999,1.670098200701688,0.05320400202207506
30.935616000000003,1.6718087866997275,0.052808570077480195
30.940204,1.6704545152123864,0.05251649945765936
30.944792,1.6653803212203082,0.05227053708778314
30.94938,1.6532769778098213,0.052211899187824
30.953963999999992,1.6312018122096905,0.05240656226829741
30.958564000000003,1.6145232532954459,0.05257248458764579
30.963152,1.5987441288288498,0.0527388399628189
30.967747999999997,1.5870514810094276,0.05277693071975021
30.97233599999999,1.5726605298470617,0.052824485299575695
30.97692399999999,1.5597799367030722,0.052728900788256844
30.981515999999992,1.5488203971685242,0.05259980661312442
30.986096,1.5368392384721825,0.052496990945979836
30.990688,1.525757514223489,0.05239076698354039
30.99528399999999,1.5249361230413585,0.0521815309087404
30.999872000000003,1.5237481777167916,0.05205337114184977
31.00446,1.5207613634969286,0.0519282378512388
31.009055999999998,1.5158534956676242,0.05183018808774749
31.013648,1.51262231201947,0.05175723232310358
31.018244000000003,1.511312181980757,0.05165685315052118
31.02283599999999,1.5147435936085745,0.051495846485980414
31.027427999999997,1.5197295047033965,0.05138196374957798
31.03202,1.524837600512364,0.051240422446484156
31.036619999999992,1.5308451307689797,0.05109635537479282
31.041211999999994,1.5387737146350364,0.0509128383908363
31.045808,1.5500115254147648,0.05056517425893844
31.050391999999995,1.55855103285155,0.05023712806932035
31.05499199999999,1.5681121594501286,0.04987808916828586
31.059588,1.5735868094015335,0.04964695632126382
31.06418399999999,1.581881947410027,0.04938211858194627
31.068768,1.58404737044776,0.04929616164617345
31.073356,1.5860906087713469,0.04923835236237234
31.077948,1.5927532040473191,0.04914959178792061
31.08254,1.6022362873803804,0.0490328302289416
31.087124,1.6031357218280284,0.04903230646645158
31.09170799999999,1.5996601687515828,0.049008176270684524
31.096299999999992,1.5973284195510762,0.048928396341269796
31.100900000000003,1.5909101937033951,0.04896180019452023
31.105488,1.5781959267221795,0.04900102721909563
31.110071999999995,1.5644600405791702,0.04906639627208233
31.114668,1.5509685238644524,0.04907021788344079
31.119247999999992,1.537721376578026,0.04902268030630548
31.123839999999998,1.5235747948439515,0.048975451863108324
31.128432,1.5076293442145816,0.04892886709991865
31.133012,1.4928276974611512,0.04882354331461888
31.137623999999995,1.4779038659935746,0.048743390587534144
31.142211999999997,1.4601595464689088,0.04868919695430518
31.146799999999992,1.4422930422300972,0.04866122234326142
31.1514,1.4272470260483754,0.048606734951759434
31.155988,1.4132226290284466,0.048515828651512764
31.16059599999999,1.4002198511703114,0.04840039586783142
31.16518,1.3882386924739702,0.04825345809728853
31.16978799999999,1.3707387423775954,0.04813381441984977
31.174384,1.347597816167043,0.04807101364125046
31.178980000000003,1.3256006938324294,0.04794394987136546
31.183568,1.3061796901266138,0.04785004531145153
31.188168,1.2866365017066526,0.04777435930420052
31.192748,1.275021897152748,0.04751125546183538
31.197348,1.2621413040087588,0.04734151646248169
31.20194399999999,1.2446413539123842,0.04720537741292608
31.206544,1.2231771118829813,0.04717134863481885
31.211127999999995,1.201835054567724,0.047092822131769914
31.215724,1.1807373666807581,0.04692289388856818
31.220312,1.1593953093655014,0.04684004403464415
31.224907999999992,1.136010013726657,0.04683577804280243
31.22949599999999,1.1087826108689303,0.04444456731629752
