Time,Force,Position
29.849596,0.07119836164995416,0.0
29.854184,0.06854419975563876,0.0
29.858784,0.06495195612686645,0.0
29.863364,0.05866140915515059,0.0
29.867956,0.05441410050702178,0.0
29.87254,0.04938954212539079,0.0
29.877132,0.044487168457905464,0.0
29.88174,0.04910103124847129,0.0
29.886332,0.0497506021060087,0.0
29.89092,0.05105523798290261,0.0
29.895516,0.05133825469800301,0.0
29.900112,0.05015580353525476,0.0
29.904708,0.04603067960127163,0.0
29.9093,0.04100612121964064,0.0
29.913904,0.03598156283800964,0.0
29.918484,0.03210080833231785,0.0
29.923084,0.029363857702565242,0.0
29.927664,0.024583668749225594,0.0
29.932268,0.018904045348238092,0.0
29.93686,0.01232498749960274,0.0
29.941456,0.007666983260408765,0.0
29.94604,0.006851086240097537,0.0
29.950632,0.00705605968968041,0.0
29.955224,0.008859674054895792,0.0
29.959816,0.015326786821124254,0.0
29.964408,0.023881279359567915,0.0
29.969,0.03194703304142889,0.0
29.973588,0.0351545545044327,0.0
29.978176,0.04502467124340849,0.0
29.982764,0.05608273330695161,0.0
29.987359999999995,0.07000542487621211,0.0
29.991956,0.08977406600923395,0.0
29.996544,0.11420620554326885,0.0
30.00114,0.1373723564872189,0.0
30.00572,0.16479131024111687,0.0
30.010312,0.19454201319552133,0.0
30.014904,0.22727953036978887,0.0
30.019492,0.26635723012621954,0.0
30.024088,0.30380238715012836,0.0
30.028676,0.34472309725048284,0.00680614531672184
30.033264,0.385399437922546,0.013741673942454161
30.03786,0.42828534308097,0.02063868451254051
30.042448,0.469089362628998,0.028149848121224695
30.047044,0.5071067959368261,0.028149848121224695
30.051636,0.5369851777671953,0.028149848121224695
30.056232,0.5632216803583451,0.028149848121224695
30.06082,0.5901912912343688,0.028149848121224695
30.06542,0.6175274562528296,0.028149848121224695
30.07,0.6430647523759946,0.028149848121224695
30.074604,0.6668370814207533,0.028149848121224695
30.079192,0.6878228242253122,0.028149848121224695
30.083791999999995,0.69653889745661,0.028149848121224695
30.088384,0.6969495930476752,0.028149848121224695
30.09298,0.6960501586000274,0.028149848121224695
30.097576,0.6912644754848687,0.028149848121224695
30.102172,0.6816931092545512,0.028149848121224695
30.106764,0.6670475490321555,0.028149848121224695
30.111356,0.6418870466831662,0.028149848121224695
30.115948,0.6169267723138401,0.028149848121224695
30.120532,0.5850153917916225,0.02134370280450286
30.125112,0.5525711309641941,0.014408174178770534
30.129712,0.5181616750786963,0.0075111636086841824
30.134304,0.48624005492474,0.0
30.1389,0.45460694564770315,0.0
30.143492,0.42771537803719695,0.0
30.148072,0.4032777443413429,0.0
30.152664,0.37516432958937995,0.0
30.157252,0.3472172410001908,0.0
30.161844,0.318781413554419,0.0
30.166428,0.2936209112054297,0.0
30.17102,0.2726351684008709,0.0
30.175624,0.2635083995785079,0.0
30.180212,0.2601108897675797,0.0
30.1848,0.2659962353100495,0.0
30.189396,0.2718035375870017,0.0
30.193996,0.2813749038173192,0.0
30.1986,0.2951210295920671,0.0
30.20318,0.31410767552166713,0.0
30.207772,0.33726908099569747,0.0
30.212352,0.3677922882136845,0.0
30.216952,0.4043671671369151,0.0066574548452779155
30.221536,0.4432737952606522,0.0131275597664308
30.22614,0.4850450528901068,0.019360610971279647
30.230732,0.5311912980436548,0.02538693532660187
30.235328,0.5785254885217703,0.031330228027113056
30.239912,0.6234498865338618,0.037559671541611744
30.244508,0.6752812492502165,0.043598150574520544
30.249096,0.7304218388802433,0.04942662975494619
30.253692,0.7860511673668527,0.05520634177173155
30.258284,0.8352622700057812,0.061262532880427725
30.262868,0.8830410578918512,0.06721258910390918
30.267456,0.9247681740726776,0.0732149313893366
30.272056,0.9626090415859931,0.07932660520886632
30.276644,0.9901454345841171,0.08567813210043625
30.28124,1.0185371205812608,0.09187645834951352
30.285832,1.0484391645967805,0.09786006266150432
30.290412,1.0764981982683766,0.1037591581359433
30.295008,1.1043909057771986,0.10960647334613631
30.299588,1.1279866690274447,0.11547361309333269
30.30418,1.1488399874861193,0.12120574283442478
30.308776,1.1624978303636109,0.12042573533542855
30.313364,1.1715363162887178,0.12003323306093071
30.317972,1.1770992491373786,0.11987778450273691
30.322564,1.1772655753001522,0.12009712795499268
30.327152,1.1758774019959217,0.12033705208642166
30.33174,1.1789422594813024,0.12002821385683841
30.336328,1.1786537486043829,0.1198671821702113
30.340932,1.1730908157557218,0.11998199569029684
30.345512,1.168549502068854,0.11999395406075247
30.350108,1.167195230581513,0.11968681208037082
30.3547,1.163264840465374,0.11949460446328782
30.359292,1.1601117000827372,0.11929332243485653
30.36388,1.1586352438812504,0.11902610318430208
30.368476,1.1634548288132984,0.11836538604572877
30.37306,1.1670084251552615,0.11789918953774355
30.377652,1.1678637181542812,0.11760639497874935
30.382248,1.171295129782099,0.11721845390259439
30.386836,1.1729276725146207,0.1169271301008044
30.39144,1.1809784410948232,0.11629450140926482
30.396032,1.1841654832943493,0.11599571958661585
30.400624,1.1900508288368192,0.11554749480453536
30.405208,1.2019437046359045,0.11463136299675428
30.409788,1.2138365804349898,0.1137152311889732
30.414387999999995,1.2277726945576621,0.11259552011159228
30.41898,1.2399099397850388,0.11157457591033172
30.423572,1.2479607083652413,0.11092689381096793
30.428168,1.2567887266789461,0.11028395752034308
30.432748,1.2663939947261529,0.10961358800538352
30.437344,1.2720349708403313,0.10925114018234373
30.441932,1.2773093928120727,0.10900816100860504
30.446524,1.284016129536673,0.10878959038825096
30.45112,1.2897012470994795,0.1086500660102711
30.455712,1.2998835369005253,0.10828800285937318
30.460304,1.3090442075397777,0.10803542051369347
30.464896,1.321924800683767,0.10759227983618005
30.469484,1.332517786075878,0.10736678235517837
30.47408,1.3419669675920498,0.10727905634204972
30.478668,1.355424582489878,0.10713290689750439
30.483264,1.365450785759889,0.10733367033779995
30.487844,1.3856151373823178,0.10707788466809516
30.492444,1.4077005426141878,0.10673948609876222
30.497028,1.423534048161151,0.10684150518851823
30.501628,1.437324315384527,0.10706579027344532
30.506216,1.4514030934848228,0.10741218097919054
30.510816,1.4661369366044747,0.10778226354147984
30.515412,1.4830362027618593,0.10797813670409354
30.52,1.4995689147768072,0.10826781100287683
30.524584,1.5176561262587591,0.10854438920191051
30.529172,1.5376643913501524,0.10869404122919499
30.533776,1.5644574364316635,0.10849199919863796
30.538376,1.592272100674968,0.10822674346313207
30.542968,1.6240510568513011,0.1077322886052616
30.547568,1.6505555910558931,0.10744332480164454
30.552156,1.6755056257934802,0.10717279680538647
30.556748,1.695958488292828,0.10707807818321137
30.561336,1.722541065762937,0.10662932085451012
30.565928,1.744626470994807,0.10632233430283011
30.57052,1.758328455320927,0.10616555555527693
30.575104,1.76802200626539,0.10604378768357903
30.579699999999995,1.7693762777527313,0.10627012611319601
30.584288,1.764678877534829,0.10665526817677722
30.58888,1.7616140200494483,0.10684097793410588
30.593468,1.7616140200494483,0.10684097793410587
30.598056,1.7637353016385529,0.1065166654837146
30.602648,1.7653237029224467,0.10613286647885722
30.60724,1.7651132353110448,0.10581315727326329
30.611828,1.762937572641573,0.10540940131169896
30.616412,1.7625166374187693,0.10477782243763185
30.621,1.7634838755001958,0.10400591094287027
30.625604,1.7573778227145853,0.1034499296440621
30.630184,1.7452200982237311,0.10302572119728629
30.634776,1.730486255104079,0.10264913530534539
30.639364,1.714075727803277,0.1022982954425191
30.64396,1.6939452779977378,0.10209120511850044
30.648548,1.6718937745827573,0.10198755732581213
30.653144,1.647921217558335,0.10193022810866695
30.657728,1.627790767752796,0.10171000789627853
30.662324,1.6168990318520269,0.10114758862388955
30.66692,1.6106266529036428,0.10041489028195483
30.671516,1.607541316154785,0.0994815513050086
30.676104,1.6107520205394614,0.09835511340279994
30.680696,1.6156394091052884,0.09720791874471364
30.685284,1.6214262321187631,0.09605876201545019
30.689872,1.6268465009898008,0.09503342172985423
30.69446,1.637008311527369,0.09386810398199273
30.699048,1.651911663731468,0.09257408324305577
30.70364,1.6713121881738062,0.0912024237549819
30.708231999999995,1.6892023545977681,0.0900213634825382
30.712824,1.706725966879293,0.08893956322633828
30.717416,1.7236386555900893,0.08797275011148335
30.722007999999995,1.7478690045962144,0.0868253036801804
30.726588,1.7750420263735742,0.08562102191343479
30.731176,1.8067122203891735,0.08432479972096013
30.735788,1.845822259414247,0.08283490376721683
30.740376,1.8888965903723487,0.08116783064903921
30.744972,1.9262077605021262,0.07968533298986591
30.749564,1.9618422464507537,0.07823430893995979
30.754168,1.992735190732851,0.07697718428153391
30.75876,2.020807646957859,0.0758180501628161
30.76336,2.0478584840210727,0.0747284886891349
30.767956,2.0719666483130523,0.0737599607606219
30.772548,2.097995866214473,0.07277578223063141
30.777156,2.120305161611157,0.07187200722993167
30.781736,2.134441503713492,0.07123641130817086
30.786332,2.1437141194351517,0.07074974586415048
30.790912,2.1491446279379285,0.07036971768779905
30.795512,2.1506108445076766,0.07010542624512495
30.8001,2.1493787577344805,0.0698724287607197
30.804688,2.1474916059419287,0.06960699666058157
30.809276,2.1460931930059592,0.06925069010077853
30.813868,2.1409748575652534,0.06896023269742277
30.81846,2.1297268071537854,0.06886012548464543
30.823052,2.117823691722961,0.06872163636106045
30.82764,2.103100088235048,0.06862720841166747
30.83224,2.090175353642431,0.06851058889301533
30.836832,2.0821143454304893,0.06829005020479258
30.841416,2.0738089677902565,0.06810859567970622
30.846004,2.0703673165307004,0.06782666207236974
30.8506,2.0687245341664395,0.06752987069935606
30.855191999999995,2.0647941440503006,0.06732767803393948
30.859784,2.0608637539341617,0.06712548536852289
30.86438,2.0505151379703417,0.06699253767895197
30.86896,2.043109194777757,0.0667951276299016
30.873556,2.0468188776507548,0.06631160123060896
30.878144,2.0496291260761055,0.06582884957083351
30.882732,2.0523171897873103,0.06536763268000467
30.887336,2.0569263071079567,0.0648715754722661
30.891916,2.066399150809279,0.06428275765358203
30.896504,2.0784481131393995,0.06370667601088444
30.9011,2.091396509917167,0.06312739290814481
30.905688,2.10728757946617,0.062498348840652834
30.910284,2.1261213217864086,0.06179510859258284
30.91486,2.1429118257830595,0.061154444162201706
30.919456,2.16084613365565,0.06048479307925781
30.92404,2.1730172806999155,0.05991046887650755
30.92864,2.184044623868242,0.059386885306890444
30.933228,2.200835127864893,0.05878926937337617
30.937836,2.210474297728989,0.05836510739415154
30.942428,2.217415164250142,0.05795413194838974
30.947024,2.226643638523173,0.057451954674496784
30.951616,2.237015916672143,0.05691078675000945
30.956212,2.2527848015070004,0.05634181972740975
30.9608,2.26765425189421,0.05578629222365291
30.965396,2.2774156064724522,0.055362606485781916
30.969984,2.290241818536075,0.05487395271298482
30.974576,2.303434584742134,0.05433227953611951
30.979164,2.31674953566234,0.053780557536505444
30.983752,2.326877444383019,0.05331964308864599
30.988332,2.3296876928083687,0.05289226525036184
30.992924,2.330210333481841,0.052540710110952585
30.99752,2.3295891702793736,0.05223285592176952
31.002112,2.3310112454004934,0.051887848541772495
31.006708,2.33308838554097,0.051576466856654686
31.011296,2.328136376263038,0.051384264526633736
31.015888,2.3281702780799263,0.05110883272492517
31.020476,2.330491787648694,0.050760279773769734
31.025068,2.3252512674938424,0.05047784933386356
31.02966,2.3234421589668077,0.05007908383237396
31.034252,2.324209169068571,0.04969438581707612
31.03886,2.3266528633514847,0.049330194373942225
31.04344,2.3242328312537217,0.04902065303400889
31.048028,2.320013930260663,0.04871442743190024
31.052632,2.3124858023539328,0.04849874976266917
31.05722,2.3021371863901128,0.04830165903919493
31.061824,2.2923214507315044,0.04815955535876867
31.06642,2.280095922606871,0.048109260327888016
31.071012,2.2658271561586516,0.04809460737833135
31.075592,2.2479606519198407,0.04808378466409836
31.080196,2.238555611852297,0.04801017194212915
31.084784,2.23119381010834,0.04789874177116048
31.089388,2.2189682819837073,0.04784658294783806
31.09398,2.204699515535487,0.0478315773153296
31.09858,2.189531314639619,0.04781944876974972
31.103176,2.179349024838573,0.047728080452885895
31.107768,2.1640586392285597,0.04773708197096265
31.112348,2.1473800803143157,0.047818598655348245
31.116944,2.1305793366859267,0.04792402832491589
31.121536,2.113289854200954,0.04810625644007482
31.126128,2.0943236875348314,0.04826701816586571
31.13072,2.070615979202178,0.04846978782689214
31.135304,2.0517719972502015,0.048611068486208484
31.139896,2.0308847769746374,0.048794896814813866
31.144488,2.015350021936333,0.04883342300433436
31.14908,2.0026357549551173,0.04885336224809802
31.153672,1.9853021310215166,0.04889595041469657
31.158268,1.9710333645732967,0.048876903879827474
31.16286,1.9557429789632832,0.04888077289906539
31.167456,1.946093569467448,0.04884026972001175
31.172044,1.9305588144291432,0.048883526507033086
31.176636,1.9123257560478948,0.04892760534151646
31.181232,1.900877477656764,0.04888466059951113
31.185824,1.8886519495321312,0.04881838603260344
31.190416,1.8788362138735224,0.04864064681251156
31.195008,1.870164282090853,0.04841784539018469
31.199596,1.8654566422412118,0.048131832284514
31.204184,1.85600746072504,0.04788351547678555
31.208772,1.8473355289423705,0.04765491920969764
31.213368,1.836986912978551,0.047401676956849347
31.217948,1.8266382970147315,0.04714360461836559
31.222548,1.8202539729839402,0.04681422354695533
31.227136,1.8117042259154161,0.04655255572195094
31.231736,1.8050755324563332,0.04626675234194549
31.23632,1.7951376120835787,0.04609414014319633
31.24092,1.7863434955867632,0.04587499741290871
31.245512,1.7776715638040934,0.04562594252675689
31.250104,1.7623370367454518,0.045437568422771635
31.254696,1.750067367172191,0.045175524335409334
31.259288,1.7343221445224841,0.04487752303605625
31.26388,1.7188212913010688,0.04452210320986794
31.268472,1.7052414916890946,0.044134384107919554
31.27306,1.6866757809822988,0.0438410444065855
31.277652,1.667210635827855,0.04353411658823062
31.28224,1.6423930254361525,0.04339093299732767
31.286836,1.6154099920067164,0.04330968609182979
31.291424,1.583807601624896,0.04323239879227329
31.296016,1.5542484495666629,0.04310923279227528
31.300612,1.5239120477749273,0.04296411709348569
31.3052,1.4936978306973374,0.04277612416927866
31.309792,1.4624619944579538,0.04260296959904838
31.31438,1.4282834854473352,0.042464232286071796
31.318972,1.3943493458650082,0.04225788268230167
31.32356,1.3587385221015311,0.041996420241392024
31.328148,1.3233720677663454,0.041662951144716284
31.332752,1.283264071764629,0.041336460811528704
31.33734,1.247775432715298,0.040994877956836935
31.341944,1.219971008103732,0.0405543804519798
31.346536,1.186403422663842,0.040146801794564944
31.351128,1.1523470983673694,0.03986509151184841
31.35572,1.1170247854808117,0.03779459601358029
31.360316,1.0835013414895498,0.03760268687850064
31.364908,1.0454807252600486,0.03551611843273351
31.369496,1.0092589779258434,0.03346646792888956
31.374096,0.9781453264006056,0.03134368896538889
31.378672,0.9433117523706307,0.029224673839138474
31.383276,0.9121981008453929,0.027121798718862195
31.38786,0.8830055029295966,0.025027711984223232
31.392452,0.8578993816609742,0.022912297607859018
31.397032,0.833570510125854,0.02084264647231651
31.401628,0.8040113580676205,0.018783902325711026
