Time,Force,Position
30.965556,0.8260806758082311,0.01888632148144585
30.970151999999995,0.7636972862267205,0.016944026180657015
30.974744,0.7014360813593555,0.014978634901936672
30.979332,0.6418731798349341,0.012970118527691034
30.98392,0.5827209739015781,0.01097787060292913
30.988512,0.5247567132927892,0.009068808032129706
30.993104,0.4736213741227461,0.0071819207035268805
30.997696,0.4264944683343596,0.005319310919626395
31.002288,0.38587407129091,0.003541191319616127
31.006868,0.35453652960085846,0.0017370984179015598
31.011464,0.3281509971887394,0.0
31.01604,0.31296937373945977,0.0
31.020636,0.3089916592530195,0.0
31.025224,0.30816708514921615,0.0
31.029816,0.3143377586469324,0.0
31.034404,0.3307348633943227,0.0
31.038996,0.35494860692536295,0.007510521230773136
31.043588,0.38738968483111835,0.015189520660474347
31.048172,0.42356092487334945,0.02327025589141866
31.05276,0.4719237912233243,0.030973915880060928
31.057355999999995,0.5306794149857469,0.03876902536308906
31.061944,0.5997836547119891,0.04637405994716201
31.066552,0.6749056643265856,0.0540863762515169
31.071131999999995,0.7557569329526169,0.061800478050688175
31.075728,0.8470790022566135,0.06936817674929117
31.080312,0.9495269372579319,0.07675266017917252
31.084916,1.0503864709753568,0.08432748373107324
31.089496,1.1590185020278032,0.09175277911455741
31.094092,1.2707153905656303,0.09911917221004077
31.098683999999995,1.3819235402468748,0.10650821457993007
31.10328,1.494930558823415,0.1138641818493705
31.107864,1.6107580654570441,0.12111884256008798
31.112459999999995,1.7305940054723303,0.12827716879165546
31.117048,1.8561931063159403,0.1353240695750871
31.12164,1.9820807180364697,0.14240459589520912
31.126232,2.1062475041272215,0.1494539049629955
31.130816,2.2262395306735425,0.149055595118212
31.135407999999995,2.3411132217791573,0.14848593980770833
31.139996,2.4535668807870086,0.1475117309037466
31.144584,2.5548946740975387,0.1469952505654735
31.149168,2.6561341845108126,0.14627381165417142
31.153759999999995,2.7522995009320086,0.14570710161087644
31.158352,2.8472327305800085,0.14499066160473972
31.162944,2.9396678848647273,0.14425441604492942
31.167524,3.026007225995575,0.14366952216371265
31.172111999999995,3.101753581734312,0.14335504152756226
31.176708,3.1779445348810027,0.14283142903021034
31.181296,3.240722014578494,0.14263783188062076
31.1859,3.300390495341976,0.14250519452631344
31.190496,3.3610364538186235,0.14225411544086825
31.195084,3.421105390541432,0.14192558559234508
31.199688,3.4762664594349357,0.14171025102335755
31.204276,3.5254538998887144,0.1415622054274715
31.208872,3.5660135500084507,0.14161528953308594
31.213452,3.6045638636214896,0.14157035815094265
31.218052,3.6398829935863746,0.14157592272677838
31.222639999999995,3.6750357973884853,0.14151089082326854
31.22724,3.7123540242283286,0.14136590078110883
31.231824,3.7501609899247548,0.14117043207519
31.236424,3.7906221175154964,0.14082919554866438
31.241019999999995,3.8247430625240746,0.14058243015069227
31.245615999999995,3.856776627760438,0.14033894726149418
31.2502,3.887211552081169,0.14004959192232755
31.254795999999995,3.915026216324474,0.1397406617413336
31.259388,3.942141674099793,0.13935882121573503
31.263976,3.971744967606655,0.13878597216879102
31.268564,4.000116174340321,0.13812980746707945
31.273152,4.035350204329622,0.1371883904504621
31.27774,4.068452713098081,0.1361780071295494
31.28234,4.094437789550873,0.1352518353791509
31.286928,4.114371194298422,0.134444372751116
31.291519999999995,4.133727577292132,0.13355307906310568
31.296116,4.1480539077423915,0.13273073795263687
31.300696,4.163479900619962,0.13178619417395684
31.305295999999995,4.174897460115877,0.13088948478593682
31.309884,4.184472009267867,0.12995673167168859
31.314476,4.193102982523581,0.12897398171335236
31.319071999999995,4.19490503434055,0.12810137448263342
31.323664,4.195152586690514,0.1272446632595142
31.328271999999995,4.187960294031004,0.12655235498564038
31.33286,4.1796241974955555,0.1259004163123829
31.337468,4.166135863702511,0.12532885416454392
31.34206,4.1468843690811426,0.12490474047592873
31.346664,4.127388505031481,0.12450467433091493
31.351256,4.105605033229944,0.1241910235772092
31.355856,4.081944649267592,0.12399480733152755
31.360456,4.053831234515629,0.12395736563069827
31.365044,4.023185842583496,0.12402468906542889
31.369648,3.994261276281142,0.12413468134489737
31.374236,3.9662802858750634,0.12430287105711531
31.378832,3.9398537949359893,0.12446287751049649
31.38342,3.9106509573884543,0.12476167868996876
31.38802,3.8873776068320174,0.12497596938037225
31.392608,3.8679905049430907,0.1251606561892402
31.397212,3.851345847845736,0.1253652043968279
31.401803999999995,3.837443635539953,0.12558977444699126
31.4064,3.8268167483309528,0.12585216157775833
31.410984,3.821752793970613,0.12607273419928952
31.415576,3.8205750882777845,0.126269313389426
31.420164,3.830068411242584,0.12627906236974287
31.42476,3.8443474173225427,0.12625171113845826
31.429352,3.86958596293705,0.12608746722710373
31.433944,3.9041073639049544,0.12580656064070125
31.438532,3.9414933943785764,0.12553790062184114
31.44312,3.981866239072061,0.12526365982799206
31.447707999999995,4.0261253324330575,0.12497130200485147
31.452296,4.078767846699804,0.12458010288701211
31.456888,4.136196044081708,0.12416173723488629
31.461468,4.193135502607031,0.12379322063035084
31.466064,4.255105013675803,0.12336442290984771
31.470652,4.319939154250293,0.12294510947997923
31.475248,4.395444323482413,0.12236482886036952
31.479832,4.473525611343329,0.12177751955400871
31.48442,4.551240345061808,0.12124392541686976
31.489016,4.631775566837376,0.12066917994440149
31.493604,4.713332407774738,0.12007631732939297
31.498192,4.794234183692743,0.11948873141151099
31.502796,4.875135959610748,0.11891024229260297
31.507384,4.95141837857637,0.118420016024949
31.51198,5.026556993666051,0.11799048130085413
31.516559999999995,5.102062162898169,0.11754359836739116
31.521156,5.1721707254444,0.11719067224087759
31.525748,5.238026485180684,0.11689198550503724
31.530348,5.30155049571646,0.11660156073600783
31.534936,5.3673621140041154,0.11625622973523317
31.539535999999995,5.431208537233701,0.11589556722107304
31.54412,5.491046527081631,0.11556583292710759
31.548715999999995,5.545854464386109,0.11527996494957479
31.553304,5.603072194156612,0.11492967132803247
31.557892,5.659224163316694,0.11455637860798777
31.562491999999995,5.718152479085236,0.11410227515102285
31.567087999999995,5.768453004519737,0.11374228649687086
31.571676,5.810536435211262,0.11348540094041525
31.576272,5.853475158901805,0.11317644406774605
31.58086,5.894082133391843,0.11287962129287143
31.585444,5.935055662024318,0.11256357993210424
31.590036,5.9754963103515815,0.11223716978054574
31.594628,6.01667006696372,0.11186778221228864
31.59922,6.061275235203676,0.11142406373718819
31.6038,6.101094720328473,0.11100015661759266
31.6084,6.136783587357468,0.11060229881243533
31.612988,6.170507259328392,0.11018436721841034
31.61758,6.201366301793601,0.109755426050155
31.622168,6.23218120281018,0.10928148049469226
31.626756,6.256533736530452,0.10883533292059286
31.631368,6.278798890478507,0.10837874509509657
31.635956,6.299098849368492,0.10790308354479966
31.64056,6.32241952429523,0.10733475663905317
31.645152,6.3391556472115145,0.10679757541769423
31.64974,6.353027140622081,0.10625140470276147
31.65434,6.35647197480331,0.10578336804036098
31.65894,6.3579516139264705,0.10529167521254393
31.663532,6.3652724571434725,0.10467214356854443
31.668112,6.364620575045788,0.10411889456925537
31.672712,6.359183009832947,0.10357422910076909
31.6773,6.351780249562035,0.10300911341099737
31.681899999999995,6.34139067507126,0.10243667427423123
31.686488,6.327114851912974,0.10186451816705464
31.691088,6.306542987621153,0.10134461989788289
31.695672,6.285560427738267,0.10079865741349149
31.700268,6.266865475607259,0.10020571455912064
31.704856,6.247515458456895,0.09960195687177328
31.709451999999995,6.230086494915972,0.09897338525934142
31.714047999999995,6.211635912213256,0.09835825481783882
31.718636,6.194862013691691,0.09773269090818967
31.723224,6.178865364903627,0.09710620487844975
31.727808,6.16352378113492,0.09648671425752697
31.732396,6.141930297681306,0.09596104800989033
31.736988,6.125611236199434,0.09539897409577854
31.741576,6.109458500880335,0.09487477120837154
31.746168,6.098335818104685,0.09432821531054943
31.750751999999995,6.0903221342630465,0.0937836399569599
31.755344,6.07965428852709,0.09330770710312421
31.759936,6.074016495334584,0.09281216248463313
31.764516,6.0718983966671525,0.0923430567648641
31.769103999999995,6.067903385838907,0.0919422693152523
31.773712,6.064729766192793,0.09158920238533409
31.778303999999995,6.065853090805255,0.09126743723445098
31.782896,6.0749491407324,0.09089602326568055
31.787488,6.089730308222354,0.09052156946474038
31.792076,6.104555617160935,0.09019725749537776
31.796672,6.126742727843473,0.08986713743331848
31.80126,6.152816087193521,0.08954943184137813
31.805864,6.184696748820523,0.08922523018530949
31.810452,6.223161962457978,0.08889746855309251
31.815052,6.261671317544063,0.08861636871268572
31.81964,6.3061101596212445,0.08832446300848162
31.82424,6.360076226480115,0.08799487199267893
31.82882,6.4161296731112,0.087692837529946
31.83342,6.47578085753288,0.0873741484802549
31.838004,6.542383148107449,0.08703610568155304
31.8426,6.615159295101406,0.08668005405224437
31.847192,6.692310429619458,0.08631147321723508
31.851788,6.7729371172139565,0.08593689820038941
31.856392,6.855851412560333,0.0855295353601656
31.860984,6.945672672610973,0.08506248142656841
31.865576,7.0415014629182275,0.0845411555123651
31.870168,7.13295526570139,0.0840401546568342
31.87476,7.220689145979813,0.08357476423777474
31.879348,7.305846907629441,0.08312717266780487
31.883928,7.39149340813565,0.08265969032214654
31.888524,7.469655922183756,0.08220769002045407
31.893116,7.544465067869563,0.0817677801640586
31.897704,7.612567476830769,0.08134302527769093
31.9023,7.674207518495668,0.08092155460398691
31.906888,7.7377244723213785,0.08045014702421076
31.91148,7.790814766917752,0.08001176895731654
31.916072,7.836787629198461,0.07956556500361997
31.920652,7.876175939468714,0.07912251772067458
31.925256,7.90963476274787,0.07869039243114091
31.929844,7.931889677064188,0.07828567862322236
31.934436,7.942696312989374,0.07791883647301866
31.939028,7.94986106967534,0.07753151677826557
31.94362,7.9496640246173484,0.07714109876824427
31.948212,7.947257415072997,0.0767391723416449
31.952796,7.93495702660452,0.07637434293942076
31.957391999999995,7.9150504669637956,0.07601581992613252
31.96198,7.897020819483884,0.0756067169739399
31.966576,7.8740833041746665,0.07519107475977979
31.971164,7.841252009941323,0.07480679640262532
31.975764,7.8013474248409445,0.07443894410445882
31.980356,7.759643970845268,0.07407366217117169
31.984952,7.711111595410847,0.07371175761466708
31.989532,7.6616797855287775,0.07334914886753093
31.994124,7.610326922037267,0.07299462791548454
31.998716,7.55435470159337,0.07265749869794769
32.003311999999994,7.501325153920709,0.07229505247026682
32.007896,7.447929052105611,0.07194646930532188
32.012484,7.39825287279525,0.0715766656059593
32.017072,7.349353943218391,0.07120639036970107
32.02166799999999,7.303031132270331,0.07082950039009928
32.026256000000004,7.258385005503421,0.07044917484284746
32.030852,7.209408032661044,0.07011333187976203
32.035448,7.164317308486179,0.06979129435361488
32.040024,7.115917357397643,0.06950538911525024
32.044624,7.069849155509612,0.06922686864899541
32.049204,7.025868333393797,0.06896772597718286
32.05379599999999,6.97911116466952,0.06876074026392362
32.058392,6.941226155707577,0.06853082892067185
32.062984,6.91797646733629,0.06824574659843922
32.067584,6.904498373174984,0.06793803095731869
32.072176,6.896949766004775,0.06763093831551481
32.07677199999999,6.9006050677974065,0.06731649034455059
32.081360000000004,6.911089291028784,0.06700262381653758
32.085948,6.926481382089464,0.06669975246044176
32.09055599999999,6.947147895121887,0.06639040860301887
32.09514,6.9737438951454065,0.06608658697269171
32.099744,7.007657555464256,0.06576299012414323
32.104332,7.04288134582182,0.06546326960180246
32.108924,7.087221665370007,0.06514230972582777
32.113512,7.140434144680526,0.06481248677722747
32.11810799999999,7.201985903448169,0.06445781973371759
32.122696000000005,7.269056453615843,0.06408600823386872
32.127296,7.340091295716545,0.06369562879327924
32.131888000000004,7.420364851722018,0.06327994355543497
32.136484,7.511920359955848,0.06282886960068802
32.141092,7.606051986818475,0.06238273406484763
32.145684,7.705824589795281,0.06191739053800471
32.150272,7.806496627219734,0.0614651799696099
32.154872,7.906391414910686,0.06102540751255841
32.15946,8.004487333706342,0.06059869287708866
32.164056,8.106791913863317,0.060150658117444966
32.168648000000005,8.207009114248079,0.059691022464984575
32.173232,8.305916184594125,0.0592223156937307
32.17782,8.40735523212034,0.05872897536053377
32.182416,8.509038649074848,0.05823488699081026
32.18700799999999,8.60532545934347,0.057753179143550104
32.191599999999994,8.695071859050266,0.05729649726191318
32.196192,8.78542918232779,0.0568221447498283
32.200784,8.866792161128835,0.056365914958204116
32.205376,8.938750099862336,0.05590681757168273
32.209968,9.007232485519392,0.05545472622725537
32.214556,9.07620361003303,0.054988735449171613
32.219151999999994,9.13425933646075,0.05453869661422253
32.22373999999999,9.18356508784028,0.054090956706659636
32.228328000000005,9.219012768362658,0.05367190363164986
32.232924,9.248653146608081,0.05323890935190652
32.237511999999995,9.2733856570242,0.052792802554339824
32.24211199999999,9.282461227687866,0.052368542867098626
32.246692,9.275757673884941,0.051970103088524455
32.2513,9.25993759089139,0.051579438881085696
32.255880000000005,9.230015067612392,0.05121826072896642
32.26048,9.188810592105037,0.050877673312801464
32.265072,9.13644634908347,0.05055225329509902
32.269672,9.070101850490605,0.05024695150051255
32.27426,8.991575965221735,0.049960424384040705
32.278856000000005,8.911617765200004,0.049655551006198874
32.283452,8.822543035987652,0.0493526780749987
32.288048,8.719243681775707,0.04907680871642828
32.292632,8.6064612442307,0.048816582980025475
32.297224,8.487549091714932,0.048581037007994404
32.301807999999994,8.355433933361367,0.04836695436897676
32.3064,8.210770834189358,0.04818489868680185
32.310976,8.067784419198501,0.04800107218526242
32.315568,7.919812093112821,0.047831181679992694
32.320148,7.766320975627107,0.04766045185890565
32.32473999999999,7.606700143170634,0.04751647197244696
32.329331999999994,7.439805791867459,0.04741193659845982
32.333907999999994,7.275365374478938,0.047316900061307995
32.3385,7.1173431829380975,0.04721020352046382
32.343087999999995,6.960220425844905,0.04709617994798063
32.347668,6.800154995980476,0.04699119361388965
32.35226399999999,6.642421315316556,0.04690207893200941
32.356852,6.488940437462582,0.0468218546905581
32.361459999999994,6.336769689647321,0.046766457731589606
32.36604,6.193060406003328,0.04668285530315336
32.370636000000005,6.043099222674427,0.046640129918456015
32.375236,5.9004556996408555,0.04658551396390703
32.379828,5.763208783293171,0.04652991478184972
32.384424,5.635733461155468,0.04648434389157935
32.389,5.510956442360709,0.046437647617251124
32.39359999999999,5.39427433359478,0.046391393849822056
32.39817599999999,5.286708754019474,0.04634000662610509
32.40277999999999,5.178776620301731,0.04630956654292103
32.407371999999995,5.0732984204986415,0.04629485974236474
32.411964,4.975792946010237,0.04628839937367449
32.416560000000004,4.8884256198742495,0.046267921527245265
32.42115199999999,4.80502258567129,0.046223190006043004
32.42576,4.729303765906097,0.04614280351085866
32.430356,4.653096207284321,0.04609583924147522
32.434944,4.578443148129549,0.046063258131171805
32.439536000000004,4.513928237327195,0.04601580367995446
32.444124,4.452355999296077,0.045949864145886046
32.448719999999994,4.390661576550812,0.04589300107987433
32.45330799999999,4.333708695472078,0.045819795405296244
32.457892,4.269237926118352,0.04584246984715128
32.46248,4.210285948164659,0.0458614844253541
32.467072,4.151989035230322,0.0458982841809429
32.471667999999994,4.098311479248371,0.04592548029894598
32.476252,4.041280554904119,0.0459302068360645
32.480847999999995,3.9897684219598997,0.045925310161501996
32.48543599999999,3.9372346698538867,0.045931586060198225
32.490027999999995,3.8813475493855747,0.04591082434271088
32.49462,3.8264820480790562,0.04587992883174912
32.499212,3.7726381659343304,0.045838456462933594
32.503820000000005,3.7169954148943094,0.045794804124345376
32.508399999999995,3.6549344380066078,0.04575597744353033
32.512996,3.5953273950335585,0.04574151522260372
32.51759199999999,3.529712821803894,0.0457814104176706
32.52217999999999,3.4633209988407265,0.045815329185216046
32.526776,3.3959075567157657,0.045864075332585914
32.531368,3.3220758887431248,0.04591959869125814
32.53596399999999,3.247100416894544,0.04600196609147025
32.540544,3.171469880026607,0.04605661265200622
32.54514399999999,3.0949399087110225,0.046110658709824254
32.54973199999999,3.022085718451546,0.04606192198023716
32.554332,2.9476770287250664,0.045978297790055495
32.558916,2.8695484164938487,0.04590785098990415
32.563500000000005,2.783857774539012,0.045882061883047345
32.568088,2.698044947870028,0.04586497923006883
32.572683999999995,2.6056917106392192,0.04587675525118284
32.577271999999994,2.5126834083890532,0.045846678824684926
32.581864,2.419186367282305,0.04589310016243687
32.586451999999994,2.3238904572802603,0.04593631631284851
32.59103999999999,2.2287167319923626,0.045945600799567624
32.59562,2.13252138754267,0.045983723561588044
32.600212,2.039024346435922,0.046022186683715466
32.60479599999999,1.94115231780508,0.04603660866485939
32.60938399999999,1.8444240930501772,0.04601626060058906
32.61398,1.747940237723566,0.04592216472501935
32.618568,1.6515785671111,0.04359483268143196
32.62316,1.5606135031845214,0.04127103777417329
32.627748,1.470792243133882,0.03893261446683348
32.63233199999999,1.3817482328167447,0.03661391469180395
32.636928,1.292826407213753,0.0342977077496695
32.641516,1.2044374619159723,0.032022125138607443
32.64612,1.118746819961135,0.02977107392050855
32.650712,1.034199981882237,0.027507488846483723
32.6553,0.957092988812813,0.025211209517248357
32.659896,0.882562114372187,0.022920124299487445
32.66448799999999,0.8126505968839459,0.020612082321431576
32.669084,0.7432719597009156,0.018335900792357872
32.67366799999999,0.6768359952891204,0.01601065899380117
32.678268,0.61669607201086,0.013691270475981714
32.682856,0.5581106481996041,0.011408580992550828
32.68746399999999,0.5043889507690245,0.00909994812635082
32.692052000000004,0.45168887250023815,0.006795576314028407
32.696652,0.40720588897442833,0.004502901771767593
32.701244,0.3661984585250641,0.00222052329803012
32.705839999999995,0.3287887658662913,0.0
32.710432,0.2958762454457578,0.0
32.715028000000004,0.26181992114928515,0.0
32.719616,0.228418661872169,0.0
32.724208000000004,0.1986151403856442,0.0
32.728796,0.17157289899065511,0.0
