Time,Force,Position
33.408212,2.1159424490887293,0.03925866120926944
33.412816,2.111523320116007,0.0390778472439377
33.417396,2.108903060038581,0.03890542625363941
33.421988,2.105505550227653,0.038704888188442456
33.426576,2.0976108681784855,0.03848029054011163
33.431176,2.086773513358084,0.03827849872437992
33.435756,2.069517932690001,0.03806070202991134
33.440356,2.0540612209172133,0.037847153001702265
33.44494,2.0407699321821586,0.0375806335985461
33.449532,2.024125275084804,0.03725180048621478
33.454128,2.003882880196858,0.036892301411714984
33.458724,1.9771000747470857,0.03652854092639854
33.463312,1.952482692335046,0.03610381252367114
33.467904,1.9278653099230063,0.035668160799558125
33.472484,1.9004274394538774,0.0352155765860298
33.477068,1.8683702120323633,0.03473552155379478
33.481656,1.8289953243155213,0.034184052883538395
33.486248,1.783735091056209,0.033635093605344196
33.49084,1.7336111314162208,0.03307817013827306
33.495432,1.6810332378615807,0.032390160019021105
33.500024,1.6282109748786486,0.03172631565487412
33.504612,1.575388711895717,0.031025699588668833
33.509204,1.5192130805504849,0.03016430486651453
33.513792,1.4658579372623421,0.029277562908765785
33.51838,1.410337370936467,0.02836152992822957
33.522972,1.356737858220033,0.02740860149294431
33.527556,1.3036712258088097,0.025654286081666894
33.532144,1.2485613550739993,0.02392195810155074
33.53674,1.1943509187868369,0.022211558976249726
33.541324,1.14361603557612,0.020537223862906934
33.54592,1.0962345207277033,0.018877576291213265
33.550508,1.0547824928703848,0.017250435847950468
33.555104,1.008388695366872,0.015671996025003774
33.559684,0.9674356459978749,0.014127144568926834
33.564288,0.9357654519822755,0.014950567343135782
33.568876,0.9103132558346938,0.01617177450727833
33.57346,0.8954540450792232,0.0178178082823328
33.578044,0.892575993020094,0.019698753869821093
33.58264,0.9016790996573065,0.02175847023278971
33.587228,0.9165114653059536,0.024213825865358616
33.591824,0.9356407752131769,0.026932968963140562
33.596416,0.9570679325040172,0.0301832602691394
33.601008,0.9877440433313662,0.03390170874508285
33.605596,1.025092989066426,0.037923001354644846
33.610188,1.0741006808040185,0.04220691371528431
33.614768,1.129126142429965,0.04674736117154317
33.61936,1.1964212736291728,0.05211260664423177
33.623944,1.2699785441450262,0.05766513101606302
33.62852,1.3440347931492012,0.06349357121856451
33.633112,1.4178127709081951,0.0695905076244528
33.637692,1.5038604182404507,0.07557880250314362
33.642276,1.5926946518129057,0.081700277834039
33.646872,1.6957976518335807,0.08771584069033148
33.65146,1.7981675435693816,0.09380778498791405
33.656044,1.895962219801426,0.09775851760047426
33.66064,1.9999307524528593,0.10125296677066871
33.665228,2.106475403733091,0.10437698732161772
33.669832,2.210365893119007,0.10742279924782379
33.67442,2.3098033517153116,0.11045623510123113
33.67902,2.412716363388062,0.11320116847115166
33.6836,2.520781612318408,0.11565926943365364
33.6882,2.637630738113831,0.11747480896049282
33.692788,2.7479733551643166,0.11902778696427806
33.697388,2.855529385974603,0.12028209372611731
33.701972,2.964673818068783,0.12122038890689293
33.706564,3.0782271395039458,0.12179841742273849
33.711156,3.1853180936427994,0.12240058866829913
33.715748,3.2945303293707577,0.12276758252243102
33.720336,3.4086843347449105,0.12281350463513048
33.724928,3.5288017289270504,0.12252427641520773
33.72952,3.6351390955175527,0.122457418771529
33.734104,3.7376682567060615,0.12227359235330572
33.738684,3.8316918122746753,0.12223341868266578
33.74328,3.9208075000139835,0.1222041647267005
33.747864,4.014987142113632,0.1219100247675695
33.752456,4.101682797755179,0.1217329538180796
33.757048,4.1820382708145605,0.12160658370376873
33.761628,4.265903198767279,0.1212701418207922
33.76622,4.348536039946801,0.12080655187783418
33.770808,4.424173633524805,0.12038749235199196
33.775396,4.493426903072016,0.11996261163528353
33.779996,4.550332459780448,0.11975722259443707
33.78458,4.608626189793112,0.11948609543294836
33.789168,4.661112617528824,0.11927773857082154
33.793764,4.702639505729987,0.11920802610120472
33.798348,4.731163616073014,0.11931928837895178
33.802944,4.756168031890969,0.1194105426690761
33.807532,4.774055015393258,0.11954215348798612
33.812132,4.785068936008174,0.11968989329131428
33.81672,4.788310359288067,0.11986445087024218
33.82132,4.799558409699534,0.1197957755626369
33.825908,4.8081862000335756,0.11969488448300185
33.830508,4.815459718880275,0.11951679663269872
33.835104,4.826487062048602,0.11914361639669814
33.839692,4.8311742226347665,0.11880529651204899
33.844272,4.831442254248207,0.1184590823152277
33.848864,4.831666144413021,0.11805294070453896
33.853452,4.822607179224438,0.11773669552906112
33.858048,4.81170520369193,0.11738461948670689
33.862636,4.799737467549,0.11699405450022175
33.86722,4.786337416653211,0.11659608493016435
33.871812,4.772893224308794,0.11613454019911103
33.876408,4.757606021620455,0.11563678050216264
33.880992,4.7429297425028425,0.1150831110181548
33.885584,4.729275082547023,0.1145018772182572
33.89018,4.7166420417529995,0.11389118590811471
33.894768,4.704619924529703,0.11322397072127548
33.899368,4.6892444389441055,0.11258063422189299
33.903944,4.669782476711333,0.11202859860263432
33.908532,4.650076145050272,0.11149498104225247
33.913128,4.621786164503796,0.11111917447078175
33.917716,4.593251814529029,0.11076219830827293
33.922324,4.566271964021267,0.1103969133669913
33.926916,4.533939648276245,0.11016659101983778
33.931504,4.501118593674641,0.10997794145093849
33.9361,4.4717730921494825,0.10974645818842631
33.940696,4.438585483405442,0.1095858568857708
33.9453,4.407729623861908,0.10941812658820509
33.949892,4.381248751842466,0.109191699538607
33.954484,4.358243432899471,0.10892280860012542
33.95906,4.332706136776306,0.10874443555111082
33.96366,4.307335166815914,0.10862078732678629
33.968236,4.282130523018297,0.10854924785035551
33.972836,4.261833747049985,0.10844416439303389
33.97742,4.245911958605765,0.10828716556912042
33.982012,4.234365157685638,0.10808025410256422
33.986608,4.223761932661789,0.10792618889828695
33.9912,4.219743259648393,0.10773182013625314
33.9958,4.2227978775020345,0.107451771021837
34.000392,4.224997202356658,0.1072490723861331
34.004972,4.233248198916524,0.10698340831267839
34.009564,4.248328116915134,0.10665877435021029
34.014148,4.263696545790666,0.1063814746623221
34.01874,4.283073408047853,0.10608714621925908
34.023328,4.311200245353228,0.10570455021673625
34.027916,4.3391268546789385,0.10540841732062427
34.0325,4.374415265748607,0.10507222911645488
34.037076,4.414367175219288,0.10473611873572745
34.041668,4.454241041424452,0.10448658172348933
34.046256,4.49313742991645,0.1043264071569976
34.050836,4.539762174294842,0.10409648682343059
34.055424,4.596402882311507,0.10374456267778966
34.06002,4.657174208423974,0.10337519296487156
34.064604,4.716312991803918,0.10308756034669436
34.0692,4.776517535794285,0.10285205982758211
34.07378,4.8361111562139225,0.10267001151510963
34.078372,4.895216037776978,0.10252384883843467
34.082964,4.957796472416478,0.10235846836816677
34.087552,5.022175775951274,0.10218314011419342
34.09214,5.090519371419099,0.10193571040740917
34.09674,5.158496412744487,0.10172368999789323
34.101332,5.224674585174579,0.1015441204025873
34.105928,5.2908527576046716,0.1013655949705016
34.110516,5.359196353072496,0.10114583919340793
34.115108,5.4199779188167,0.1010320998808767
34.119704,5.4898318723029025,0.10077606846811314
34.124304,5.560296749359833,0.10048733314776133
34.128896,5.629451496378049,0.1001881460429814
34.133488,5.697540482785843,0.09986044431350988
34.13808,5.7646858932973615,0.0994886836817049
34.142664,5.824347317350777,0.0991499259371468
34.14724,5.874114962480067,0.09890915251544771
34.151836,5.919096924494199,0.09867744690037766
34.156428,5.9615808111450495,0.09840347289275958
34.161016,5.998623949661385,0.09812841189305682
34.165608,6.036644565890889,0.09779125303198523
34.170196,6.077808082871288,0.09735369477344878
34.174792,6.113653036431318,0.09691437717621056
34.179384,6.142791253266747,0.09650482476659569
34.183976,6.169719905615815,0.09608888571417075
34.18858,6.195827166782753,0.09562860558651207
34.193168,6.215227691225091,0.09519405254632896
34.197764,6.232663020609359,0.09473487997381022
34.202356,6.2451904821643245,0.09428878556738265
34.206944,6.256363672231946,0.09377550095310337
34.21154,6.2544118997272875,0.09334544647599617
34.216132,6.244731771336238,0.09295243137734949
34.220732,6.228100536792295,0.09259562605992272
34.22532,6.205051076400671,0.09229137548648951
34.22992,6.18134655098969,0.09197654102759284
34.234504,6.161728502225885,0.09160272640071947
34.239104,6.1418219425851595,0.09119374254170456
34.243688,6.121260317925078,0.0907733558172265
34.248288,6.10057650855085,0.09035872070907715
34.252884,6.078093830281326,0.08995355523126382
34.257476,6.050869610345272,0.08959473031392713
34.262064,6.016860610419101,0.08930943727212587
34.26666,5.978520764417464,0.08909458862398771
34.271244,5.944678090654066,0.08884547847882145
34.27584,5.911857036052462,0.08857951945313035
34.280428,5.876093308679623,0.08834453369950526
34.285012,5.8429056999355815,0.08809699478021878
34.289604,5.80947372176325,0.08786289393783414
34.2942,5.780416731115011,0.08760402032866525
34.298788,5.753202750810696,0.08738004207546878
34.303384,5.729097769440389,0.08716170425217758
34.30798,5.709123406165886,0.08693582707638572
34.312556,5.698387756796151,0.08663383781654747
34.317148,5.697013006045332,0.08624937176571232
34.321736,5.69964668867617,0.08586980256810435
34.326316,5.703468316631575,0.08552112728297816
34.330928,5.713752311883289,0.08517663004027497
34.335516,5.728944174964307,0.08483250613353839
34.340112,5.74736722169348,0.08449211298257069
34.3447,5.775439677918488,0.0841119747234924
34.349284,5.81262866333412,0.08367749383096913
34.353884,5.859467058245588,0.08320524877180457
34.358476,5.916199232081182,0.08267933119763507
34.363068,5.976284774279075,0.08216127376057562
34.36766,6.038457696249184,0.08167415675045528
34.372248,6.106193551067953,0.08120072112138868
34.376828,6.181902131201408,0.08070240243011195
34.381428,6.266482871097193,0.08017730715857163
34.38602,6.351352121869899,0.07969398332208685
34.390616,6.445337901833231,0.07917214252723623
34.3952,6.5442315496258665,0.07865484184022493
34.399796,6.6492990538378915,0.07812705872977926
34.404384,6.751057331136244,0.0776599452499789
34.408976,6.852082500149724,0.07724825073771442
34.413568,6.950164996391968,0.07686579413773802
34.41816,7.050168546243652,0.07647822040813794
34.422748,7.151315899971277,0.07608516100860442
34.427332,7.254506492022489,0.07568394095848785
34.43192,7.360639756844935,0.07527016114783358
34.436508,7.463952533610293,0.07488560458266587
34.4411,7.564977702623771,0.07454581088890481
34.44568,7.663548937722599,0.07421480429163738
34.45028,7.756967935563829,0.07389907325465372
34.45486,7.847033565042759,0.07359293099311803
34.459452,7.9365663142164795,0.07327789168215078
34.464036,8.024256053046276,0.07293669903184699
34.468628,8.104994685723181,0.0726155821039067
34.473216,8.176983343351898,0.07231869961358735
34.4778,8.249050044246133,0.07198589372330919
34.482388,8.309546282035091,0.07168777466385844
34.486984,8.36946549807021,0.07134590479333891
34.491572,8.420101858751934,0.07100936389229255
34.496176,8.468773024375587,0.07064974015293107
34.500756,8.512003441864723,0.0702720580746814
34.505356,8.556211337067026,0.06985379786904085
34.509944,8.593834680258873,0.06943106518396265
34.514548,8.625772905887914,0.06900253675929577
34.51914,8.648061722021119,0.06858989161289157
34.523736,8.662866551696224,0.068173490660912
34.52832,8.669410145179723,0.06774654659433658
34.532912,8.666138003004612,0.06730204147641426
34.537504,8.65346082076196,0.06685767020076287
34.542096,8.634976336242355,0.0664037491662217
34.546688,8.610440180017505,0.06595113020291618
34.55128,8.578420037334554,0.06548704622897188
34.555868,8.538427169336916,0.06503094971107183
34.560456,8.495325302405272,0.06455729746090567
34.565044,8.44629394848253,0.06407430179603181
34.569636,8.389167684530955,0.06360240237174572
34.574228,8.332774528864256,0.06309275468947236
34.578832,8.266121040130994,0.06261142976022226
34.583424,8.196647063340642,0.062133247015104705
34.588012,8.127295271264435,0.06164445313559244
34.592608,8.05626679500708,0.06114622552980288
34.597196,7.980741146511481,0.060648732824636765
34.601788,7.905992747749388,0.060148358484606576
34.606384,7.8247039384254675,0.0596596368036642
34.610972,7.74840104019637,0.0591345463044708
34.615568,7.668666730339455,0.058638472217017124
34.620156,7.593185223292487,0.05813969371681211
34.624744,7.522733768788969,0.05764222425374185
34.62934,7.456168562952962,0.057160266478559034
34.63394,7.39757608243164,0.0566686731566066
34.638532,7.341437535824971,0.056179064507775676
34.643112,7.289185237885811,0.0557066403454955
34.647712,7.245927284423131,0.05521991869236613
34.6523,7.204756710732665,0.05475444470724413
34.6569,7.173768426843247,0.05430410939410241
34.661484,7.144745338011897,0.053880596214856025
34.666084,7.120630117009852,0.05347396421528054
34.670676,7.107185924665435,0.05306196292134554
34.675272,7.101592272921558,0.052653813874213154
34.679856,7.096409316768746,0.05226798230309168
34.684452,7.09805528205468,0.0518952317529558
34.689048,7.106407984065214,0.051542086529155234
34.693648,7.1226112266762875,0.05119942971921658
34.698236,7.149363313230844,0.050862475062541365
34.702832,7.17861347514868,0.050578974701997244
34.70742,7.218779035152436,0.05028616372179757
34.712008,7.266017886023229,0.05000114819515207
34.716596,7.315344116666237,0.04974510669857789
34.72118,7.374930680375808,0.049473588273050643
34.725772,7.4339063205146525,0.04923436083689404
34.730364,7.498156382625237,0.04900242405152053
34.734964,7.567680866707564,0.04877758340409197
34.739552,7.640436534438045,0.04857499702871838
34.744144,7.719488243302061,0.048375044049930434
34.748732,7.8005831904896645,0.048168861586275834
34.75332,7.8909168515820385,0.04795338912434602
34.757928,7.97986233937018,0.04776296151144622
34.762504,8.06496571993944,0.04758646509062255
34.767108,8.148148046899259,0.047417724442775956
34.771704,8.23288487332608,0.047260950743650325
34.776292,8.31353522310573,0.04712662051737499
34.780884,8.389566215932993,0.046999204403031
34.785476,8.455991940713048,0.046897815429914225
34.79008,8.523561469369044,0.04678986220430017
34.794656,8.585978760767443,0.04667143844491529
34.799256,8.640956207156368,0.046563444786879536
34.803844,8.686328385498086,0.046479991860185546
34.808448,8.731167683534595,0.04638203696877426
34.813036,8.763947779609246,0.046298778992376374
34.817636,8.790309649836216,0.04621912851690441
34.822232,8.810131109501356,0.04614861006996649
34.826824,8.819159355794724,0.04607612375127896
34.831408,8.812286292907348,0.04602515045172733
34.836004,8.793354028058117,0.04598660916291173
34.840592,8.76134094208523,0.04596493197578941
34.845188,8.71661358913113,0.0459447636155315
34.849776,8.661992457252902,0.045922045527901426
34.854364,8.601075284241139,0.04589681518237276
34.858952,8.532962635648195,0.04586864322267456
34.863536,8.456755077026418,0.0458380064675009
34.868124,8.370775924194662,0.04579929659537638
34.872712,8.277479111067578,0.04576248646441089
34.877304,8.177109007073454,0.0457191334650696
34.881884,8.0605932244703,0.04570804752698298
34.886476,7.9358603471241675,0.0456985152388306
34.89106,7.805075798072791,0.04567316292731801
34.895648,7.667462327582671,0.045627895149578705
34.900252,7.519055643720776,0.0455728624152898
34.90484,7.3651301684588475,0.04551828030313222
34.909428,7.20335415259638,0.04544510649645311
34.914024,7.0363037147621705,0.045359255505258225
34.91862,6.871174330537403,0.04526075007787161
34.923228,6.706411500455072,0.0451421721798409
34.927828,6.542015224515179,0.0449977314992724
34.93242,6.375165014660633,0.044830988915933685
34.937008,6.207171000930147,0.04467167843938418
34.941604,6.04007642164731,0.04450600322985772
34.946192,5.870039169593238,0.044345629417219465
34.950788,5.701023536700959,0.04416581204325039
34.955372,5.528287981303944,0.043983349912369685
34.959972,5.361848467040463,0.043798637641447764
34.964556,5.200028309729366,0.04360026044858591
34.969148,5.044215682674887,0.04334793663888539
34.973744,4.891467913105789,0.04306384455537534
34.97834,4.743217315774928,0.04277090941364926
34.982936,4.597420652358719,0.04248108276879219
34.987536,4.454077922857162,0.04219616806366256
34.992132,4.31678686506085,0.04192038310127891
34.996728,4.182971360340983,0.04164755779804059
35.001316,4.0577836459551575,0.04140882501451541
35.005904,3.936193669359924,0.04115624524814376
35.010492,3.8150143883557552,0.040940240315260806
35.015088,3.7042176251322956,0.04067739313117802
35.01968,3.5956304263951973,0.04045366304564541
35.024256,3.495915387420432,0.04024584075864635
35.028852,3.398121402055108,0.04001805769783307
35.033428,3.305846208089816,0.039776492254960966
35.038024,3.2217881088675004,0.03953324612045554
35.042616,3.1372412707886026,0.039327006226181564
35.047204,3.062954765776268,0.039092833590301565
35.051816,2.986869391868638,0.038839759956986936
35.056404,2.910661833246862,0.038585634117553023
35.060992,2.8338433510543566,0.03837773565282308
35.065588,2.7633209099953877,0.038177310924893224
35.070176,2.6965183914411552,0.03796036861986973
35.074768,2.626773200115688,0.03774595516700292
35.07936,2.5666332768374276,0.037469523143153514
35.083956,2.503550680787933,0.037198289402946096
35.088544,2.4434107575096724,0.03688663897475414
35.093144,2.3829823233544927,0.036457593792857165
35.097732,2.323086769504523,0.036066489016711674
35.102332,2.261758900901696,0.03557607951719196
35.10692,2.192624633146957,0.03508794069781281
35.11152,2.1248785386964486,0.034490276042009375
35.116116,2.0544341409029965,0.033838548252890926
35.120708,1.9877096656142812,0.03314547206759105
35.125288,1.9180425175543316,0.03241920498001566
35.129884,1.8438781972561427,0.03157594493930948
35.134472,1.7727787344433343,0.030616858055469064
35.139064,1.6959161108022018,0.029563897059675406
35.143652,1.620852356056365,0.028404799448159105
35.14824,1.5438675477010868,0.026589623825407964
35.152824,1.4677821737934567,0.024779904194780548
35.15742,1.3907973654381787,0.022979915970046404
35.162004,1.311891503473459,0.021208804449043488
35.1666,1.2441454090229507,0.01944831407356568
35.171192,1.170391784315827,0.01775610700381558
35.175776,1.1024013204370269,0.016068517684512874
35.18036,1.0360875407393775,0.014423555997047647
35.184944,0.9713282605087321,0.012876671580611638
35.189532,0.9057917305445845,0.011319063081266893
35.194128,0.84156533061915,0.009843352580576867
35.198716,0.7815917335036634,0.008419917615712884
35.2033,0.7212515822457399,0.007089323006441501
35.207904,0.660667061559525,0.005815866197359433
35.212492,0.5990609217115164,0.004603083549795236
35.217088,0.5411747043682452,0.003445841003739331
35.221676,0.4867640401014195,0.0024091652208423405
35.226276,0.4349294944633918,0.0014781833384843953
35.230864,0.3874407076842882,0.0006737370451371407
35.235456,0.34394544150338247,0.0
35.24004,0.305573183914903,0.0
35.244644,0.2714388163529128,0.0
35.249228,0.2411465560098054,0.0
35.253824,0.21420766402899796,0.0
35.258416,0.18330448011516215,0.0
35.263012,0.1558476206126026,0.0
35.2676,0.12916801084354523,0.0
35.272196,0.10338783552213567,0.0
35.27678,0.07928434438187616,0.0
35.281368,0.05980021019400158,0.0
35.285956,0.044280367939155414,0.0
