Time,Force,Position
36.713396,0.21964273249354693,0.0
36.717984,0.2046747595773423,0.0
36.722572,0.19546994748946178,0.0
36.727168,0.18524351623978771,0.0
36.731756,0.1768159538854094,0.0
36.736352,0.1723526834640595,0.0
36.74094,0.16932172779556828,0.0
36.74554,0.17091012907946201,0.0
36.750132,0.17111035705912525,0.0
36.754732,0.1717212806298536,0.0
36.759324,0.17082184618220578,0.0
36.76392,0.1634261426213598,0.0
36.768504,0.1574627538133725,0.0
36.7731,0.1497446375587176,0.0
36.777688,0.13900580526731032,0.0
36.782284,0.14229136999583164,0.0
36.786864,0.14921881396357253,0.0
36.791452,0.16350805967527002,0.0
36.796044,0.18131699991204148,0.0
36.800628,0.19855915802671267,0.0
36.805216,0.21932101066645776,0.0
36.809812,0.250142968393103,0.0
36.814404,0.2774554712264132,0.0
36.818996,0.3080093973396166,0.0
36.823596,0.3479786031521024,0.008080102576461032
36.828184,0.3990397728450207,0.016049488062352468
36.832776,0.45837241836128223,0.02417065812093168
36.837364,0.5238111166631544,0.03251412840537361
36.841952,0.6076152976921594,0.040395100283237034
36.846548,0.701079127848738,0.04825506907717815
36.851136,0.806490214884769,0.0560486108703981
36.855724,0.9305111540762241,0.06363476358485129
36.860312,1.069177653490075,0.0710234003606403
36.8649,1.220690844231026,0.0783551135808669
36.8695,1.383374042117927,0.08568136205628855
36.874076,1.5397714385030314,0.0931428590133942
36.878676,1.7003877358811952,0.10066287160212525
36.883264,1.8644456845189146,0.10819704468999089
36.887864,2.0323559800072557,0.11579975398898994
36.892452,2.2091825767065583,0.12339082406927993
36.897052,2.392760051579088,0.1309619710422632
36.901636,2.579001927977673,0.13853072703921984
36.906232,2.776203343910806,0.14603003719901553
36.910824,2.9757262694127062,0.15343211628857512
36.91542,3.1725406519399244,0.15265108641085762
36.920008,3.3628824275390947,0.15188150146778423
36.924604,3.5492835733903876,0.1508224947013252
36.929192,3.729456481741924,0.14950842065701045
36.93378,3.8945731342799994,0.1486464643918053
36.938368,4.0497416268135815,0.1477744286691728
36.942964,4.194473220486089,0.14695847883340532
36.947556,4.324637297201718,0.1463245808580773
36.952152,4.435736684722232,0.14592737337254105
36.956744,4.532879478856596,0.14555179243612934
36.961324,4.615943494890662,0.14518368230782233
36.96592,4.688282101186731,0.14472708126358894
36.970508,4.749895297744807,0.14421461675878136
36.975104,4.798862030955445,0.14370826790255237
36.979696,4.837059212979459,0.14309090506226232
36.984288,4.8705046137052035,0.1424104981101066
36.98888,4.899442602560969,0.1416496321748633
36.993472,4.920764180612748,0.14083128646846213
36.998068,4.930138501785075,0.14009310473209055
37.002664,4.935093693984681,0.13938736954862307
37.00726,4.929455900792176,0.13881074939873947
37.011864,4.916744816732634,0.13836057561859158
37.016452,4.89340684546409,0.13816110602219112
37.021056,4.867859309709187,0.13796603063020166
37.025636,4.838714036163693,0.13784002969184855
37.030236,4.809324393189906,0.1377334774017005
37.034824,4.781078554092057,0.13758492259671679
37.039424,4.751566726404122,0.13748523852579814
37.044004,4.73092705847852,0.1372257174046471
37.048604,4.711763846754406,0.13702416751036608
37.0532,4.696242514269511,0.13681504289325283
37.057796,4.68346362657619,0.13661599367186616
37.062392,4.675103867855589,0.13640278736388367
37.066984,4.674228095593091,0.13609092878541368
37.071584,4.675361659837292,0.1358550072366358
37.076172,4.6754736049196985,0.13564965088887854
37.08076,4.67072182362143,0.13556109055294105
37.08536,4.663926803999573,0.13552664591555225
37.089948,4.6616289566159566,0.13541059710285042
37.094536,4.656388436461104,0.13536441653093836
37.099128,4.656955218583204,0.13524927230666547
37.103724,4.65985374990581,0.13511784960412457
37.108316,4.668926137647807,0.1348792868370415
37.112896,4.6818847740573135,0.13461736710943836
37.117492,4.701794516619711,0.1342464802093696
37.122072,4.7232587586491155,0.1338678350408929
37.126656,4.745255880983729,0.133512048121658
37.131244,4.770362002252352,0.13313448819009444
37.135824,4.791259462159654,0.1328835953920009
37.140432,4.816776279019342,0.13254864143376807
37.145024,4.842415280593174,0.13220522460531534
37.149616,4.873695258281186,0.13174981459333168
37.154208,4.905463974825779,0.13125935981665796
37.1588,4.9297928463608995,0.13091128662091456
37.163396,4.957675314237983,0.1304497764337948
37.167988,4.983514543791479,0.13004215983739206
37.172584,5.009475958059122,0.12962170764701703
37.177176,5.035193002898472,0.12922045631978335
37.181776,5.058211744394879,0.12887040786932905
37.186364,5.084950408396024,0.12845604275985173
37.19096,5.111811257111313,0.12803936942919092
37.195552,5.1371176063596,0.1276279174467112
37.200152,5.163934313626261,0.12715609044992357
37.204748,5.18379991474003,0.12677759108814993
37.20934,5.2004343322056465,0.12642996151168198
37.213932,5.216413684651907,0.12607923232078339
37.21852,5.232515221812312,0.12572307716028044
37.223108,5.246651563914647,0.12534900103677418
37.227704,5.259233406549978,0.12498148337867808
37.232296,5.266785196641859,0.12466872316189193
37.23688,5.277524028933267,0.12428237054622371
37.241472,5.285931112024167,0.12391090811905188
37.246052,5.291517707057978,0.12358855924581068
37.25064,5.305687950977203,0.12311563869079852
37.25522,5.318592206306343,0.12269074930937664
37.259816,5.330841396616126,0.12225826455895418
37.264408,5.34476727110706,0.12181090006581669
37.269004,5.3594703953314955,0.12135921108127311
37.273588,5.37392915012764,0.12092720526239455
37.278176,5.384667982419046,0.12055661247124363
37.282784,5.3934857611010125,0.12022203484676885
37.287372,5.408721765630659,0.11979780251951962
37.291964,5.423957770160305,0.11937976981717087
37.29656,5.445612000537633,0.11887100317429458
37.301148,5.470208903686196,0.11831623381593925
37.305748,5.495949610710697,0.11773830084121918
37.31034,5.520913068001696,0.11716845428763092
37.314944,5.549474263083286,0.11656068300257169
37.319524,5.579301446754961,0.11591520772806928
37.324124,5.609006445712491,0.11527735629923899
37.328712,5.636546021632288,0.11470013395050277
37.333308,5.663186163104436,0.11413823212210196
37.337896,5.695711650119056,0.11348791862272185
37.342488,5.7216967265718495,0.11293358895008962
37.34708,5.744983499681698,0.11241185265261283
37.351672,5.773011814458078,0.11182871671084796
37.356264,5.802428302538688,0.11120785415985776
37.360856,5.837197255856558,0.11048969045022763
37.365456,5.874131632212159,0.10973242903997003
37.370056,5.912209812443701,0.10894976026356537
37.374648,5.953352850160622,0.10812271993740061
37.379244,5.989099281191658,0.10736141200470041
37.383828,6.024723527508546,0.10661830461174177
37.38842,6.061491577701374,0.1058653824541294
37.393012,6.097115824018263,0.1051489492218623
37.397604,6.131840635887504,0.1044490976595068
37.4022,6.169508120527979,0.103719897058293
37.406792,6.207053420454308,0.10301073657322933
37.411384,6.247174839009436,0.1022932700510633
37.415972,6.294081037554682,0.10150269064976383
37.420564,6.337511683023482,0.10073721301156202
37.425152,6.382374643245141,0.09998467860457999
37.42974,6.420208454048391,0.09933698662558405
37.434336,6.4645826754134665,0.09862935043894588
37.438924,6.513576253730928,0.09788437661681143
37.443532,6.555785052058272,0.0972226386196843
37.448112,6.597627296243178,0.09659160584548705
37.4527,6.631663141276173,0.0960591497901188
37.457292,6.664677367147374,0.09554635886849798
37.461884,6.701944395828523,0.09502188987959806
37.46648,6.736923816757794,0.09454541123302981
37.471068,6.777422029087098,0.09402968816261353
37.475668,6.818697491149905,0.09352162683964939
37.480256,6.857929714889123,0.09304912101762836
37.484856,6.8951187003047565,0.09260553254673351
37.489444,6.934639434920895,0.09217067997207246
37.494044,6.96892988901392,0.09180994272788753
37.498632,7.002198723945153,0.09146669735637059
37.503228,7.0353453741622385,0.09113557045225354
37.507816,7.062606678836855,0.09087020820712811
37.512408,7.093343536587917,0.09059063290899227
37.517,7.127267436538505,0.09027419550577334
37.521592,7.170019354802798,0.08987613818338148
37.526184,7.210972404171795,0.08949729192835329
37.530768,7.250248769359643,0.0891285521133013
37.53536,7.299374772022988,0.08867135459212255
37.539956,7.346701905791037,0.08822662736062731
37.544548,7.401713253996853,0.08772283387651318
37.54914,7.456724602202668,0.08722314638762335
37.553736,7.504784844255592,0.08675251960774238
37.558324,7.5542332596127455,0.08625688646065828
37.562924,7.602127175502895,0.0857688166084453
37.567504,7.647811526906684,0.08527482301761084
37.572096,7.6928408132911175,0.08477816545487389
37.57668,7.7383588385321325,0.08425902987609465
37.581272,7.78215603814337,0.08371214097319905
37.58588,7.825786911591832,0.08313154919015546
37.590468,7.865287166944493,0.08255489527307504
37.595056,7.89987955446785,0.08198117834097217
37.599652,7.931118573628906,0.08140979915538388
37.60424,7.9610474627512495,0.08082616791855232
37.608836,7.982759257130616,0.08028709884326454
37.613432,7.996253956767007,0.07979416056616537
37.618024,8.001653746374568,0.07933440836013579
37.622604,8.00447741735333,0.0788812498144982
37.627208,7.997162939979672,0.07848194956035777
37.631788,7.992380439786188,0.07804160734766921
37.636388,7.980035909869081,0.07764747621363519
37.640984,7.965115261323179,0.0772572797413405
37.64558,7.956979392767392,0.07682050335009022
37.650176,7.943446917525718,0.07640268864515833
37.654768,7.924273466169868,0.07601555709182588
37.659368,7.900236288433341,0.0756594956565762
37.663964,7.871579753744428,0.07532342007362418
37.668564,7.843045403769661,0.07498014677492193
37.67316,7.809280773271781,0.07468451686862813
37.677752,7.779602619421075,0.07435146248694775
37.682352,7.7500466502845144,0.07400950320563496
37.686944,7.719469061986161,0.07367282190267949
37.691528,7.694532449801986,0.07330507591574821
37.696116,7.668696403170163,0.07293855581775194
37.700712,7.645803029309574,0.07254916778075463
37.705304,7.620211352106042,0.07216470345702937
37.709896,7.600138466302543,0.07175443871375513
37.714492,7.576345657994306,0.07135813236776704
37.71908,7.559215444962042,0.07092339342605254
37.72368,7.54094142805384,0.07050358928065735
37.728268,7.526509518364517,0.07006044110856145
37.73286,7.518984573379461,0.06957179394046828
37.737456,7.5025094253665525,0.06914538251740003
37.742044,7.489509830430091,0.06871295358034825
37.746648,7.478553473817216,0.06826195796625854
37.751228,7.4752813316421065,0.067767819196871
37.755832,7.478427415314677,0.06725155113553247
37.760428,7.478386456787722,0.06676427172297973
37.765016,7.482964855213152,0.06625850531829648
37.769612,7.484111842010764,0.06579606304786567
37.774204,7.489511631618324,0.06533476526509428
37.778804,7.503006331254715,0.06485631552985278
37.783396,7.5162566614628155,0.06439322937412102
37.787996,7.531061491137919,0.06393914656271621
37.792576,7.547298635565881,0.06349977043560195
37.79718,7.57060907086088,0.06305147009994574
37.801768,7.596495624784678,0.06260692163568672
37.806364,7.62867821984201,0.06214971233116773
37.810952,7.657429403271525,0.06173610844581093
37.81554,7.681849740625574,0.061363432126081335
37.820128,7.709867815770214,0.06098913399066517
37.824724,7.730734556782302,0.060668574855541064
37.829312,7.758386077784505,0.06031452826954029
37.833908,7.785915414072563,0.0599673647366341
37.838496,7.815776499561127,0.05963487157348037
37.843084,7.842206173421876,0.05934276141986957
37.847676,7.864671555349594,0.05907452328922593
37.852272,7.896620020610373,0.05877396426527056
37.856864,7.925625813099919,0.05848889804356206
37.861456,7.954509420875318,0.05820933244533469
37.866052,7.983148659222427,0.057943139296613475
37.870632,8.009866843960094,0.05768904443567411
37.875232,8.03376454064067,0.05744510000420505
37.879812,8.057540052607102,0.05720812614290375
37.884404,8.085279856506563,0.056954221959955365
37.888992,8.11391909485367,0.05670285560022008
37.893572,8.139615660429543,0.056466618548598434
37.898164,8.16633384516721,0.05622710598346972
37.902752,8.193174214619024,0.05598300327789943
37.907344,8.225777744899158,0.05571829132183522
37.911936,8.249797626293883,0.055483211338485446
37.916516,8.275860746012192,0.05523628914806974
37.921116,8.298981192959268,0.055003565591079634
37.925708,8.324922127963431,0.054765157184882576
37.9303,8.348164759624652,0.054529984466004384
37.934884,8.372673379875959,0.05427951997730592
37.939484,8.398325804003203,0.054018566776497585
37.944076,8.413717895063884,0.05378221633874582
37.948672,8.432952093343449,0.05353373446900337
37.953256,8.453330095498952,0.053274799145587
37.957852,8.47215359818745,0.0530080778021397
37.962444,8.485458309475918,0.0527504327238007
37.96704,8.495043098259645,0.05249863045240224
37.971628,8.503850637309874,0.052242994578823636
37.97622,8.502153473865246,0.05201806691869536
37.980808,8.492117030963497,0.05180710250801219
37.985404,8.482691511632478,0.05157057741504618
37.989992,8.469546069796717,0.051340871688736245
37.994588,8.456522812675106,0.05110589622243855
37.99918,8.437447883848249,0.050862393830350086
38.00376,8.418495139735539,0.050611674041137165
38.008352,8.3955781036898,0.05037605734320763
38.01294,8.369962764301118,0.05013952829640599
38.017532,8.337029764617107,0.04990880663371181
38.022128,8.29947740798071,0.04968205615844176
38.026712,8.259226748001371,0.04945436048869001
38.031324,8.215256165517294,0.049230335300186584
38.035912,8.171163398319072,0.04900884477890097
38.0405,8.11668811334014,0.04880749502238348
38.045084,8.059270155589974,0.04861501018546941
38.049684,7.997355025601569,0.04841961803388944
38.05428,7.929432365356547,0.0482492952029059
38.05886,7.864330193168617,0.04807072370675479
38.063452,7.7906443720952705,0.04791168299287044
38.06804,7.719779039079014,0.047744839838522624
38.07264,7.645848848577377,0.0475929577519309
38.077228,7.565544573676688,0.047483373475028255
38.081836,7.479354953233531,0.047394537493778234
38.086424,7.386624922228546,0.047313726337313886
38.091024,7.293528337081124,0.047245987736249204
38.095608,7.200431751933702,0.04717600526218331
38.100196,7.104636863443336,0.047104726421065564
38.104784,7.008597605524678,0.04704313688011244
38.109384,6.9121917934635855,0.04699822618626685
38.113972,6.820160968926586,0.04695864601949379
38.118568,6.723022048580616,0.04694848769235058
38.123156,6.6235955204827714,0.046963354405022674
38.127748,6.523025188508985,0.04699111226448156
38.132336,6.427973647935232,0.0470141116859026
38.136928,6.327036761819011,0.04706574444657499
38.14152,6.226632756008,0.04713511200158408
38.1461,6.135056768510691,0.04716490673959425
38.1507,6.042459161851591,0.04719853112611853
38.155288,5.954603096859021,0.04721918438719003
38.15988,5.864948162971155,0.04723750725709705
38.164468,5.781178574625759,0.0472281125307405
38.169048,5.697408986280364,0.04722244416331069
38.17364,5.618380939601499,0.04720237616108009
38.178236,5.539763588513699,0.04721425111233298
38.182824,5.458980814388166,0.04725024309829657
38.187412,5.3781980402626335,0.0472842484537836
38.192004,5.302934057537133,0.04731030884499164
38.196608,5.228691693973426,0.0473275445532783
38.201188,5.1575141878951,0.04731996261222955
38.205784,5.079674086540803,0.04733903902732437
38.210364,5.0059204618336794,0.047325253805856796
38.214964,4.937274932935523,0.047268460520158206
38.219552,4.870672642360954,0.047193858904990726
38.224144,4.806113590109971,0.047099533775749464
38.228736,4.749483121725046,0.04695272780096592
38.23332,4.690931599730678,0.04681214837993388
38.237908,4.623918613565045,0.0466895652198713
38.242504,4.556783442685266,0.046573156503348444
38.247096,4.489526087091339,0.046462469670553966
38.251696,4.423945415678563,0.04635850511354557
38.256284,4.354522637046906,0.04626690667708501
38.260872,4.2863658470053325,0.04614454365574469
38.26546,4.213345330583082,0.046048670537761585
38.27006,4.140691368303269,0.04592322542933249
38.274648,4.067382341004101,0.04577466211965321
38.279232,3.9911306409336964,0.04564205584209992
38.283824,3.9121806375203483,0.045501265335452165
38.288412,3.8292663421739723,0.04539092974237992
38.293004,3.7398116362657694,0.04529033175739924
38.297588,3.6567310147566197,0.04508512527992594
38.302176,3.567765047705,0.04491665697201877
38.306768,3.474057538986849,0.044750710236365565
38.311356,3.3767522924781073,0.04456440562272098
38.31596,3.270985581798098,0.044393691317765153
38.320548,3.1584340911279716,0.0442528552297619
38.325136,3.044205916276694,0.04408372058433361
38.329728,2.9345970983778016,0.04388489789774831
38.334324,2.817548435469435,0.04369707641007137
38.33892,2.698578718951627,0.04351541112451805
38.3435,2.5749896454814345,0.04333104703030088
38.3481,2.452422191173035,0.0430938823244923
38.352688,2.3280558679693404,0.042791535525521465
38.357292,2.207898206126966,0.04233402732613972
38.361876,2.090683217055826,0.04177047993376553
38.366468,1.9762887160417748,0.04111675653651855
38.371064,1.8647147030848132,0.040389760520071316
38.37566,1.750075832642471,0.038164425619864786
38.380248,1.6392790694190118,0.035918161161348244
38.384844,1.5337567281672932,0.03368088377537001
38.389432,1.421738117802377,0.03152171863417485
38.394032,1.314583233818137,0.029345492084648057
38.39862,1.209882283748549,0.027195875984059398
38.403216,1.1055920292700263,0.02507740549018831
38.407796,1.0087416198009782,0.02296325925475676
38.412388,0.9210077395225538,0.020849032076839843
38.416984,0.8441892573300495,0.018756838741707357
38.421576,0.7668820362809624,0.016699931578780212
38.426172,0.7035550708031757,0.01463399178446589
38.43076,0.6430485933824783,0.01256460623593251
38.435352,0.5919030145806965,0.01050001964034661
38.439932,0.5438664347129234,0.008492617977205005
38.44452,0.5029031457121874,0.006565748211886557
38.449112,0.461328933140723,0.0047763505935891695
38.4537,0.4222086544839108,0.003097866579202532
38.458292,0.38734117863704665,0.0015156554655887063
38.462884,0.3561936252949193,0.0
38.467476,0.3299097983334685,0.0
38.472068,0.30644645942910687,0.0
38.476664,0.28412692440068454,0.0
38.481256,0.2697359732383189,0.0
38.485844,0.26074162876184037,0.0
38.490444,0.2516250995712162,0.0
38.495036,0.25211383842779883,0.0
38.499636,0.2551786959131794,0.0
