Time,Force,Position
38.838532,0.3243751090217277,0.0
38.84314,0.2956373481456247,0.0
38.847732,0.2689869670417368,0.0
38.852336,0.23828597472817878,0.0
38.856932,0.21478873400692775,0.0
38.86152,0.1935010577720376,0.0
38.866124,0.17250189241406694,0.0
38.870716,0.15959763708492694,0.0
38.875312,0.15070181513744357,0.0
38.879888,0.14226083022965344,0.0
38.884492,0.13374180205634578,0.0
38.88908,0.13025282642648825,0.0
38.893676,0.13539164113067223,0.0
38.898264,0.14417233507407576,0.0
38.902864,0.15773871213263804,0.0
38.907448,0.17506915314456556,0.0
38.912044,0.20090519977638888,0.0
38.916632,0.233203613704521,0.0
38.921228,0.2738074052728858,0.007399855084874078
38.925816,0.3167090442248677,0.015278642636198646
38.930412,0.36526189892276684,0.02321903897139459
38.935,0.42048758852837675,0.031482839187331475
38.939584,0.48504027493601276,0.03939043271854395
38.944172,0.5590504188709449,0.04723435506610931
38.948772,0.6422570988826333,0.054672122080057395
38.95336,0.7347907756963479,0.061946813244848555
38.957952,0.8342416568460644,0.06923257065825715
38.962544,0.9400768620265725,0.07641780987902785
38.967136,1.052174206523726,0.08365432318817613
38.971728,1.1724106024983383,0.09080708392854411
38.976308,1.3061826566362966,0.09775201413738743
38.980896,1.444784535338042,0.10470517785557461
38.985492,1.581920197470039,0.11183425968516511
38.99008,1.7204101310893771,0.1190345012327364
38.994668,1.8594770864625545,0.12633866731215018
38.999264,1.998099444427777,0.13374246584242783
39.003852,2.135255585823252,0.1412309145819273
39.008448,2.2756870523155093,0.14872147561693647
39.013028,2.4172623226837056,0.14877531677965466
39.01762,2.561203244069298,0.1482679862520003
39.022208,2.6996592758717464,0.14772298416052254
39.026808,2.839781752223606,0.1466946538715792
39.031388,2.968123297858788,0.14609480006354453
39.035988,3.0888925741386113,0.1455447930477325
39.04058,3.194938246930521,0.14549784598558566
39.045176,3.2884257392722502,0.14569953443651612
39.049772,3.3741746360958476,0.14581861330518853
39.054368,3.444911418554612,0.14618484324506195
39.058956,3.5098306591046855,0.14638697851578383
39.063552,3.562514131898386,0.14665355612501504
39.068144,3.5983424799833315,0.14713311864114034
39.072728,3.62512210251143,0.1475038057311233
39.077316,3.652913104569585,0.1475518978323806
39.081904,3.6730096525582345,0.14758562428123279
39.086492,3.6938732106486474,0.14734804294829512
39.091084,3.711295117479504,0.14701082916449362
39.09568,3.724742492745594,0.14656006907720295
39.100272,3.7318835872464096,0.14603529054274528
39.104868,3.7308414888211385,0.14557130549472025
39.109456,3.7240701313844324,0.1451249150647706
39.114048,3.7177433713556813,0.14454622796094158
39.11864,3.7007455826693016,0.14422336944351305
39.123228,3.684769413144715,0.1438657609470288
39.127832,3.668548874191837,0.14353681235525081
39.132412,3.6542493888484007,0.1431490219593577
39.137012,3.6448136298856415,0.14259997934033428
39.141608,3.636688000961594,0.14206302038678015
39.146204,3.6369016514946697,0.1412854371243482
39.150804,3.633683890399927,0.1406637620760657
39.155392,3.6328420199543197,0.1400902648956866
39.159996,3.636052724338996,0.13953298288117122
39.164576,3.6393517116209293,0.13913419866672172
39.169172,3.6420397753321336,0.1388161286028091
39.173752,3.6497578915867885,0.13840523626378362
39.178352,3.6566207148424237,0.13810595620607705
39.18294,3.6668369064603583,0.1377528302096098
39.187536,3.6805286511547397,0.13733698412008186
39.192124,3.6950417870312506,0.13699419958394118
39.196716,3.7188377782611597,0.13650551773369882
39.201312,3.7441102256925562,0.1360959117861514
39.205908,3.765995402944763,0.13590086774313165
39.210496,3.7975299896928045,0.13551439223951778
39.215084,3.8354828022885266,0.13498758631712746
39.219672,3.8770333526748413,0.1343919097488876
39.224256,3.9228367058711027,0.13372884406046867
39.228844,3.9667631469065516,0.13319472280529876
39.233444,4.008934860495332,0.13277323389485662
39.238032,4.051150715532741,0.1324385717324989
39.242616,4.100972741742399,0.13199590637964573
39.247208,4.150306029095472,0.13159113923648472
39.2518,4.198617697286753,0.1312097483003513
39.256384,4.249994222963414,0.13073442670579954
39.260972,4.3002269447641375,0.1303160995420521
39.26556,4.35352452405024,0.12983251831926848
39.270152,4.403224365545752,0.12942610341935906
39.27474,4.44932646925067,0.12909497330859154
39.279344,4.493263149917858,0.12884716826898612
39.28394,4.537444200013338,0.12857944281551256
39.288528,4.572753090346483,0.12847378693068157
39.29312,4.607529100374417,0.12834952148902076
39.2977,4.648923564229696,0.128015173416844
39.302304,4.686065225275026,0.12775193312899735
39.306896,4.71781027963447,0.12759150344279863
39.311492,4.7460797809174675,0.1274851088891677
39.316072,4.769807968513598,0.12739464509920784
39.320676,4.79577962241298,0.12717179043717858
39.32526,4.820152635396728,0.12689222700126265
39.329852,4.838429835226606,0.126633473569339
39.334444,4.849589602740816,0.12642560766838487
39.33904,4.8640144557200715,0.12606121044215096
39.343636,4.879538971126637,0.12560055615478585
39.348232,4.888356749808604,0.12521182933892339
39.35282,4.8952093334325,0.12480371825347664
39.357416,4.895232995617651,0.12448189992859714
39.362004,4.895212516354173,0.12409953616985285
39.366588,4.895147895642066,0.12365648948802165
39.37118,4.892096460710097,0.12321667721687393
39.375772,4.886835461291768,0.12277719275027787
39.380364,4.885250242929548,0.12221089846248194
39.38496,4.88247707924276,0.12161973583773757
39.389556,4.871486820812995,0.12116299431223905
39.394144,4.857798259040288,0.12074626994049853
39.398744,4.844720620838307,0.12027612202889151
39.40332,4.830865732902826,0.11980829716497951
39.407916,4.821141463063147,0.11930469301581242
39.412512,4.808352335738086,0.11887180552752927
39.417092,4.800060380651265,0.11837358942356399
39.421684,4.796920662822041,0.11781678805708587
39.426268,4.794313825298026,0.1172757299004575
39.43086,4.791340433631575,0.11676988962094045
39.435452,4.788899922270335,0.116283580150117
39.440048,4.79467650565207,0.11567606718896457
39.444644,4.8017632190725195,0.11508588749143589
39.449232,4.809260628084034,0.1145217166038549
39.453832,4.813082256039439,0.11407191544275369
39.458424,4.819480002623642,0.11359841245653615
39.463024,4.8265328142272015,0.11313114796030752
39.467612,4.835262310011911,0.11265118030314249
39.472208,4.840193840026366,0.11230032179720532
39.4768,4.848356553688975,0.11193503091535217
39.481392,4.864614177380415,0.11146565230568001
39.485972,4.8853689733100945,0.11093977623443284
39.490568,4.904246857078961,0.1105065758692088
39.495156,4.9267224786384185,0.11003041821100105
39.499752,4.945233808264848,0.10963284893530041
39.504344,4.9678757559870785,0.10921224638839312
39.508936,4.988107911243286,0.10886925715437144
39.513516,5.009650196538207,0.10854983629169448
39.518108,5.030703742976543,0.1082666924658366
39.522704,5.049225312234713,0.10806621031598244
39.527296,5.070855880426888,0.10786593514077387
39.531884,5.092408405353547,0.10773837538679469
39.536472,5.117436483356652,0.10758278830202969
39.541064,5.151581090550382,0.10732479385446864
39.545652,5.19610821552482,0.10692222777504175
39.550232,5.243255600576684,0.10656555160282564
39.55484,5.29735409178144,0.10615890837407588
39.559428,5.35353996275841,0.10577575537577846
39.564016,5.416144059583061,0.10531927056491619
39.568604,5.479403221427069,0.10488369517004117
39.573192,5.542418013842786,0.10448462061208842
39.577796,5.606087871277859,0.10410508937239367
39.582384,5.678463562312491,0.10361558021695347
39.58698,5.753293187261775,0.10313373626349097
39.59156,5.837605895544121,0.102550405066257
39.59616,5.9217964191123205,0.10198761894731517
39.600748,6.0089296154517555,0.10139167536116198
39.605352,6.09270944342889,0.10081710334441496
39.60994,6.18723834332917,0.10011908468870505
39.614536,6.28765258877192,0.09935295551476794
39.619128,6.383691846690577,0.09862512579004952
39.623724,6.477765909551164,0.09788601964165174
39.62832,6.571429276820686,0.09714533084445162
39.632916,6.658019353223171,0.09647803797063234
39.63752,6.743054930158653,0.0958356214970661
39.642112,6.819707086188384,0.09522416648813883
39.646704,6.890429755227017,0.09464882435190608
39.651292,6.954567872255195,0.094088777339103
39.65588,7.017518043958805,0.0935190699211415
39.660464,7.076459782280759,0.09295792219205491
39.665056,7.130249283345118,0.09242610522146073
39.669648,7.1811741549037595,0.09188401119029908
39.674244,7.221305813090627,0.09141951412362369
39.678832,7.255996723142977,0.09095463484552778
39.683428,7.279239354804198,0.09055567294830391
39.688016,7.299983911102139,0.09012278372716996
39.692612,7.316064968999066,0.08968536870341692
39.697196,7.334800188790309,0.0891941742457349
39.701784,7.339022272705041,0.08879667537214561
39.70638,7.332939882104581,0.08843461635263836
39.710964,7.3270577194837845,0.08801861061108514
39.715568,7.31524606987189,0.08761661923456036
39.72016,7.294562260497662,0.08725638778680898
39.72476,7.268848398579983,0.08690389840658531
39.729364,7.2345067463282655,0.08657860295234052
39.733952,7.204495940152012,0.08619195988349729
39.738548,7.174318807812984,0.08576843893662639
39.743136,7.152314628768305,0.08525348798014316
39.747732,7.124136593304236,0.08476233864032934
39.752324,7.094526243087309,0.08425733110675071
39.756924,7.059885840326932,0.08375482967274166
39.7615,7.022669318937757,0.08325525774743939
39.766104,6.9877404053004595,0.0827157816094728
39.770696,6.949868818891928,0.08219806132557302
39.775292,6.910076178873954,0.08168971723944661
39.779884,6.865541997189451,0.08121121075687773
39.784472,6.822684499686098,0.08072621864385505
39.789064,6.774963275802066,0.08027847137470726
39.793656,6.7350484510699475,0.07975826768460945
39.798244,6.70155185218551,0.07919696834318642
39.802832,6.667566514444488,0.07865873541801618
39.807424,6.638078348941708,0.07809559538556927
39.812012,6.615008409286607,0.07749335637243131
39.8166,6.595169653279658,0.07689083018669592
39.821196,6.581138199549663,0.07628536416816697
39.825788,6.567517441410734,0.07570366482219103
39.830376,6.550098717501552,0.07519100105139608
39.834976,6.527083158926819,0.07475840249482775
39.839556,6.51114089121912,0.07430260931471916
39.844148,6.5011281105025205,0.07384241572115423
39.848744,6.501664173729404,0.07335313214628766
39.853332,6.506086485623799,0.07288042541243195
39.857928,6.517459903671085,0.07239873268869515
39.862516,6.534762808709469,0.07191455238153116
39.867104,6.563758361567276,0.0713909942585506
39.871704,6.604324377530358,0.07083925792886772
39.876292,6.644401654636859,0.07031683259974635
39.880888,6.69028623402031,0.06980218720878999
39.885484,6.735848400709954,0.06935730642904178
39.890088,6.78529681606711,0.0689393576484922
39.89468,6.839897468681858,0.06852377962868342
39.89928,6.902348661897148,0.06810821226239747
39.903868,6.967786669332301,0.06772129912238314
39.908468,7.0396429026151335,0.06731741932940848
39.913056,7.1145639933833476,0.06689781325563143
39.917656,7.193205006656297,0.06647221161512629
39.922256,7.282472907138249,0.0659899528441413
39.926856,7.3782812181820265,0.06548720255089532
39.931448,7.470902487026276,0.06502305672855159
39.936044,7.5625021367087335,0.0645767862981936
39.940632,7.65025967917231,0.06415835285369213
39.94522,7.741981513568912,0.06372400997537726
39.949804,7.828717436870693,0.06333044532137244
39.9544,7.918762587086147,0.06291384193215632
39.958992,8.004432749777505,0.06251140035597916
39.96358,8.082663067459393,0.062142295140871696
39.968168,8.164857677074306,0.061755558146048856
39.97276,8.24508709163115,0.06134747463930403
39.977352,8.325394549453513,0.06090307711400266
39.981944,8.400794139446571,0.060453410943314544
39.98654,8.471940926629681,0.060006584408052926
39.991128,8.533193934888663,0.059581755226347385
39.995724,8.587740206423046,0.05914929621871261
40.000312,8.635091002376246,0.05873134312941294
40.0049,8.676800822215268,0.05833556557957795
40.009496,8.713236220082548,0.057946003390847524
40.01408,8.739411284883266,0.057586478867821214
40.018668,8.753771517150415,0.05724579735142364
40.02326,8.766166554359495,0.05687814222233957
40.027848,8.774308788758628,0.0565062552928518
40.032452,8.780119273957252,0.05612209180245805
40.037044,8.774892176355813,0.05575896655323885
40.041648,8.763735591763274,0.055384847962867974
40.046232,8.735656078828201,0.05505360967356907
40.050836,8.702302143921385,0.05472017209120234
40.055416,8.665472655938123,0.05438254829217049
40.060016,8.619526638764238,0.05405518485071872
40.064604,8.56781746076203,0.05374373384614403
40.069196,8.507402449160262,0.05346014731545518
40.073784,8.441224276730171,0.05319165876816939
40.07838,8.371448366509487,0.05292137089782852
40.082968,8.297053099336418,0.052654658225758766
40.087556,8.222780016877495,0.052377255725268135
40.092148,8.145930815789773,0.05209093774462934
40.096736,8.063440638587874,0.051813707337220995
40.101324,7.977885603900596,0.05154876553839482
40.105912,7.8942516228227575,0.05127347324877761
40.110504,7.814337564249656,0.05098596131854463
40.1151,7.73033702902938,0.05071498173626246
40.119688,7.641350582714282,0.050462687105237644
40.12428,7.54942146362795,0.05021675063481704
40.128876,7.458391778989266,0.049965115452534035
40.133456,7.36826152879823,0.04970633185381034
40.138048,7.286348373350169,0.049435044561553114
40.142636,7.202680490455441,0.04920027533709635
40.147224,7.115947750075334,0.04897882345587967
40.151832,7.02962570528629,0.04877705618668839
40.15642,6.944858159964251,0.04858242559931673
40.161012,6.8618894835375075,0.048383261460969634
40.165604,6.783173609920713,0.048192855732599856
40.170196,6.705645681628485,0.04803007078704222
40.1748,6.6323705561462045,0.047876278295239216
40.179388,6.558240137664905,0.047763888578034056
40.183992,6.487096533403468,0.04768042673420865
40.188572,6.421349535827919,0.047594485400369854
40.193172,6.355113799395788,0.04753380957931434
40.197756,6.289533127983011,0.04748335854212791
40.202356,6.225384771323094,0.047450440024449446
40.20694,6.16536703275898,0.04743655976897339
40.211532,6.116631246423223,0.047394177262231114
40.21612,6.075090935668648,0.047350395310258385
40.220716,6.036903993276372,0.047319148982427374
40.225304,6.004646537875196,0.047307606970514775
40.2299,5.978929493035846,0.0472825962212848
40.234488,5.957298924843668,0.04723113335559405
40.239084,5.942086582499171,0.047173434743606114
40.243676,5.93149359710706,0.04710953224157765
40.24826,5.923354545629602,0.04705962850043172
40.25284,5.917547243352651,0.0470306269472133
40.257436,5.9098188874662565,0.04700815430680678
40.262032,5.899392228236919,0.04698514821918439
40.266624,5.889987188169377,0.04695497440081787
40.27122,5.882869755853711,0.04689637810043107
40.275812,5.875097258518689,0.04682299067845581
40.280396,5.8654037075742265,0.04675590529177264
40.28498,5.857875579667496,0.046666773143778
40.289568,5.84854858286547,0.04657651184337562
40.294164,5.834602229111058,0.04649175687785467
40.298744,5.819878625623145,0.046399108783094056
40.303336,5.793628700478583,0.04634808855455402
40.307928,5.755075203943871,0.0463320088986963
40.312516,5.713823404066216,0.04631511152450364
40.317112,5.664232324731438,0.04631300459870561
40.321712,5.606301965939538,0.046321486609392254
40.326308,5.54555111909055,0.04633439939733513
40.330888,5.480958165022678,0.04636198649718327
40.335488,5.415954515363741,0.046353795062507856
40.340072,5.3438775748377685,0.04633542627390873
40.344664,5.271512123434875,0.046274619625783
40.349252,5.1969371075456205,0.046175832020062674
40.35384,5.120563222761071,0.04607570833913258
40.35842,5.038548361862342,0.04598808685271226
40.363008,4.947050417630552,0.04592832211956553
40.367596,4.849012062836937,0.045881197782634796
40.3722,4.746354351090935,0.045840898155240756
40.376784,4.637156228783109,0.04581435893812883
40.381368,4.526159237579987,0.04578056603910913
40.38596,4.417327669414596,0.04571319645841197
40.390556,4.302322244829818,0.0456246480723196
40.395152,4.1867839399398274,0.04550002134326976
40.399748,4.079174218915894,0.04531010725235508
40.40434,3.9697656289966647,0.04511146262820368
40.408924,3.8606014085057274,0.04488541502367465
40.41352,3.7464512769199674,0.04469746121519581
40.418108,3.62833685340118,0.044538319557431386
40.422692,3.5058474423582973,0.044354691804681295
40.4273,3.3744078282875654,0.04424496477198729
40.431884,3.243989833378627,0.044103454413379616
40.43648,3.10654268905128,0.04403611405745441
40.441076,2.9657863178102604,0.04403187735507483
40.445664,2.826295935159327,0.04395467941318793
40.450264,2.6841072491654487,0.043871149557457315
40.454856,2.5494805928951907,0.04373111850762545
40.45946,2.416652805520228,0.04359116267605937
40.46404,2.2885665598117955,0.04339283671310097
40.468644,2.1642002366081003,0.043158442762782634
40.473232,2.034848002309584,0.04090123290996889
40.477836,1.9014092913638931,0.038672148850717895
40.482416,1.77222338322815,0.03646492019874233
40.487024,1.6444697898452658,0.03428058420713533
40.491612,1.514550773424649,0.032140374959096864
40.496216,1.3824663339662995,0.03000987534998653
40.500804,1.253202382565039,0.027891666477871092
40.5054,1.1316226456015441,0.025744988722302894
40.509992,1.0128633966951381,0.023579197491719082
40.514584,0.900522373636413,0.021430164759983855
40.519172,0.7972115604916704,0.019243009842716104
40.523776,0.7000746037663171,0.017090868889517538
40.528368,0.6122985456598793,0.014893527344975347
40.532968,0.5328617670105635,0.012664666684788464
40.537552,0.4585772256188435,0.01050395931671589
40.542136,0.39512807542691125,0.008344478278292312
40.546724,0.3325361818546133,0.006228295149644809
40.551316,0.27636251412999596,0.004107173112040865
40.5559,0.2227649650341765,0.0020384586106878618
40.560488,0.1736645881765963,0.0
40.56508,0.13392510993793172,0.0
40.569668,0.10432181643107011,0.0
40.57426,0.08035949903838696,0.0
40.578852,0.06228252718817364,0.0
40.58344,0.044860620357316805,0.0
40.588036,0.03716616628781254,0.0
40.592628,0.03486831890419536,0.0
40.597224,0.03424715570172822,0.0
40.60182,0.04106583750873523,0.0
40.606404,0.0512378876780423,0.0
40.611012,0.05904232320933882,0.0
40.615588,0.06696894345478102,0.0
40.620192,0.07681661730966458,0.0
40.624772,0.08462105284096111,0.0
40.629368,0.09344710753405115,0.0
40.633948,0.10018774607554064,0.0
40.638548,0.11134554996913722,0.0
40.64314,0.12123736527264894,0.0
40.647736,0.13280586475731068,0.0
40.652328,0.14425217952782676,0.0
40.656924,0.1555763095841972,0.0
