Time,Force,Position
31.076096,0.10304035242859011,0.0
31.080688,0.08929244881225791,0.0
31.085276,0.07734341409122142,0.0
31.089863999999995,0.06731543297962628,0.0
31.094456,0.05908632076332688,0.0
31.099052,0.05085720854702746,0.0
31.103644,0.04454914994016942,0.0
31.108235999999994,0.043283161350084545,0.0
31.112816,0.03685291802908083,0.0
31.117412,0.030422674708077108,0.0
31.122,0.023992431387073392,0.0
31.126592,0.0156411344566283,0.0
31.1312,0.012386288623323324,0.0
31.135787999999994,0.015960364228764144,0.0
31.140384,0.022276884625776674,0.0
31.14498,0.026227754005393296,0.0
31.149576,0.038317674862468745,0.0
31.154164,0.0526613016545332,0.0
31.158752,0.07491162796908821,0.0
31.163356,0.103257767437515,0.0
31.167936,0.1311914334732923,0.0
31.172539999999994,0.16940768968069486,0.0
31.177128,0.21998189835861476,0.008591222708841464
31.181724,0.2785832134315866,0.017405699344792757
31.186304,0.3504419154227237,0.02573559680113676
31.190904,0.4319602665414345,0.03397889604908757
31.195488,0.522727571196654,0.04208784749547891
31.200084,0.6205222474286982,0.050166236413800004
31.204672,0.7299096438710807,0.058049437672381146
31.209268,0.847646559402324,0.06589924903208631
31.213867999999994,0.975776232346015,0.0736009641829738
31.218464,1.1121332396644212,0.08130506236312295
31.223056,1.2539087380122809,0.0890588939666011
31.227643999999994,1.3996146264762794,0.09678929163984695
31.232232,1.5470854820186843,0.10461239698846855
31.23682,1.7057602465239285,0.11227392928556937
31.241408,1.8688541400018948,0.11986134657729897
31.246,2.0364893471667282,0.12744707198834276
31.250596,2.2018810880283115,0.13509546729946922
31.255192,2.367439155052669,0.1427362401342757
31.259788,2.5397378606185157,0.1502611879597841
31.264368,2.703609003829984,0.1578346984718527
31.26896,2.852301706513846,0.15690073045547548
31.273552,2.9925566072115903,0.15571226865923837
31.278144,3.1188990559718137,0.15500454207719852
31.282752,3.2355818556044627,0.15438341370355183
31.287332,3.3428935169864573,0.15391042119630274
31.291944,3.444920516764972,0.1533705072365513
31.296532,3.534511520807451,0.15309959271808185
31.30112,3.619595112979953,0.1527426733933932
31.305712,3.6942859477400067,0.15253385027752223
31.310312,3.7582955142106926,0.15236413843643823
31.314908,3.81894147268734,0.15202316109368585
31.319484,3.874058400132216,0.15162232044420906
31.324088,3.923890665973612,0.1511025988033552
31.328679999999995,3.9612869360789733,0.15077445744367876
31.33328,3.9873910143242384,0.15055968470305592
31.337868,4.009520561004737,0.15025469077323922
31.34246,4.0259988919393175,0.14988218636186557
31.347044,4.035560018537896,0.14951243267643474
31.35164,4.03800371282081,0.1492452997514235
31.356228,4.040647635083387,0.14888201320829822
31.36082,4.048932533460142,0.14835951795938704
31.365408,4.056606508266168,0.1479018219745095
31.370004,4.063258863910401,0.14747678868337433
31.374592,4.070810654002282,0.1470307808912797
31.379176,4.079139693827665,0.1465761038305561
31.383764,4.081705572824725,0.1462954437724836
31.388359999999995,4.0902789820784,0.145817916475925
31.392948,4.0951324688273365,0.1454469196286
31.397548,4.10010814029042,0.14506307365384766
31.40214,4.110236049011099,0.14457735650453143
31.406724,4.1171769155322515,0.14421317143355464
31.41132,4.121830174301525,0.1439449328528596
31.415908,4.127138498090156,0.1436830191929388
31.420484,4.136821809402881,0.1433325543231253
31.425092,4.152556792420849,0.14286703608353565
31.429676,4.163550233772286,0.14253101481996777
31.434272,4.177897043486023,0.1421436903793516
31.438859999999995,4.197518275171502,0.14165889347494165
31.443448,4.219593440771633,0.14114649240610402
31.448044,4.247065213057652,0.14054123244300398
31.452644,4.2726159317342285,0.1399952083355907
31.457239999999995,4.303929811239129,0.13931450206123996
31.461824,4.335654386335095,0.13865339614198152
31.46642,4.369300015040503,0.1379557821434933
31.471004,4.403556567316639,0.13720550009738483
31.4756,4.4443535301546016,0.1363087481781753
31.480187999999995,4.481963450793037,0.13553102770516184
31.484788,4.5184295675555335,0.13479130663454425
31.489372,4.556694553213326,0.13402483179398203
31.493968,4.593160669975823,0.13330437145665672
31.498548,4.633591078671349,0.1324968127333375
31.50314,4.675165291242812,0.1316527184854354
31.507728,4.714041200471334,0.1308559299965641
31.51232,4.751484794946995,0.13007334681798466
31.516908,4.78467558661271,0.12935980077029657
31.521492,4.818887997440219,0.1286120965026601
31.52608,4.851668093514867,0.1278764081998794
31.530676,4.878807213475336,0.1272667544165899
31.535268,4.903858953663592,0.12665715359149374
31.539856,4.917873111051781,0.12625625478316105
31.544452,4.934419245620141,0.12576898359847974
31.549039999999994,4.946590392664408,0.12535229320636923
31.553632,4.966401612697812,0.12473059239196424
31.558224,4.982859464368915,0.12414915513961935
31.562812,5.000461119915958,0.12354210889140133
31.567404,5.013687787938906,0.12299745965880256
31.571988,5.027525379532583,0.12240619471554162
31.576576,5.042873329144636,0.12175119088728226
31.581164,5.056666779289685,0.12110693244864305
31.585756,5.068128480234228,0.12047102591482889
31.590352,5.0770140625499725,0.11987239927755125
31.594932,5.0863883837223,0.11923886739965894
31.599532,5.101115170131886,0.1184798410836878
31.60412,5.114043087646177,0.11774762297683851
31.608719999999995,5.128769874055764,0.11699317794913601
31.613312,5.146683702664875,0.11616889813682574
31.617912,5.162554292950402,0.1153895635433511
31.622495999999995,5.181201229844389,0.11451263745653323
31.627084,5.2005032317577315,0.11364867744505834
31.631672,5.222870091156455,0.11270840794479614
31.636268,5.240006670032065,0.11189005578369055
31.640868,5.25894211780297,0.11105567929601638
31.645464,5.271381296460678,0.11038696922249885
31.650052,5.286518778461331,0.10968956255765792
31.65464,5.298469218262456,0.10906562451470223
31.659232,5.311441277225374,0.10842222712315258
31.66382,5.324046782045855,0.10781132957921691
31.668408,5.334364679114459,0.10725740961018837
31.673003999999995,5.3454598259165635,0.10670518705391134
31.677596,5.360929960242763,0.10611417810148488
31.682184,5.372968682941145,0.10560869569846985
31.686784,5.383252678192858,0.10517987986453325
31.691372,5.388717088512524,0.10488523229947411
31.695968,5.39279332552796,0.10463589442932099
31.700555999999995,5.3957257586674565,0.10441554610522354
31.705144,5.396004029912636,0.10427978518288089
31.70974,5.400002223662556,0.10409696488743314
31.714324,5.40380018943281,0.1039874818232716
31.718912,5.407231601060627,0.10390550856500241
31.723508,5.417614118841337,0.10376887919925257
31.728096,5.430572755250844,0.10361283528053283
31.7327,5.443042652803768,0.10349454136373795
31.737279999999995,5.456411984804339,0.10336709951933362
31.741876,5.46814877407239,0.10330265614860837
31.746456,5.48017407421736,0.10327230215598628
31.751055999999995,5.494408938848689,0.10325123609790511
31.75564,5.507499999604081,0.10325684288700748
31.760244,5.529463220121804,0.10318430434239999
31.764836,5.551714951516449,0.10314714273454068
31.769432,5.574499563216303,0.10313008653388665
31.774016,5.6040689549062765,0.10302119498817401
31.778612,5.635559400205689,0.10288678998495629
31.7832,5.67191357188578,0.10268550255766495
31.787796,5.713664350251758,0.1024341542317716
31.792383999999995,5.758890681694179,0.10216101805650728
31.796968,5.808858554803133,0.10183370541432706
31.801555999999994,5.856661004874353,0.10155307864195655
31.806156,5.903564020497925,0.10128096698826687
31.810744,5.953287524178587,0.10098109191107078
31.81534,6.0019894086974555,0.10070974248023895
31.819924,6.057353888492296,0.1003714567378676
31.824511999999995,6.11206330326778,0.10002849745267478
31.829112,6.170859194690438,0.09963330444221484
31.8337,6.230921074703181,0.09920883327399366
31.838292,6.296213235239037,0.09870637787004329
31.84288,6.359706526879597,0.09822258119062792
31.847468,6.4260203065772465,0.09771280834336724
31.852076,6.485505164836151,0.09724932354074957
31.856659999999994,6.5456009466657825,0.09675282971773774
31.861263999999995,6.604386598456704,0.0962498799577398
31.865856,6.658308523866946,0.09580969780687634
31.870448,6.715539676190862,0.09532363228040673
31.875056,6.772482317637857,0.09482010742482565
31.879643999999995,6.8272153945984915,0.09431441621389244
31.884248,6.881659960682207,0.09378990941981805
31.888843999999995,6.92915342061303,0.09330352368577985
31.893439999999995,6.977135619400436,0.09279259635215045
31.898028,7.024951492025069,0.09224826994106795
31.902624,7.0695361810015465,0.09171294497904571
31.907204,7.105248710215691,0.09122959328122443
31.911804,7.130045841343916,0.09082651787889026
31.916392,7.155986776348081,0.09040770937698843
31.920988,7.175753854932855,0.09002511017272835
31.925567999999995,7.196376226516651,0.08960021427445287
31.930164,7.211069111109348,0.08919620098404452
31.934752,7.225717854253416,0.08875287716191535
31.939348,7.2354587295681805,0.08831497276249331
31.943936,7.240824617358851,0.08789395351338712
31.948523999999995,7.243858755949016,0.08746982985471814
31.953112,7.243295156748588,0.08706638290367051
31.957692,7.243586850547181,0.0866173180379343
31.962291999999994,7.233740395993355,0.08623540781981505
31.966888,7.21825296532535,0.08589541709094235
31.971484,7.202110469637992,0.08554680835732933
31.976072,7.179549748102951,0.08523666058099728
31.980671999999995,7.162874372110379,0.08487156991245656
31.98526,7.1437450622031555,0.08450615355431482
31.989852,7.127680609781313,0.08410794942330252
31.994444,7.110961092340115,0.08370027165140387
31.999032,7.102170158764973,0.08321797831477153
32.003636,7.096566267389356,0.08269412135073032
32.008224,7.086709573203793,0.08217844534562366
32.012816,7.076730694304083,0.08166685411638117
32.017408,7.062787523471345,0.08119115935891448
32.021996,7.0515426559815495,0.08070227848963447
32.026588000000004,7.03903179990167,0.08023593536064652
32.031167999999994,7.030240866326528,0.07974604960251484
32.035771999999994,7.0268465394372726,0.07923024162440845
32.04035999999999,7.023330027833872,0.07872011659858939
32.044956,7.02095732010641,0.07819182423932111
32.049544,7.017440808503009,0.07768019241291203
32.054148,7.021608511337373,0.07711075044213177
32.05873199999999,7.03219444001942,0.07651077515655175
32.063323999999994,7.04433486816847,0.07591958504401793
32.067904,7.060317403536401,0.07529969264347086
32.07249999999999,7.073235081418953,0.07471416337019277
32.077088,7.091549365987392,0.07411212960010304
32.08167999999999,7.1056549891945116,0.07355872801396422
32.086268000000004,7.119516242973339,0.07301812858903572
32.090856,7.132111508162081,0.07250528348002866
32.095444,7.148182326427271,0.07198973860752751
32.100044,7.169527566664202,0.07146474336535666
32.104631999999995,7.194592729405868,0.07092390633518705
32.109228,7.224155064385775,0.07037210349925024
32.113820000000004,7.254616833813329,0.06982332523652988
32.118399999999994,7.288920710459766,0.06925606529767837
32.123000000000005,7.325922890449147,0.06868889602800761
32.127576000000005,7.3670115470857,0.06809682115727365
32.132155999999995,7.411697941512847,0.0675002122126156
32.136752,7.4608815081782325,0.06689904014804866
32.14134,7.513784997348355,0.06628904225192586
32.145928,7.566444117090186,0.06569919570718884
32.150524000000004,7.619469790974454,0.06510416755161304
32.155112,7.67171821512522,0.06451130167979915
32.15970399999999,7.7274421923524335,0.06392402444515023
32.1643,7.783410539007936,0.06332942162345055
32.168904,7.834637343996908,0.06276131246239858
32.173492,7.88700795286182,0.06218222570714308
32.17809199999999,7.941421800050317,0.061592295912690574
32.182680000000005,7.9933817133241645,0.061001647390436405
32.18728,8.041743888807419,0.06042240772215779
32.191868,8.087652130376021,0.05984308012422454
32.196468,8.133560371944624,0.059269926760086654
32.20106,8.17407200682734,0.058708043317163616
32.205656000000005,8.209597730615235,0.0581758416693425
32.21024,8.24140353189839,0.05765813973234222
32.21483599999999,8.264870053724426,0.057163438462645225
32.219436,8.281551795560343,0.05670179929750035
32.224031999999994,8.292714745996227,0.056252956546085045
32.228624,8.299258339479726,0.05581704373408885
32.233216,8.301959825744342,0.055397152928388524
32.237804,8.301185758932514,0.0549761261335392
32.2424,8.290928608787622,0.05458363602071977
32.246988,8.278095340013936,0.05418759709178012
32.251583999999994,8.25704497649727,0.053802363069830265
32.256176,8.234073559371163,0.053422107032680126
32.260768,8.20713785031203,0.05305742266916233
32.26536,8.176604403462305,0.05269250371198967
32.26993999999999,8.143128283841344,0.05233816100199494
32.274536,8.106342937306712,0.05200871240111565
32.279116,8.064816049105547,0.051688574265386485
32.283704,8.019080499543067,0.051393861531778245
32.28829999999999,7.964883485809317,0.0511158522906942
32.29288799999999,7.909664852913771,0.050839235195573845
32.29749199999999,7.854568404732373,0.050554373826586896
32.302080000000004,7.797673087655679,0.050266100974690184
32.306668,7.742454454760135,0.049978490126197796
32.311260000000004,7.685192583541003,0.04969907495493879
32.315839999999994,7.627930712321872,0.04941553231180044
32.320443999999995,7.563761876398476,0.04915728315709018
32.325024,7.492808260484964,0.04891939543946718
32.329623999999995,7.418423232943635,0.04871242019114045
32.334204,7.34444890099337,0.04852482702278807
32.338804,7.267287526843579,0.04835604646656614
32.343388000000004,7.1887379793895585,0.04820770186496094
32.347984,7.107778639469512,0.04808648765295956
32.352576,7.030783591482496,0.04794406206028569
32.35717199999999,6.95317761992475,0.04782869980442621
32.361760000000004,6.874305659776921,0.047728998259039215
32.366356,6.79428989575315,0.047640559930683994
32.370943999999994,6.7185269345393275,0.04756233366577546
32.375528,6.641620169449568,0.0474958410439394
32.380116,6.5703543804739875,0.0474130909476629
32.384708,6.500276536822971,0.04736115322724393
32.389296,6.432896996514902,0.04730645337637525
32.393888000000004,6.36466216320781,0.047296041060946606
32.398484,6.298104014081869,0.047290176207021126
32.403071999999995,6.231545864955928,0.04728281075052092
32.40767199999999,6.1662978458687,0.04730069833300073
32.41226,6.109389106238593,0.04730638935076924
32.416856,6.059920211617962,0.047299571556397364
32.421452,6.014293424216213,0.047279572629516924
32.42604,5.970587690423905,0.047253149042731084
32.43064799999999,5.930235324993896,0.047240784620277275
32.435236,5.897444989287508,0.047208078355606635
32.439843999999994,5.868496760800003,0.04716172802987848
32.444436,5.837383109274765,0.047134793677173964
32.44904,5.807946141930676,0.0471160426151195
32.45362399999999,5.778386989872445,0.04710459563646682
32.458212,5.750626706709507,0.047093914274277095
32.462807999999995,5.721067554651273,0.04708291689053926
32.467388,5.696249944259571,0.04705766489195116
32.471988,5.66607986863061,0.04708402110309856
32.476575999999994,5.634355293534643,0.04709620863304648
32.48117599999999,5.5967453728962075,0.04713846392155349
32.485764,5.558480387238415,0.047167873145757724
32.490364,5.518294347971181,0.04720460397747298
32.49495999999999,5.477863939275656,0.04725756515438258
32.49956,5.435879031113127,0.047294926158589566
32.504144,5.387475897102917,0.04733958326353304
32.50872799999999,5.336374459749763,0.04738270774221551
32.51333199999999,5.283351968787168,0.04743322479040405
32.517920000000004,5.2302072931104275,0.04749328605267046
32.522508,5.171666010747798,0.04755563887728427
32.527100000000004,5.103763829766255,0.04764250903385347
32.531688,5.028299619061092,0.04775757810635676
32.536276,4.951813789194135,0.04788431169528676
32.540864,4.872096775679024,0.04798768211094599
32.545456,4.789803643535114,0.048085403956378364
32.550051999999994,4.707754880819497,0.04816579125933672
32.55463999999999,4.624928868370377,0.04823623977412005
32.559231999999994,4.534540826197638,0.04833860376223759
32.563824,4.445785326757419,0.04838827246324219
32.568416,4.357929261764849,0.048438675935210944
32.573008,4.2721164350958665,0.04847386213559664
32.577596,4.183727489798086,0.04850205455142498
32.582207999999994,4.094439110052658,0.048530936307127036
32.58679599999999,4.007193968630816,0.04853849366274406
32.591408,3.9152072855424436,0.04856925746989914
32.595996,3.8239978521875737,0.04861521455224845
32.6006,3.729068496327967,0.04867226641487365
32.605192,3.6315630218395616,0.04871605139677152
32.609784000000005,3.5316036134365048,0.04873642548274278
32.61438,3.4354863122523303,0.04873149498523959
32.618972,3.3439883680205407,0.04871662519339073
32.623576,3.2593973884930145,0.04863065312443987
32.628156000000004,3.1713308558890434,0.048531245977169644
32.632752,3.0851853768945126,0.04840293299929734
32.637332,2.999039897899982,0.04826932175627554
32.641932,2.910196115562508,0.048121461606696676
32.646519999999995,2.8196756490438837,0.04793579867218075
32.651124,2.7300546169729074,0.04776026515949214
32.655708000000004,2.6409664652071414,0.04762561210986603
32.66029999999999,2.547258956488992,0.047506964225297814
32.664896,2.451874763589691,0.04735392806239548
32.66949199999999,2.361232112356921,0.0471406632621559
32.674088,2.2649484850099726,0.04696554885471559
32.678687999999994,2.16404550071064,0.0467880499932452
32.68327599999999,2.0631425164113066,0.04661430553968471
32.687872,1.9623617168261192,0.046412019544116646
32.69246,1.8632576014220814,0.04624055531004581
32.697047999999995,1.7609664438185177,0.04380104702999676
32.70163599999999,1.659452535948456,0.04137591732467236
32.706232,1.55217546725007,0.03896659624793528
32.710824,1.444243333532328,0.036557054240278296
32.715416000000005,1.3303036695579706,0.03419773373597267
32.72000799999999,1.2199617433742045,0.03184084173105894
32.724599999999995,1.10733220943856,0.029521787794840552
32.729192,0.9993220324553003,0.027206695720143007
32.73377599999999,0.8956306840741829,0.024916058623235943
32.738364000000004,0.7970915729506614,0.022673569405237473
32.74295599999999,0.705092872388966,0.020396711132239956
32.74754,0.6168140943320078,0.018101293513760993
32.752128,0.5358529765703782,0.015789391518964857
32.75672399999999,0.46016628078048993,0.01351121533849592
32.761312000000004,0.386034084457606,0.011292038873354483
32.765908,0.3211406020394919,0.009033966667532096
32.770495999999994,0.2625431607549128,0.006791041914765665
32.775099999999995,0.21126337976566215,0.004529582204269439
32.779692,0.16448077101465078,0.0022813489308344927
32.78429199999999,0.1223175192160244,0.0
32.78887999999999,0.08861573158866565,0.0
32.793476,0.059411116199546136,0.0
32.798068,0.038545780267548645,0.0
32.80266399999999,0.021033812697851213,0.0
32.807248,0.010062255689980083,0.0
32.811843999999994,0.0026884364727003604,0.0
32.816447999999994,0.0009555933695990899,0.0
32.821044,0.0,0.0
32.82563999999999,0.0,0.0
32.83024,0.0,0.0
32.83483199999999,0.0,0.0
32.839420000000004,0.0,0.0
32.844008,0.0,0.0
32.848596,0.0,0.0
32.853184,0.0,0.0
32.857776,0.0,0.0
32.862364,0.0,0.0
32.866944000000004,0.0,0.0
