Time,Force,Position
32.82522399999999,0.12177299600798924,0.0
32.829824,0.12230587631320008,0.0
32.834412,0.118585953808463,0.0
32.839012,0.11960757297025652,0.0
32.843604,0.12165081129384356,0.0
32.848204,0.12381623433157626,0.0
32.852788000000004,0.125981657369309,0.0
32.857384,0.12700327653110252,0.0
32.861964,0.12790271097875036,0.0
32.86655999999999,0.13084538374998528,0.0
32.871148000000005,0.13787453316839426,0.0
32.875744,0.1428604442632162,0.0
32.880332,0.14527023672924025,0.0
32.884919999999994,0.14018097622023665,0.0
32.88950799999999,0.1335372162442286,0.0
32.894104,0.12292916433519215,0.0
32.898696,0.11219892771201002,0.0
32.90329199999999,0.1014686910888279,0.0
32.907876,0.09163788891329365,0.0
32.912464,0.07886441396652445,0.0
32.917047999999994,0.06801199262919667,0.0
32.92163599999999,0.0640665359961322,0.0
32.926224000000005,0.06179776354421776,0.0
32.93082,0.05568688387342057,0.0
32.935407999999995,0.04855438504082986,0.0
32.939995999999994,0.042321320655887,0.0
32.944588,0.03596607155679847,0.0
32.949175999999994,0.036641615839632546,0.0
32.953768,0.044567016784016374,0.0
32.958355999999995,0.062029882141828335,0.0
32.96295599999999,0.0895189507696511,0.0
32.96754,0.125601907914626,0.00904693052453907
32.97214,0.17248831806311393,0.017938422682928678
32.976724000000004,0.23538962643826417,0.026307048982941422
32.981308,0.30950508340799254,0.03450665152332038
32.985904000000005,0.39225857034350126,0.04273305844156271
32.99049599999999,0.4810739686159924,0.05112729257920602
32.995096000000004,0.5788939509967008,0.059440362751055756
32.99968799999999,0.6854741480573351,0.06773863163644775
33.004279999999994,0.7969724525790125,0.07626473761932227
33.008876,0.9208287095712075,0.08458506228004067
33.013464,1.0558991151579804,0.09281665091178572
33.01805999999999,1.2024280387676232,0.1009349398186535
33.022648000000004,1.3598826000949242,0.1089355148266735
33.027244,1.53006166803518,0.11677552425911522
33.031828000000004,1.7098562436543814,0.12452244075192238
33.036424,1.8944806438373696,0.13226549006465801
33.041008000000005,2.0718298812101437,0.14005324675648062
33.045587999999995,2.245360673549186,0.14767557836344872
33.050172,2.410009066494156,0.15528747387666028
33.054756,2.5651641364743263,0.16287875332512827
33.059344,2.7158559360331473,0.16139697105788586
33.06394,2.8624510193130552,0.16000801201695383
33.068532000000005,2.9988977146088063,0.15911372079735794
33.073128,3.1256847607769838,0.15837001828704586
33.077724,3.247187145341681,0.15753698393947208
33.082312,3.365614432789259,0.15651463831780965
33.086916,3.4761028967390417,0.15560829819280714
33.091508000000005,3.5809401449429066,0.1546827171703959
33.096104,3.6842126540480287,0.15347113211686392
33.100684,3.7778255140255768,0.15240433843056672
33.105284,3.8621452790179878,0.1513742335084837
33.109872,3.936805394882825,0.15041837145456138
33.114468,4.0028716222305105,0.14955862271410164
33.119056,4.05711277741289,0.1488404353932723
33.123656,4.1054583474210595,0.14812916027302137
33.128248,4.1498735273130904,0.14740354451915855
33.13284,4.197597934118793,0.14655659366353024
33.137432000000004,4.2416465598683875,0.14589792020499226
33.14202399999999,4.284917935884479,0.14524968284021092
33.146612000000005,4.326390443005275,0.14464496209917302
33.151208,4.363077267010913,0.14410229992896872
33.15579199999999,4.399719949567921,0.14351693926933085
33.160388,4.430433145133835,0.14303043184614556
33.164976,4.457260092032235,0.1425817731167605
33.169563999999994,4.482121843872566,0.1421311826911999
33.17415199999999,4.502564466740175,0.14170308312352592
33.178743999999995,4.523207317587448,0.14118758758179525
33.18334,4.539186670033707,0.1407184352688685
33.187928,4.550380339364808,0.14030821558876277
33.192528,4.557687760028397,0.13993624012518718
33.197104,4.561763997043833,0.13960512861120633
33.2017,4.562486865696967,0.13932553289677976
33.206295999999995,4.563165592901474,0.13898444707594834
33.21088399999999,4.5630670703724805,0.13865063833698715
33.21548,4.560636798642978,0.13833892629006808
33.220068,4.55701858158891,0.13800453451348382
33.224656,4.551068615334334,0.13768889424979888
33.229252,4.543808519041045,0.13736102015975976
33.233852,4.538836030499635,0.13695348776882477
33.238456,4.531653977471865,0.13654987158950727
33.243048,4.5266373474818264,0.1360755562998734
33.247643999999994,4.5132814380346655,0.1357794515570236
33.252224,4.5047892549681805,0.1353602300985146
33.256823999999995,4.498506636388058,0.13493334678415583
33.26141199999999,4.491613094237207,0.13456571625702396
33.266012,4.487173486001007,0.1341685931573353
33.270608,4.482611693050661,0.13378422790114342
33.27520799999999,4.4844681259479975,0.13327302393759682
33.279788,4.488656308045839,0.13274544856803275
33.284384,4.491744827716371,0.13231729204666778
33.288988,4.497575792178474,0.1319023760660356
33.29357999999999,4.5065157555745845,0.13146581862611628
33.29818399999999,4.512024307342878,0.13115072715333176
33.302775999999994,4.5172884896828815,0.13085865324777465
33.307368,4.520675759862071,0.1306759457933345
33.31196,4.527460539852189,0.1305147196447922
33.316548,4.533678537720206,0.1304736671359629
33.32113199999999,4.544682218703383,0.13039123411522646
33.325720000000004,4.554708421973394,0.13040082928446506
33.330304,4.5704197428062106,0.13035367527990116
33.33488799999999,4.590794562040042,0.13028200296805414
33.339468,4.621473855789064,0.13006612051882396
33.34406,4.654773409615511,0.1298826730389845
33.34864399999999,4.690649082070758,0.12966572764714396
33.35321999999999,4.727057634831215,0.12946627605163394
33.357823999999994,4.762855264020944,0.12932132350968298
33.362404,4.795998731316356,0.12928027646579884
33.36698,4.826488036717453,0.1293514030700871
33.371588,4.861107960214354,0.1293846352566399
33.376188,4.902146109558934,0.12930293257637657
33.380792,4.94383932392287,0.12922718873840802
33.385368,4.988230841629751,0.12911432987642213
33.38996399999999,5.036997346860725,0.12893999188809363
33.394544,5.09079390463515,0.12871616699771635
33.39914399999999,5.149576373504396,0.12838655580609293
33.403732000000005,5.20476110458305,0.1281119647417588
33.408332,5.2631328778612305,0.12775389637386247
33.412916,5.319827966958263,0.12742055538965041
33.417508,5.379587913540674,0.12702553196773828
33.422104000000004,5.441513283160819,0.12659303169995317
33.42669599999999,5.500984718866311,0.12619535833920512
33.431287999999995,5.5533828637047655,0.12589666913360048
33.43588,5.60021807569456,0.12563167311183834
33.440468,5.6490965260079395,0.12533377124659117
33.445052000000004,5.6994853343396965,0.12498334478178239
33.449631999999994,5.749341262366244,0.1246151148588645
33.454224,5.804427470915905,0.1241328342821495
33.458816,5.858325734140999,0.12363456894157834
33.463392,5.9091149984320825,0.12316146160624497
33.467991999999995,5.95703963321745,0.12269266182869909
33.472579999999994,6.004142876820686,0.12218216205418929
33.477172,6.0454388181469705,0.12172177762604844
33.481764,6.081949076358095,0.12128835253774775
33.48634,6.11199696727291,0.12089701759080895
33.490936000000005,6.135093752034835,0.12058020064067061
33.495524,6.161988502567016,0.12015766506797396
33.500112,6.186385177735914,0.11970847410283982
33.504716,6.210737711456186,0.11921613938262804
33.509304,6.226462454842416,0.11880504440934932
33.51389999999999,6.233559407894604,0.11847617769385921
33.518488000000005,6.234971243383986,0.11817871106799693
33.523084,6.238137806320034,0.11781269549704765
33.527664,6.245513030617402,0.11736501104407068
33.532264,6.247080952637818,0.1169587116433613
33.53684799999999,6.241697768505342,0.11661632120425815
33.541448,6.240767615162478,0.11617876605955885
33.546032,6.234807409276163,0.11577751069491565
33.550624,6.225493835027549,0.11539836219582528
33.555223999999995,6.210250773787835,0.11506221721683232
33.559811999999994,6.193208843652825,0.11474477314856046
33.56439999999999,6.174490229336669,0.11443742014475143
33.568991999999994,6.154749995858717,0.1141466497765863
33.573584,6.13909623902794,0.11378314548519775
33.578176,6.125730089949041,0.11336628876637253
33.582764,6.116983297822527,0.11289268366091754
33.587356,6.105416017638921,0.11245664876511924
33.591944,6.09156112970344,0.11206998138368789
33.59652799999999,6.075785188158515,0.11170874098132098
33.601112,6.06540585329948,0.1112904655201777
33.605704,6.057602637069242,0.11084987376160077
33.61029599999999,6.055973277258392,0.11035215390563766
33.61488,6.055898416914548,0.10985444317720235
33.619468,6.054068829124036,0.1094243527880237
33.624064000000004,6.057513663305265,0.10895113513573404
33.628652,6.069830657248828,0.10839917368673331
33.63324,6.0780611745452156,0.10791881774367842
33.637832,6.089645060203904,0.107421509585572
33.64242,6.103560695063098,0.10692044334001387
33.647024,6.125326870522832,0.1063596794286091
33.65160399999999,6.150568599059012,0.10577738067067495
33.6562,6.180962564852788,0.10516853865992909
33.660788,6.219695810103687,0.10447671581344413
33.665384,6.257451577641418,0.10385470000515366
33.669968,6.297050355523074,0.10326940214125911
33.674567999999994,6.337304198424086,0.1027003072036452
33.67916,6.379645421097314,0.10215149849388766
33.683756,6.430081553799372,0.1015438489879714
33.68833599999999,6.483382316007147,0.10095525376544268
33.692927999999995,6.53925919684372,0.1003611832460223
33.697531999999995,6.60310880299498,0.09972181142033505
33.702124,6.668635093327389,0.09909188355501894
33.706712,6.732773210355567,0.09850374334197659
33.711299999999994,6.799076750421477,0.09788701106339343
33.71588799999999,6.8632148674496545,0.09731600198441931
33.720484,6.925554115582537,0.09677176249010656
33.725072,6.989203493754133,0.09624493952535826
33.729668000000004,7.055428990554527,0.0957169579611982
33.73425999999999,7.127539832897391,0.0951349945305321
33.738848000000004,7.200672294402047,0.0945562880111356
33.743432,7.2738047559067045,0.09398861562291198
33.74802,7.340641176277825,0.09346850690033823
33.752604000000005,7.401958805248914,0.09299917841205202
33.757212,7.461066869733642,0.09252169936878361
33.761796000000004,7.520130792769742,0.092012672210729
33.766403999999994,7.574819728281748,0.09152734977034248
33.77099199999999,7.62742128402154,0.09103080473077871
33.77559599999999,7.6740933527702335,0.0905623106274703
33.780192,7.717900792013209,0.09007944852175834
33.784775999999994,7.757699797874529,0.0896022239439549
33.789379999999994,7.787072144506511,0.08917132112051539
33.793972,7.80924901555731,0.08878215905277098
33.798576,7.832281179607129,0.08835244034838544
33.803163999999995,7.8522043447229395,0.08792055280535667
33.807756,7.869385065047178,0.08746632718763296
33.812336,7.8814135481138194,0.08702892849348856
33.816936,7.89298719414077,0.08653642246518903
33.821524,7.895933049833677,0.08607162013909642
33.82612,7.891927799373693,0.0856329668925159
33.830708,7.878150954703729,0.08523557225809905
33.835300000000004,7.858444623042667,0.08484941920773172
33.839896,7.840126464685835,0.08443336817871842
33.844480000000004,7.818699307394995,0.08400801251731668
33.849084000000005,7.797105823941381,0.08354868301330114
33.85368,7.771015168249527,0.0831081462883713
33.85826399999999,7.744513816966608,0.08264466977382401
33.86286,7.71375966287374,0.08218587037814985
33.867448,7.673400240733667,0.0817936579775476
33.872035999999994,7.631364134412443,0.08140003414691796
33.87662399999999,7.588306408929427,0.08101329311336863
33.881215999999995,7.547291921769998,0.08060197554622853
33.885812,7.505744554305357,0.08017218949779877
33.8904,7.459577829888332,0.07976426599235652
33.895,7.413044551328869,0.07937156558709894
33.899576,7.36500091475103,0.0790097103878202
33.904163999999994,7.317978897334985,0.07863369210276579
33.90875199999999,7.267403283576975,0.07830832686368736
33.913340000000005,7.221324842057206,0.07796052000473722
33.917928,7.1738582272332065,0.077637935845341
33.922524,7.1315438496668015,0.07730256174383464
33.927111999999994,7.09168340601505,0.07696524846683282
33.931708,7.05313309240201,0.0766436642807664
33.9363,7.0185912121706275,0.07632655589644229
33.9409,6.988057765320902,0.07601445893702163
33.94548,6.957690644633951,0.07573439307405164
33.950076,6.929288719005068,0.07548009364372286
33.954656,6.907593530100785,0.07522180759537948
33.95926,6.90359851927254,0.07486643759595034
33.963840000000005,6.906676799311333,0.07449200048831066
33.968436,6.914130066874219,0.07410873002165944
33.973023999999995,6.925469583104616,0.0737422630038584
33.97762,6.945436889669055,0.07336542204096236
33.98222,6.971089313796299,0.07299869909405614
33.986816000000005,7.002138344609431,0.07261775859690847
33.991392000000005,7.038461797394304,0.07222592334861411
33.995976,7.083535225227365,0.07182393265019019
34.00055999999999,7.13772518225105,0.07139203752900092
34.005156,7.193347454027594,0.07097681192200832
34.009744,7.255265766937674,0.07054483645645304
34.014336,7.319882383190696,0.07010916598603287
34.018919999999994,7.388507432825374,0.06968745871151176
34.0235,7.458031916907701,0.06926781528927396
34.028092,7.531154138780618,0.06884465071681348
34.03268,7.602643817921014,0.06846453974074414
34.037268,7.680551722909093,0.06806342169245909
34.04186,7.767165461496727,0.06762067351259594
34.046448,7.853779200084363,0.06718551163303982
34.05104,7.93475196255782,0.06679008503077231
34.055632,8.015480355602987,0.06641635473467578
34.06022,8.096086563934007,0.06605504836497081
34.064812,8.176937141693317,0.06568881546441616
34.0694,8.252513297480888,0.0653357613904851
34.073995999999994,8.326534953801453,0.06497919790323345
34.07858399999999,8.395037818721987,0.0646444158358542
34.083184,8.459165696118426,0.06431568235894208
34.08776399999999,8.513033240448301,0.06402688751908739
34.092364,8.56150417809229,0.06375427621443248
34.09695599999999,8.611363289040511,0.06346312322778606
34.101544000000004,8.659790085235871,0.06316460770622662
34.10613599999999,8.708583435573669,0.06285549625819815
34.110732,8.758476448338776,0.06250639264389579
34.11532,8.811678688017558,0.06213401232535089
34.119912,8.86062812488639,0.06176316645644943
34.124492000000004,8.907734551411298,0.061363135808516135
34.129088,8.953897402039933,0.06093802153281352
34.133675999999994,8.989022669868499,0.06054313494175355
34.13826399999999,9.021938373210707,0.06013577132665864
34.142848,9.04855803541938,0.05973751504052568
34.14744,9.068348776189303,0.0593360262115097
34.152028,9.084008898863427,0.058927086876905475
34.156612,9.095416218727602,0.058515287265611775
34.161208,9.102448551067685,0.05810240977099689
34.165792,9.110091806978495,0.05766735501737773
34.170379999999994,9.120022670641184,0.05721221457421971
34.174972,9.13224114205575,0.05673624456967339
34.179564,9.14519272175519,0.056229420252439766
34.184168,9.153769313930539,0.055721400344131956
34.18876,9.158748168315293,0.05521868259341371
34.193348,9.15706442742408,0.05473462894177984
34.197956000000005,9.14908464539933,0.054255498471224316
34.20254799999999,9.133298464222669,0.05380539382422715
34.207144,9.10508652694171,0.053389923066638235
34.211732,9.0751979054796,0.052969147065191
34.216328000000004,9.04453203428399,0.05254177776743081
34.220916,9.006714828955825,0.05214937124030159
34.225516,8.970818677237103,0.05174884212061234
34.23009999999999,8.928914995261763,0.05137118132804017
34.234700000000004,8.887788563019926,0.05099451594666363
34.23929199999999,8.847317195797448,0.050623933439859936
34.243888,8.806357089718382,0.05027018589973261
34.248464,8.76286500645915,0.049943328857290574
34.253060000000005,8.722726291562218,0.049622053128270005
34.257648,8.677479480856316,0.04932366859185275
34.26223999999999,8.624304086284361,0.0490531199728561
34.26682,8.56986270312232,0.048794767662076396
34.271412,8.515709830837197,0.04855767618664185
34.276,8.458369916352547,0.04833692358890077
34.280596,8.396044090773078,0.04813302569357685
34.28518,8.337438187698345,0.04792094995569834
34.289767999999995,8.278343545767028,0.047725366525581986
34.29436,8.217083480797978,0.047541958787910565
34.29894,8.158277349743582,0.04736632185790886
34.303532000000004,8.096161991775512,0.04721355224190191
34.308128,8.030370852751334,0.047099982939533096
34.312715999999995,7.9626586601177145,0.046989844854783115
34.317319999999995,7.891881609998716,0.04689260798535334
34.32190799999999,7.824702297670307,0.046793886347557885
34.326516,7.7584224197895475,0.04669285745566001
34.331108,7.687156630813966,0.04661092602428981
34.335696,7.610372050438352,0.046531971949584264
34.34029199999999,7.534076208919319,0.04642856988343787
34.344871999999995,7.4548376946290515,0.04633402355599857
34.349476,7.374088822320408,0.04626720860936392
34.354063999999994,7.2941171997452665,0.04620567059376182
34.35866,7.209159666075303,0.04616460941975036
34.363248,7.119704960167101,0.04612037594178024
34.367847999999995,7.033070742315987,0.046069133111093764
34.37243599999999,6.948113208646024,0.04602276484893403
34.377036000000004,6.856370894985942,0.04599686754884207
34.38162799999999,6.7615637238404815,0.04598908739592352
34.386219999999994,6.664835499085578,0.04598744566066367
34.390812,6.562710667644788,0.0459856028389192
34.395404,6.453923240928027,0.04600498590051098
34.39999999999999,6.341660261134819,0.04602010018180344
34.4046,6.224777924389228,0.04604238770983401
34.409188,6.1004557426341615,0.046077632358345194
34.41378399999999,5.9686937158696205,0.04612646791294372
34.418372000000005,5.828470224933812,0.04619530349523239
34.42296,5.68554843065506,0.04626869578028527
34.427544,5.544547689985749,0.046333007055680414
34.432140000000004,5.396762169326321,0.046425967569197694
34.43673199999999,5.245378910876299,0.04651910952539482
34.441320000000005,5.090231588472914,0.04655733736619796
34.445916,4.933529766602525,0.04657546852839835
34.450503999999995,4.772452957208043,0.04658353763412465
34.455096,4.6104767133659115,0.04658207670752751
34.45967999999999,4.445679981466693,0.046583925153929465
34.464268000000004,4.276386077329234,0.04658046926336199
34.468875999999995,4.108113792353568,0.04656704135676113
34.473456,3.9364881390156023,0.04653144042489193
34.478044,3.7669057240012234,0.04646639326410868
34.48262799999999,3.604885338710465,0.046356003295519546
34.48721999999999,3.450671352571617,0.046180477676352326
34.491816,3.2983784200422104,0.0459838101289172
34.496404,3.1508270291793345,0.045745228257928275
34.501003999999995,3.0087944297164917,0.04548280730319684
34.505584,2.8713811872060333,0.045196825937936815
34.510183999999995,2.7356446288767255,0.04492153669329994
34.514768000000004,2.602728558604506,0.04461038803503766
34.519368,2.468668684456348,0.04430929985747303
34.523951999999994,2.3391059825464295,0.044002886037634366
34.528548,2.2096654653506564,0.04361314117202683
