Time,Force,Position
35.194128,0.84156533061915,0.009843352580576867
35.198716,0.7815917335036634,0.008419917615712884
35.2033,0.7212515822457399,0.007089323006441501
35.207904,0.660667061559525,0.005815866197359433
35.212492,0.5990609217115164,0.004603083549795236
35.217088,0.5411747043682452,0.003445841003739331
35.221676,0.4867640401014195,0.0024091652208423405
35.226276,0.4349294944633918,0.0014781833384843953
35.230864,0.3874407076842882,0.0006737370451371407
35.235456,0.34394544150338247,0.0
35.24004,0.305573183914903,0.0
35.244644,0.2714388163529128,0.0
35.249228,0.2411465560098054,0.0
35.253824,0.21420766402899796,0.0
35.258416,0.18330448011516215,0.0
35.263012,0.1558476206126026,0.0
35.2676,0.12916801084354523,0.0
35.272196,0.10338783552213567,0.0
35.27678,0.07928434438187616,0.0
35.281368,0.05980021019400158,0.0
35.285956,0.044280367939155414,0.0
35.290556,0.030925948722041973,0.0
35.295144,0.020392017562017757,0.0
35.299736,0.01370019362087628,0.0
35.304328,0.009706673022678363,0.0
35.308912,0.006612586872128302,0.0
35.313504,0.0054395543310196155,0.0
35.318084,0.004266521789910929,0.0
35.322664,0.005073000188582602,0.0
35.32726,0.004677217380976092,0.0
35.331848,0.00740474938908914,0.0
35.336436,0.007693260266008635,0.0
35.341032,0.006031488868317258,0.0
35.345632,0.005298380583443231,0.0
35.350236,0.006730695336301919,0.0
35.354836,0.009213857916123624,0.0
35.35944,0.014639693267180228,0.0
35.36402,0.019043909456443305,0.0
35.368612,0.02651298313108695,0.0
35.373204,0.03692472957696549,0.0
35.3778,0.04463817267990049,0.0
35.382388,0.049653312439891926,0.0
35.386988,0.05389120246638118,0.0
35.39158,0.05890634222637262,0.0
35.396172,0.0659647203099511,0.0
35.400752,0.07392253284117743,0.0
35.405336,0.08392358369599082,0.0
35.40994,0.09290301538901068,0.0
35.414532,0.09993216480741966,0.0
35.419124,0.10355913126318059,0.0
35.423708,0.10593502191231526,0.0
35.428288,0.11882585468804346,0.0
35.432884,0.144392379476378,0.0
35.437472,0.1794671400129712,0.0
35.442064,0.22154738778282282,0.006692293664301059
35.44666,0.27549684916660905,0.013498013104096264
35.45124,0.3383728513930951,0.02039595000097752
35.455832,0.41336243666180716,0.027377116211773963
35.460424,0.4949909550213406,0.034587438412070515
35.465004,0.584280025633489,0.04193683812034024
35.469616,0.6903461776888765,0.04926232499967135
35.474204,0.8113905422922072,0.05663919940044508
35.478808,0.9475353041576272,0.06395545441360398
35.483396,1.0965708987987755,0.07121584185050314
35.488,1.2562097184637733,0.07847152937074259
35.492596,1.4220767756285277,0.0858892862422308
35.497184,1.5976476233694836,0.0933164215170908
35.501792,1.7890519766574027,0.10064345395510169
35.50638,1.9937137168634873,0.1079456433465771
35.510976,2.219561427853794,0.11509485510766733
35.515552,2.453670375035705,0.12219068930921674
35.520152,2.6825829435113917,0.12929839067158352
35.52474,2.8980717989061398,0.1364190920169381
35.529344,3.102590875134601,0.14354635643214475
35.533928,3.3043131254911233,0.143829448360683
35.538528,3.491179348013848,0.1440062659994226
35.543124,3.6653991071891365,0.14409692574044802
35.547716,3.829670706359931,0.1440656333066165
35.552296,3.9838278193634586,0.14377845258587132
35.556892,4.125827207876132,0.14336397265744572
35.56148,4.253581492125735,0.14292453785133116
35.566076,4.370932779331153,0.14233032968224615
35.570664,4.4721179086640594,0.14176953722908373
35.57526,4.5576697604296665,0.14124793289890397
35.579852,4.627588334627973,0.14074158262576936
35.584444,4.692011779611398,0.13999064543801537
35.589024,4.73888089341808,0.1393009390223057
35.5936,4.764886449134351,0.13880881602415165
35.598196,4.77669104203618,0.13833616216850245
35.602772,4.768531511295245,0.138028994516472
35.607364,4.7483025389607105,0.1377938411230232
35.611952,4.725286980385977,0.13748675336920918
35.61654,4.703293040973036,0.13714871033313397
35.621148,4.684486143759622,0.13670915606419035
35.625736,4.657217782374938,0.1364562067289029
35.630324,4.6316261051714065,0.1361778475615731
35.63492,4.609343654881547,0.1357869167702341
35.639516,4.586406139572331,0.13538748423531427
35.644124,4.563346439548968,0.1349963157057818
35.648716,4.543595966439277,0.13449468556706878
35.65332,4.524500558348944,0.13399542286013724
35.6579,4.500174869735496,0.1336414770923411
35.6625,4.4787138106277675,0.1332865226427129
35.667088,4.46113900018755,0.13290419930326702
35.671684,4.446673188681339,0.13249972391420425
35.676268,4.427998715813808,0.13221452793259522
35.680868,4.417952033280319,0.131798803344769
35.685464,4.419720183280399,0.13115899392739616
35.690056,4.427295635557431,0.13045463374230756
35.69464,4.441700009273208,0.12965927316766443
35.699236,4.459990631656496,0.12883901998701613
35.703832,4.47869194963085,0.1280544397648858
35.708432,4.502545504862799,0.12721041707837513
35.71302,4.523867082914579,0.12647174411224124
35.717616,4.5481754751862224,0.12571917958848755
35.722204,4.57763610471546,0.12490967008610517
35.726792,4.600233910989063,0.12432072706030155
35.73138,4.6218542395495,0.12382083254020802
35.735976,4.646461382329802,0.12331990218810976
35.740572,4.668825058806853,0.12295918727502989
35.74516,4.691232876732531,0.12266262155164184
35.749752,4.723045734725752,0.12225177702868156
35.754344,4.752204430824659,0.12194322464414768
35.758936,4.783450506695781,0.12165332909007134
35.763528,4.814862908729676,0.12141212915422987
35.768116,4.851183178592878,0.12112494713244462
35.772708,4.8888135784947915,0.12086312847648006
35.7773,4.921335882587739,0.12073477227192486
35.781888,4.949405155891073,0.12073499298625227
35.786472,4.97404301756659,0.12083998234618987
35.79106,4.9994581289756095,0.12094181970521947
35.795656,5.027860054604492,0.12104318168364857
35.800236,5.050909514996116,0.12127940621097036
35.804836,5.077312343750041,0.1214832321094815
35.809416,5.108989594475704,0.12162026475287004
35.814016,5.1354365646782565,0.12187902568098224
35.818604,5.171610987642161,0.1219511154137685
35.823204,5.212649136986741,0.12193192676568376
35.827796,5.2536872863313215,0.1219157030628416
35.832388,5.296524304571197,0.12187060482183716
35.83698,5.341282376420515,0.12179156634149187
35.841572,5.382442710479242,0.12176885800474002
35.84616,5.430754378670523,0.12159834390079305
35.850756,5.473136559870706,0.12148318735871644
35.855344,5.5187057832704145,0.12129665565911255
35.859928,5.56631824499371,0.12107552763147458
35.864508,5.612498391964148,0.12085834016285864
35.869108,5.656635300610998,0.12067744219539636
35.873696,5.703304186438017,0.12041743545749758
35.878284,5.750095256979183,0.12014558034108233
35.882876,5.796475631929285,0.11985472631329064
35.887468,5.8350054662788455,0.11964591312179992
35.892064,5.875412212789221,0.11935286991186135
35.896652,5.911810525917939,0.11908383310495141
35.901232,5.944322590379146,0.11883411406400442
35.905828,5.974991644496429,0.11855200211721602
35.910416,6.001652265232055,0.11829935000965898
35.915024,6.022139029548293,0.11811645203832209
35.919612,6.040294044664025,0.11794182204821961
35.9242,6.058527103045273,0.11771147824939499
35.928796,6.07455059694016,0.11748101278248788
35.933396,6.086565657453391,0.11727008679893625
35.937988,6.093428480709026,0.1171081867630887
35.942572,6.1005356733929545,0.11692801807944028
35.947172,6.1037566174093705,0.11675901866249783
35.951752,6.103990747205922,0.116590967458281
35.956352,6.1000942589066725,0.11644842676300497
35.96094,6.099340671358322,0.11619550520269215
35.96554,6.095478084875961,0.11594938228375096
35.970132,6.091815726373263,0.11563967410523719
35.974728,6.084922184222412,0.11534441644087655
35.979324,6.082359488147026,0.11495922933354617
35.983916,6.079141727052283,0.11456815485564992
35.98852,6.075024531509893,0.1141853234177775
35.993112,6.06845340205285,0.11381478152226258
35.997712,6.0684226831576344,0.11336112178902331
36.002304,6.067003790958187,0.11295061899993722
36.006892,6.070815179281852,0.11244533855881238
36.01148,6.07294988342437,0.11194960579182635
36.016056,6.075739652586243,0.11146381784488799
36.020652,6.0814720945193494,0.11093774533854082
36.025244,6.090924458957195,0.11036840170823056
36.029836,6.101031888414397,0.10980795869620093
36.034428,6.1167802939857765,0.10918125503114287
36.039016,6.133183764576512,0.10856242283749445
36.043612,6.146400192967721,0.1080019543434925
36.0482,6.16219273998773,0.1074235589344565
36.052788,6.1770078092945715,0.10691232365849143
36.057392,6.19697511585901,0.10636936160304167
36.06198,6.221972474966898,0.10580947002088081
36.066592,6.251100452170588,0.10523498782020682
36.07118,6.284236862755936,0.10465867643458039
36.075768,6.32138170672294,0.1040813444113151
36.08036,6.362124288480536,0.10347352982926707
36.084952,6.4048320652962,0.10288750978185567
36.089548,6.447173287969428,0.1023375880807771
36.094128,6.488615076195008,0.10179408944592691
36.098724,6.5310004403168636,0.10130011484311059
36.103304,6.579559660858109,0.10076705297188544
36.107904,6.628773946418711,0.10024888911311074
36.112496,6.67635568924679,0.09978871606528744
36.117096,6.721527639608846,0.09938159380442188
36.121688,6.768376274152052,0.09897228660707247
36.126284,6.812937300943379,0.09861226664256575
36.130868,6.861628945830509,0.0982447769126214
36.135464,6.91673881656532,0.09782683209724127
36.140052,6.97520205566243,0.09740411911527586
36.144644,7.036485782816629,0.0969597126634657
36.149232,7.0945824677713025,0.09656776379758147
36.15382,7.147448872202863,0.09625517261345425
36.158404,7.199171472758483,0.0959665306367802
36.162996,7.250361193008893,0.09567275207513042
36.167584,7.302816901849388,0.09536358180495366
36.172168,7.358992533194621,0.09503291101127447
36.176764,7.418355206739379,0.09466372554122188
36.181348,7.476041196102988,0.09430629648502199
36.185944,7.536547673523684,0.09392730709758386
36.190532,7.593945152010373,0.09355134971190926
36.195112,7.6508097501918515,0.09317226577451457
36.199704,7.705220414458677,0.09280002376126681
36.204284,7.758443133400935,0.09240945658159479
36.208872,7.8152194486851565,0.09196443186269893
36.213468,7.871340698950021,0.09151775592497657
36.21806,7.929094491947407,0.09103620155726114
36.222656,7.9839836554390775,0.09054576681946797
36.227244,8.034742200834943,0.09006832806677897
36.23184,8.079449074525566,0.0896155809522997
36.236428,8.121046949282182,0.08916261013088934
36.241028,8.162600682590169,0.08867515019438633
36.245612,8.203333024716027,0.0881508547753448
36.2502,8.24107855262202,0.08761678534619632
36.254784,8.272405854680333,0.08712275742930745
36.259376,8.291918324205078,0.08669347955324865
36.263964,8.303580253129283,0.08629508567939402
36.26856,8.31327698699542,0.0858790749510347
36.273152,8.320397602232758,0.08547115639230138
36.277744,8.326330272145528,0.0850448753856415
36.282332,8.330830627305442,0.08461070841565459
36.28692,8.329934375779468,0.08420232478465049
36.291508,8.325684755891192,0.08379716629553671
36.296104,8.31910338680241,0.08338591142445509
36.300696,8.309579344942394,0.08299890657362637
36.305288,8.29298201221534,0.08263565792868095
36.30988,8.26894483447881,0.08231319613407402
36.31446,8.240166115075755,0.08201935118544011
36.319056,8.206645854006165,0.08175396125140344
36.323644,8.173492147079013,0.08146956829477268
36.328232,8.138661755970713,0.08118491830751844
36.332824,8.104730799310058,0.08089475385515771
36.337412,8.068878789039964,0.08061510318231027
36.342016,8.037646135722252,0.08031026271228647
36.346612,8.007557286280482,0.07998845108895336
36.3512,7.982087793791095,0.07964004799039302
36.355796,7.958417170197004,0.07928234210450032
36.360388,7.9301713310991575,0.07898322192989182
36.364984,7.902169861429601,0.07867091259539238
36.369572,7.873801837617608,0.07837441326851623
36.374176,7.843146206053736,0.0781055824214699
36.378764,7.811346770613925,0.07784973841862285
36.383364,7.785965561021795,0.07756280363187876
36.387952,7.761772296754234,0.07729621951460035
36.392556,7.736024533019666,0.07702316356735105
36.397152,7.719882037332306,0.0766869711602125
36.401752,7.71117938665442,0.07631256854241909
36.40634,7.707096092928919,0.07591533874763551
36.410932,7.708653775317595,0.07548600375961395
36.415536,7.710866522725629,0.07506427198871624
36.420128,7.716677007924257,0.07463114029694434
36.424724,7.720444254799293,0.07421643501702581
36.429316,7.728708673912569,0.07378722062894287
36.433904,7.735052039416406,0.07337268478536715
36.438488,7.744993142710833,0.07294779883374226
36.443068,7.758654168509999,0.07250712403578799
36.44766,7.774114063204459,0.07206235647813329
36.452256,7.794682053707886,0.07157606720973926
36.456832,7.8138618709070835,0.0711146844734355
36.461428,7.834840557001578,0.07065050470674453
36.466016,7.857740296705512,0.07017412945795944
36.470608,7.884359958914185,0.06968164254430669
36.475192,7.909713632532772,0.06921372631947671
36.479784,7.93890941337024,0.068726861791756
36.48438,7.974034681198808,0.06824370499643814
36.488972,8.004706918237764,0.06781428494967813
36.49356,8.033213732238988,0.06741015659888382
36.498152,8.064418849583156,0.06700412534569389
36.50274,8.099998954451415,0.06659850764984628
36.507344,8.140975666005563,0.06618438279302669
36.511936,8.179542585093685,0.06580390509272348
36.516532,8.2217072419724,0.06541834707366696
36.52112,8.265548583032265,0.06503962644333004
36.52572,8.307346685768545,0.06467725277864339
36.5303,8.350943657400117,0.06431665907796455
36.5349,8.396461682641133,0.06395313415717782
36.539488,8.442512588187359,0.06360650527066672
36.544088,8.486398070695852,0.06328182435760078
36.548672,8.532204606813789,0.06294879905821359
36.553256,8.578255512360014,0.06260985732422522
36.557856,8.62790415569683,0.06226756566238822
36.562452,8.679596037357236,0.06191666312248981
36.567036,8.730755038712429,0.06155588132409537
36.571632,8.78113679033412,0.06119617741629253
36.57622,8.823545816641127,0.06084581794609584
36.580812,8.865299777928776,0.06048755239743278
36.5854,8.907298108644717,0.06012193442654986
36.589992,8.945698701570068,0.05976531505258765
36.594588,8.978047622790173,0.05941135004501049
36.599176,9.005244306752685,0.05905782605761804
36.603772,9.03407353344772,0.05867568583674589
36.60836,9.058649957332802,0.05829122133187556
36.612952,9.076030905636703,0.057915990852408596
36.617536,9.096598896140131,0.05752017189910229
36.622128,9.113813518281262,0.05712176599278472
36.62672,9.126408783470003,0.05673495831296233
36.631308,9.138837722495973,0.05632276879565009
36.635896,9.15163321566438,0.055897282506363326
36.640492,9.167737935746455,0.05544853768377577
36.64508,9.179223298876153,0.0550087931553021
36.649684,9.187355293643545,0.05456416372504721
36.654276,9.19368841951564,0.054123494960744666
36.65888,9.196301622883002,0.053689630434263044
36.663464,9.19531708845977,0.053258405287262785
36.668064,9.200217899579009,0.052805555798420147
36.672644,9.206262514574185,0.05234327884912443
36.677248,9.208709391778772,0.05188245637294178
36.681832,9.20719197705033,0.05143558260767382
36.686432,9.203509139284156,0.05100190486719028
36.691028,9.200603551251483,0.05057246654814431
36.695624,9.198597397666457,0.05014454308370571
36.700216,9.196346874653143,0.049724519653836764
36.704812,9.196017405249268,0.049297321188479924
36.709416,9.188658786426984,0.04889809288893021
36.714008,9.176069887081589,0.04852549774605342
36.718596,9.160538314964958,0.04816058909989441
36.723192,9.136955974268123,0.04782655741567437
36.72778,9.108387722476467,0.04750934024666703
36.732364,9.071890886818753,0.0472187628980149
36.736952,9.035027497018602,0.046939804566521116
36.741548,8.994977065018924,0.04667723265957797
36.746132,8.948019668314986,0.04643558596413471
36.750712,8.90159515191626,0.0462060026900378
36.755304,8.8512063435845,0.04598722766673735
36.759892,8.791622962796602,0.04580803666539762
36.764484,8.72680930148559,0.04565483396569818
36.769072,8.659830217136843,0.04551274392414971
36.77366,8.5928511327881,0.04536857448930838
36.778272,8.522929375668118,0.04523133903729558
36.78286,8.447122273005668,0.045109953885313914
36.787448,8.360199544277636,0.04503412205322814
36.792044,8.269068154188282,0.04498129758931012
36.796632,8.174505352471114,0.04495676734118314
36.801228,8.08312959295347,0.04490959397687054
36.805812,7.991753833435826,0.044861519955159745
36.810404,7.899112085328098,0.04482757045716045
36.814984,7.810190259725107,0.04478825229871655
36.819584,7.723067303017411,0.04474776531192264
36.824172,7.633778923271981,0.044722505363847545
36.828772,7.542691674631257,0.04469457126859597
36.83336,7.452259491009889,0.044677632887626835
36.837952,7.363748360997962,0.04465449989527323
36.842544,7.27037350460536,0.04464640708532923
36.84714,7.177775897946258,0.04464309663424967
36.851728,7.08902039850604,0.04463066805326009
36.85632,7.002552506817701,0.04459343409447994
36.860912,6.915185180681713,0.044553080414111074
36.865496,6.8267962353839335,0.0445164937779106
36.870084,6.741349962857386,0.04446664685765741
36.874684,6.65680312477849,0.04441586184782507
36.879272,6.575443328899118,0.04434237739060503
36.883868,6.498292194381066,0.04423697026652189
36.88846,6.423306482900746,0.04411230901386863
36.893052,6.342846121469021,0.044035004442570455
36.897648,6.261486325589649,0.04395501831032957
36.902228,6.177672595795625,0.04385686797739755
36.906824,6.091937812392161,0.04376146734739284
36.91142,6.00133930260802,0.04368209054035392
36.916008,5.916626138366348,0.04357662995681569
36.9206,5.829625366372798,0.043497648363067756
36.925192,5.739393410731093,0.04339009969647036
36.92978,5.64519716315636,0.04329976855977953
36.934372,5.554187957781153,0.043177983776436855
36.938964,5.463178752405946,0.043052801675458253
36.943568,5.366772940344853,0.04291803103708119
36.948148,5.261416925255909,0.04282833035979795
36.95274,5.15671597518632,0.042752653779931454
36.957332,5.050582710363873,0.04263949991984302
36.961932,4.939707903874896,0.04252974766849545
36.96652,4.826134794042976,0.042410171159749176
36.971124,4.7135833033728485,0.042274457291987595
36.975716,4.596168086322045,0.04214811477713509
36.980312,4.47323407787121,0.04201243097213085
36.984904,4.352054796867041,0.04180065326053147
36.989496,4.232918754186458,0.04155671209194317
36.994088,4.116114460706385,0.041339585299003445
36.998684,3.9945686255597788,0.04112531452277236
37.003284,3.8735115292697557,0.04084607694330851
37.00788,3.7450145879702594,0.04054943777208258
37.012468,3.6180280046891387,0.040175588710762156
37.017064,3.4897754328179333,0.03980327191866278
37.021652,3.3645877184321074,0.03937644033205487
37.026236,3.237356765722695,0.03893527284984291
37.030824,3.113068485784518,0.038447551175863966
37.03542,2.9933995627987255,0.03792179062280759
37.040012,2.8826808428407835,0.037286610494245
