Time,Force,Position
41.194628,0.08810229111792597,0.0
41.199208,0.0793523160697388,0.0
41.203808,0.07407789409799738,0.0
41.2084,0.06605734476875613,0.0
41.212996,0.06085728349660412,0.0
41.217592,0.0556572222244521,0.0
41.222188,0.05147878011409361,0.0
41.226792,0.043336046070706694,0.0
41.231388,0.034293877579671936,0.0
41.235984,0.02795001243158072,0.0
41.240584,0.022383397016991692,0.0
41.245172,0.015917347154754808,0.0
41.249768,0.011420174916515551,0.0
41.254352,0.00974349073536552,0.0
41.258936,0.01382996738253961,0.0
41.263516,0.015995390420272326,0.0
41.268116,0.01767207460142236,0.0
41.272708,0.019152213368837295,0.0
41.277288,0.024718828783426322,0.0
41.281888,0.025543902531484752,0.0
41.28647599999999,0.029019455607930487,0.0
41.29107199999999,0.031717758950874045,0.0
41.295668,0.03388318198860675,0.0
41.300256,0.03699586348854357,0.0
41.304864,0.04202959859792176,0.0
41.30945199999999,0.04604171454550643,0.0
41.31406,0.05075303696107577,0.0
41.31865199999999,0.0591503800644928,0.0
41.32325599999999,0.07360963450489225,0.0
41.327844,0.0941308002822741,0.0
41.332432,0.11993662766313615,0.0
41.337036,0.15707878835272207,0.0
41.34162799999999,0.20154516640344713,0.008885540749179082
41.346228,0.255671193581746,0.017440242110383877
41.350808,0.31471532822108805,0.025852612841790953
41.355412,0.3843185464356519,0.03427015762991381
41.35999999999999,0.46574683681552215,0.042529238726039975
41.36460399999999,0.5615763179894967,0.05050614692588967
41.369192,0.6595475600160535,0.05875395098894153
41.373792,0.7750289917707234,0.06686351377754594
41.378376,0.8944510532732712,0.07515464479590545
41.382972,1.02472070922796,0.08346129311025823
41.38755999999999,1.1672702743876489,0.09169152169208852
41.392148,1.3213224990188355,0.09994116837677514
41.396736,1.4868773831215196,0.10809849630980044
41.401332,1.6630354922480535,0.11632132082231103
41.40592,1.8490534784818244,0.12448509222137404
41.410504,2.041900386154341,0.13252445892235593
41.415092,2.234248315338536,0.14047282751510937
41.419692,2.422910223834884,0.1484582202640063
41.42428,2.6116060341481204,0.1563831575423956
41.428872,2.7900312717630555,0.1643390288471189
41.433468,2.963826912793866,0.16339397432508843
41.438056,3.127884861431586,0.16283536532009138
41.44265599999999,3.2831045521238624,0.1624742779934243
41.447244,3.434471895965517,0.16203425933393514
41.45183599999999,3.580188024061254,0.16166998339018443
41.456424,3.7148563297251873,0.16157162248103063
41.461012,3.8473048312710207,0.1611447672969282
41.465608,3.9695608033840695,0.16080637810522386
41.470196,4.088531210768598,0.16018702382741717
41.47478399999999,4.199474511758073,0.15950226207590293
41.47938,4.299814587723698,0.15884480623419026
41.483972,4.391594676989063,0.15810865401914892
41.488568,4.469173803439985,0.15747240518567396
41.493148,4.538559497333083,0.15670862147481726
41.497748,4.594932173736308,0.15603720102197305
41.50233599999999,4.640623581850162,0.15544276201766696
41.506936,4.68238459984788,0.15485566097760456
41.511524,4.722502835481335,0.15416657229051245
41.516124,4.76073391932224,0.15342176046860703
41.52071599999999,4.798632350837597,0.15258264242296327
41.52531199999999,4.831823142503312,0.15173523988161375
41.529904,4.863371151804769,0.1507808444109942
41.5345,4.891477509846667,0.14975280935881521
41.5391,4.913976793591276,0.14874619791244872
41.543696,4.927026895819715,0.1478474772375084
41.548284,4.935247173484365,0.14694545518197713
41.55288,4.937083127118224,0.14605875703400722
41.55746799999999,4.934744321207652,0.14517278614792214
41.56206,4.923489214086118,0.14439950507015867
41.566648,4.906793358830072,0.14367214173607182
41.57124,4.883757320991861,0.14300784056496754
41.575832,4.856957219200282,0.1423623774254931
41.580424,4.828314107064779,0.14168639998612903
41.58501999999999,4.799504668766502,0.14095303970422032
41.5896,4.776292065133776,0.14002280407813328
41.594196,4.748337919834522,0.13919506490742745
41.598784,4.712044495078143,0.13854481796227736
41.603364,4.673052766978821,0.1379401165755956
41.607976,4.625966128850668,0.1374878729775689
41.612556,4.576181187379572,0.1370791143816764
41.617164,4.528972364537275,0.1366171394125767
41.621748,4.482296422000187,0.13616126681742793
41.626336,4.435908990340018,0.1357411063600964
41.630932,4.391853307880358,0.13529057438771136
41.635516,4.35384929712594,0.13473338721630868
41.640112,4.3179326661437365,0.1341755613555874
41.644692,4.284514110524817,0.13364736796231227
41.649292,4.249873707764437,0.1332346698519462
41.65387199999999,4.220796237852721,0.13276504814260348
41.65847599999999,4.197159516075519,0.13225134346547984
41.663068,4.175776500233307,0.1317972820852586
41.667664,4.154437625839723,0.13140709957485364
41.67226,4.13559682680942,0.13105275911957948
41.676852,4.11324657288578,0.13090721645744258
41.681448,4.089430102392394,0.1309006608361255
41.686044,4.07501867196655,0.13074765725985585
41.690632,4.0714445963611094,0.13045044946797738
41.69522799999999,4.073189084176038,0.13012891086824
41.699816,4.078986146821252,0.12983205834612907
41.70439999999999,4.086259665667952,0.1296041194676633
41.708988,4.0960312598779325,0.12942081572532496
41.713588,4.108056560022901,0.12930408269459912
41.71817599999999,4.124378804426448,0.12919098877141574
41.722768,4.1383353978125985,0.12924413809368474
41.72736,4.153646262686089,0.1293814953425072
41.73195199999999,4.174153506265805,0.12950825385645337
41.736544,4.20136748657012,0.1295525119811236
41.74113199999999,4.233367149989594,0.12954999942499282
41.74572799999999,4.267987073486494,0.12957946518542285
41.75032,4.303306203451378,0.12968243617811168
41.754912,4.349418546788036,0.12959530695290974
41.75952,4.404691560763948,0.12940963147829415
41.76410799999999,4.463973008121514,0.12919309912648233
41.7687,4.530572115774411,0.1288373268555552
41.773292,4.597337549590081,0.1285346162227469
41.77788399999999,4.6636142445491675,0.12829715510142534
41.78247999999999,4.7298909395082545,0.12807540203402468
41.78706,4.794779461163111,0.12791582620696945
41.791652,4.869151066151029,0.12758429452503844
41.796244,4.9527613850437175,0.1271080258701695
41.800836,5.0353500847746115,0.12666537897068997
41.805416,5.123291249742765,0.12610778591128838
41.81,5.215563260786384,0.125458042156648
41.814596,5.313964986800764,0.12467389143502883
41.819188,5.413099821100018,0.12384881259877392
41.823776,5.508348406731762,0.12305292905763456
41.828372,5.595624267048819,0.1223773318243132
41.83295999999999,5.686820277850277,0.1215951104561292
41.837552,5.772453355803075,0.12084285826763193
41.842144,5.856609977554386,0.1200405715665148
41.846732,5.933404797561739,0.11932272616560625
41.85132,6.002837815825135,0.11867233862788108
41.85591599999999,6.068873324277605,0.11800935390356584
41.860504,6.128202096005474,0.11740638554537625
41.865096,6.187076030693649,0.11673549725552615
41.86969199999999,6.241408651694957,0.11607664133692305
41.874284,6.292099393457049,0.11542198755368954
41.87888,6.341435863731797,0.11471095617229791
41.88346799999999,6.3805900442055,0.11409765311942718
41.88806,6.406863631535214,0.11360023584699554
41.892648,6.425120352101613,0.11313215376625743
41.89723599999999,6.43000774066744,0.11280564551755429
41.901848,6.427655512203456,0.11251258313296598
41.90643599999999,6.416142613100219,0.11227620832630743
41.911024,6.399066781148322,0.11205699400624922
41.915608,6.376550201061909,0.11184628036197612
41.9202,6.35423384895516,0.11157101343700247
41.924804,6.323944771533726,0.11136913507370372
41.9294,6.2970871057401085,0.11108951496775295
41.934,6.268919309907779,0.11079375018387491
41.93859199999999,6.2326566040466185,0.11057887907852272
41.94318,6.193162714537304,0.11037538354367435
41.94776,6.151747771418547,0.11019566311201413
41.952364,6.110821567156373,0.10998157526048655
41.956956,6.065520375370107,0.10980164736310968
41.961552,6.01854249940269,0.1096295705400433
41.96614399999999,5.968744135378182,0.10949052509271147
41.97074,5.9140820449729965,0.10942097904008634
41.975336,5.855333477920638,0.1094261344435335
41.979932,5.799283214211223,0.10940412910451613
41.98452,5.753126729425935,0.10927338931424498
41.989108,5.711467416878887,0.10909656462740995
41.993692,5.668952811332819,0.10897792839653465
41.99828,5.630446639168409,0.10884420129204056
42.002864,5.594805096509716,0.10872132768914912
42.007456,5.5704896475280075,0.10849516764400408
42.01204,5.550959881661457,0.10825290146505136
42.01662399999999,5.535194179748274,0.10801450997218981
42.021216,5.51742938096013,0.10786185101254853
42.02579599999999,5.501629777230057,0.10773146275162257
42.030388,5.498055701624616,0.10749826749368982
42.034972,5.502209981905569,0.10720952257170739
42.03956,5.509351076406384,0.10692723652865635
42.044152,5.522177288470007,0.10662741240619328
42.048744,5.539422629506351,0.10634092605082765
42.05331999999999,5.56325252255315,0.10602826201797357
42.05792399999999,5.5917459140009615,0.10571309500686145
42.062504,5.629766530230462,0.10532741484099588
42.067108,5.677558740669944,0.10485010659076503
42.071696,5.731935503119881,0.10435068545098033
42.076296,5.7863564070184434,0.10391567499527445
42.080884,5.849527285965196,0.10342283167642236
42.085484,5.919771455778984,0.10287630811237508
42.090068,5.995045678136226,0.10231381014394804
42.09466,6.071874399960468,0.10175612991937698
42.099256,6.144372275709245,0.10129645827380147
42.103848,6.214215989563708,0.10091406549112282
42.108448,6.28855687565641,0.10050399297073682
42.11304,6.367761488129787,0.10003694456172488
42.11764,6.451341088127258,0.0995532416735355
42.122232,6.532999634515288,0.09910676298050577
42.12682,6.612492757865585,0.09870779289333173
42.131404,6.697749042044206,0.09825793299089237
42.135992,6.781983707061034,0.09783431271391001
42.140584,6.87018266401089,0.09737067554877786
42.145176,6.958625990389038,0.09690744630348778
42.149768,7.049601293947355,0.09640094606631452
42.15436,7.1410653363622565,0.09588646565020852
42.158948,7.2318743137578,0.09537742500120762
42.163544,7.319574292219336,0.09487661869588858
42.16813199999999,7.4042874564610095,0.09437332543166664
42.172724,7.479884091512057,0.09394097749276871
42.17732,7.55224954291495,0.0935212344229515
42.18190799999999,7.620728745650332,0.0931050210025556
42.18652,7.6862211341658515,0.09268148544293464
42.19110799999999,7.750769946785094,0.0922290571179735
42.195696,7.81282068404106,0.09174080608599633
42.20028799999999,7.866610185105418,0.09127439499544146
42.20488,7.9149589380352605,0.09080714307725428
42.209484,7.952348151430556,0.09037206685644353
42.21406399999999,7.984296616691335,0.0899318259242138
42.218656,8.012725387427041,0.08946948420977219
42.223244,8.030072433914054,0.08904452764408287
42.22783999999999,8.041079297818904,0.08861672873738599
42.23242,8.043947110246293,0.08819629773129449
42.23702,8.036510448158491,0.0878077552326587
42.24160799999999,8.022244864631945,0.08743891309962583
42.246204,7.997552621876061,0.08710606236560628
42.25078,7.968319065433309,0.08675731307184686
42.255376,7.934422010589544,0.08639688023646555
42.259972,7.89855976068771,0.08601136683517491
42.264568,7.865840411536774,0.08554934709796513
42.269156,7.82551489121359,0.08509840507428
42.27374,7.781303122222895,0.08463489904375024
42.278328,7.735781223193487,0.08415177155757508
42.282928,7.683186033297042,0.08369122585784372
42.287516,7.62993577838124,0.0832179487331384
42.29211599999999,7.577584957913086,0.08273575056001636
42.2967,7.523968148854847,0.0822706416400256
42.30128799999999,7.476891750358434,0.08175977797199357
42.305888,7.431614220757317,0.0812360206209657
42.310476,7.389279363927436,0.0806842720692107
42.315072,7.34759957211691,0.08013438728936274
42.319656,7.308495898935183,0.07957424419838467
42.32424399999999,7.2708245405063145,0.07901968112579931
42.328848,7.237405984887394,0.07845251722086607
42.33344,7.205419744021333,0.07789280230250792
42.338028,7.1803846093081605,0.0773120811322232
42.342612,7.1578034085096425,0.07673080545389739
42.347204,7.140907325273932,0.07615432207559612
42.351808,7.125321372076933,0.07559397082841013
42.356388,7.10785850671912,0.07508549034137814
42.360988,7.1010666700189375,0.07454187997391547
42.365576,7.097017278110326,0.0740263935574185
42.370176,7.096854134869225,0.07352572117214129
42.374764,7.106462585838105,0.07299531574722223
42.379364,7.1221227085122285,0.07245803614133976
42.38396,7.138315711491563,0.07193563611809323
42.38856,7.1588837019949905,0.07140519833353644
42.39315199999999,7.180639637822985,0.07090491533787352
42.39774799999999,7.207669995622721,0.07039955165056375
42.402336,7.231924006813998,0.069950693349736
42.406932,7.262351874424662,0.06949028405758613
42.411536,7.297931979292923,0.06903145756171662
42.416136,7.338908690847071,0.0685615480552598
42.42072399999999,7.385282009087105,0.06808041806935075
42.42532,7.434353630670084,0.06759530968740754
42.429912,7.484080317272419,0.0671261183031343
42.434496,7.5339733300375284,0.0666947897209542
42.439084,7.582844723640843,0.0662771224050478
42.44367999999999,7.636868354501754,0.06586427685054604
42.448272,7.697554580638637,0.06542576293533368
42.452864,7.757219187613726,0.06500553349891754
42.45745599999999,7.821747520969493,0.0645641980428056
42.462036,7.8881969079347,0.06412001958378585
42.466632,7.956567348509348,0.06367795623730144
42.47122,8.023138920188702,0.0632474710225522
42.475812,8.096373087144027,0.0627955836916286
42.48040399999999,8.171528307708792,0.062342765869836045
42.484988,8.242064171321173,0.06190564489707803
42.48957599999999,8.308391373572235,0.06150743548853454
42.494172,8.379826671632264,0.061079395737580526
42.49876,8.45330520801588,0.06064678203047779
42.503356,8.52612867938014,0.060214537253881185
42.507936,8.599973769906192,0.059785471224528125
42.512536,8.673941045146393,0.05935924119538714
42.517124,8.750195928138469,0.05891880498957576
42.521724,8.823219627482393,0.058472534931837634
42.526312,8.894933196787603,0.058011654505315945
42.530912,8.965092266625808,0.05754695525546229
42.535496,9.027400795863471,0.057086025920779424
42.54008399999999,9.083291099253458,0.056642957044166435
42.544672,9.130842123186323,0.05621951083304781
42.549268,9.17107548682386,0.05581097694916877
42.553856,9.205134994042004,0.055405748103579296
42.558452,9.227013114584144,0.05503089182592721
42.56304,9.247214550945134,0.05465502165477267
42.567624,9.260220511724945,0.05428766078688568
42.57221199999999,9.266930431371215,0.05392599722037081
42.57680799999999,9.271308601816983,0.053549759936546114
42.581408,9.268857850824004,0.053161896801618126
42.586004,9.258067820373903,0.05278845831434462
42.590588,9.239060695180825,0.05242457896542791
42.595176,9.208771617759389,0.052083626326442395
42.599776,9.167078403395452,0.05177054819522057
42.604364,9.11549141010739,0.05145948165475031
42.60896,9.055076398505621,0.05117809310654936
42.613556,8.990941464399116,0.05089857198904114
42.618144,8.923086607787875,0.05062174031736431
42.62273999999999,8.848691340614808,0.05035247922360514
42.627328,8.773152269565799,0.05008911590538224
42.631932,8.689928984079023,0.049842962978836045
42.63652,8.606827883306396,0.04958718740799743
42.641108,8.522827348086121,0.049327061067795434
42.645704,8.436539205113968,0.049083410451932805
42.650296,8.3548704190942,0.04883035880807587
42.654892,8.264251430046578,0.04861045064214955
42.65948,8.16660329158055,0.048417697912373325
42.66408,8.064746491753203,0.04824775534866228
42.668668,7.966243060288156,0.048083269136967574
42.67326799999999,7.874035669956643,0.04791363809793879
42.67786,7.783260594377989,0.047756780729434005
42.68246,7.690975160780957,0.04762356629214234
42.687052,7.601388030526871,0.0474871177288033
42.691648,7.512822519434578,0.04734234524988556
42.696232,7.427366007276293,0.04721602955287652
42.70081999999999,7.340887875956215,0.04709296402564245
42.705408,7.25457607079891,0.04700187760834193
42.710004,7.168919330660962,0.04691898041689502
42.714592,7.085838709151813,0.04683900441979311
42.71918,6.99891598042378,0.04676765810560787
42.72376799999999,6.919310911991077,0.04668963010492002
42.728368,6.844735896101822,0.04662832624829032
42.732956,6.770693760517779,0.046582916864150434
42.737552,6.701637536028557,0.04651106959089205
42.74214799999999,6.632459126825191,0.04644307798395843
42.746736,6.569698943469504,0.046371108597925516
42.751336,6.511558117066203,0.04629299303504857
42.75592399999999,6.458036647615285,0.04620902045758152
42.76051999999999,6.402594124554928,0.04612888156535433
42.765112,6.341144071237954,0.046078325162448586
42.76969999999999,6.27777296431154,0.046033676302918956
42.774312,6.215423476546918,0.04598244402528483
42.77889999999999,6.153606869087508,0.04595158497989747
42.78350399999999,6.095143629990397,0.04593492872850544
42.788092,6.0356587717314945,0.045925265969911915
42.79269599999999,5.978872216815533,0.045916025150563186
42.797292,5.919387358556629,0.045908424705753535
42.80188,5.8549165892029045,0.04593010628358926
42.806484,5.792122504030328,0.04595882540179975
42.81107599999999,5.732803971934197,0.04599700257284392
42.815672,5.672463820676274,0.04604181250785849
42.820252,5.604806009123023,0.04609371571976799
42.824848,5.533183905636743,0.0461718720006257
42.82942799999999,5.454410468017907,0.046303954895779535
42.834028,5.369873869570748,0.04646277093474476
42.838624,5.281206653027786,0.04659703086855756
42.84322399999999,5.194582674808411,0.04671332142913638
42.847816,5.105260393246092,0.04683021135438204
42.852412,5.011196570017243,0.04696531227762576
42.85699999999999,4.918276550664333,0.04708866453530291
42.861588,4.825600900739716,0.047195926280799536
42.866188,4.7292053283103614,0.04731558359513687
42.87078,4.631377441128149,0.04741039963724382
42.875368,4.528397316688339,0.04748604734299911
42.879964,4.423984877495671,0.047529967115715686
42.884544,4.314298016331262,0.047559535901106786
42.88912799999999,4.208042566794669,0.04752129314860199
42.893724,4.1041969097241005,0.047429571584869434
42.89832,3.995199015395937,0.04730256906911032
42.902908,3.8846466216007687,0.047146333569447176
42.907488,3.767798186672066,0.04697800728552688
42.91208399999999,3.6483736331145646,0.04678659600690349
42.916672,3.5304594375754403,0.04652427623860752
42.921268,3.41213454644525,0.046198604408436005
42.925864,3.2942983941716424,0.045792651627126306
42.930444,3.178916175812687,0.04539180962075274
42.935056,3.0587924157872015,0.04498451633030748
42.939644,2.9391573946182987,0.0444663970413195
42.944248,2.823486665382423,0.043869882700105806
42.948844,2.707160871127192,0.043184858106126656
42.95343199999999,2.5908350768719615,0.042445085013311894
42.958028,2.476308151512026,0.04166618559154936
42.96262,2.361781226152091,0.040806077003940795
42.967212,2.2467655619355726,0.0399535090066355
42.971804,2.131261158862472,0.03911256071342712
42.976404,2.020009558599319,0.038262673968105496
42.98099199999999,1.9025060586512592,0.0374114886554591
42.985592,1.7874564926178516,0.035158490379506725
42.99018,1.6755159255184529,0.032941156574059605
42.99478,1.5624315545431147,0.030745531588803603
42.99936399999999,1.4528227366442223,0.028562337873986574
43.00396,1.3529855129553112,0.026394868438773672
43.008552,1.2594443303999352,0.024272861427015117
43.013148,1.1701559506545065,0.022187283415757056
43.01774,1.0848760042907346,0.02016273347038366
43.022344,1.001761480964695,0.018151563900924077
43.026932,0.9180360340679273,0.016166264109589896
43.031528,0.8353763477815814,0.01429192857477715
43.036112,0.755825660429244,0.012485901327550945
43.040708,0.6833482639439439,0.010768305113459388
43.04528799999999,0.612425366925648,0.009116174230643584
43.04988,0.5459996421455916,0.007492228995066661
43.054472,0.4856255890707784,0.005960930080902699
43.05906,0.436655672938468,0.0044344174901894285
43.06366,0.39230511375854266,0.002921659616808029
