Time,Force,Position
40.350012,1.420051193989488,0.030846883233893927
40.3546,1.3167384172241308,0.02863254284593114
40.3592,1.2153466940682147,0.0264415670686653
40.363784,1.1155094703793034,0.024295544748799785
40.368376,1.0294081328334013,0.022169084264541908
40.372968,0.9485812172592402,0.020078132638067285
40.37756,0.8713520394756704,0.0179859393029348
40.382152,0.7953108070166683,0.015932503954805718
40.386744,0.7242996271011165,0.013926041795547912
40.391332,0.6574190652813665,0.01197809410349782
40.395928,0.5855525923667948,0.010067878870251524
40.400512,0.5247237022522884,0.008216358055977108
40.405108,0.4728891566142607,0.006421236835798659
40.409688,0.4246523487668243,0.004663886991083354
40.414264,0.381812147605275,0.0029987369644316037
40.418856,0.3479662909202043,0.0014581578802685096
40.423448,0.32311477871161215,0.0
40.42804,0.3055809267983484,0.0
40.432628,0.2960639416483979,0.0
40.437216,0.2939189978741427,0.0
40.441808,0.30772974436099637,0.0
40.446396,0.3338984433183673,0.006420574218795989
40.450984,0.3696487481377946,0.01343453100799276
40.455576,0.4197222004858087,0.020593492308055343
40.460164,0.47283684813405286,0.028110067383927812
40.464756,0.5382314049872968,0.03567582569058319
40.469344,0.6168833487587061,0.043224631646486454
40.473944,0.7073603646954217,0.05084949718377435
40.478524,0.8064754105979177,0.05858780974719454
40.483128,0.9189700281327247,0.06625931531651597
40.487712,1.0526947579003818,0.07379830229387571
40.492312,1.1915039212918557,0.08148536082886436
40.496904,1.3369078763255233,0.08922004585024142
40.5015,1.4936481646679145,0.09690556423523575
40.50608,1.6580048638142924,0.10462920584848873
40.510672,1.8270353009934222,0.11241739784358333
40.515276,2.0029048992430365,0.12022468928155869
40.519872,2.1824266163636095,0.12812571517124596
40.524456,2.3731522424470213,0.13584924672777013
40.529052,2.5688093985448885,0.14332808149926585
40.53364,2.748633049095792,0.15092503961967757
40.538228,2.9253374610809493,0.15200405962208996
40.542816,3.09360407107999,0.15246112354565444
40.547408,3.2471368379593777,0.15280733821325626
40.552004,3.386957380880907,0.15288767258213298
40.556592,3.512777188967658,0.15288165396925926
40.561176,3.631224955678713,0.1527887957897147
40.565752,3.743444484890012,0.1525146691662831
40.570332,3.846859657972757,0.15209759978165552
40.57494,3.938816313032632,0.1517598832573595
40.57952,4.016572005278068,0.15151709048002543
40.584116,4.090264883061478,0.15100895758719593
40.588712,4.151844177802662,0.1505252121646943
40.5933,4.201964954520978,0.15010305893013975
40.597892,4.2451243854546625,0.14961494833705588
40.602472,4.279112906117357,0.1490699640624107
40.607068,4.302253832327909,0.14850893920335
40.611656,4.3194108904669966,0.14778459344531691
40.616256,4.32359907256484,0.14720814919012162
40.620836,4.318548540757912,0.14687142063335354
40.625436,4.3193833544934535,0.146360016073299
40.630016,4.317397680171907,0.1459266488096974
40.634612,4.320686427822099,0.14539188675373863
40.6392,4.329904662463392,0.14475702222074951
40.643796,4.347217807133514,0.14394310779788602
40.648384,4.3660074080051245,0.14318935958306267
40.652976,4.381732151391354,0.14253940328566228
40.657564,4.3986448401021505,0.14192637590432394
40.662148,4.418666527746956,0.14129300685664023
40.666736,4.440975823143639,0.14058143222015113
40.671332,4.46226349937853,0.13990144843414168
40.675924,4.479176188089326,0.1393105989819408
40.680512,4.50401746066618,0.13851558691769839
40.685108,4.526526984042528,0.13773232374287084
40.689696,4.544539335180636,0.13703457630016772
40.694288,4.566271608823479,0.13626061714291582
40.698868,4.593033935009773,0.13542318317251217
40.703456,4.619429707053631,0.134629906656876
40.708064,4.647013424422056,0.13386211161946251
40.712652,4.676928890990988,0.13308066598187265
40.71726,4.709176106760427,0.13229863628230817
40.721852,4.740646072796363,0.13152563559440653
40.726436,4.765209074128036,0.13093165823701292
40.731044,4.790016444887999,0.1303303455362997
40.735632,4.813557827057878,0.129788767264121
40.740232,4.839386816979635,0.12917688520673648
40.744812,4.867136860510835,0.12852840028173618
40.749408,4.889490297356148,0.1279747547899653
40.753992,4.910944299753812,0.1274443872128144
40.758592,4.931132313561391,0.12696653890224407
40.76318,4.951853207674181,0.1265046137103728
40.76778,4.975560916006834,0.12604163272445232
40.772376,4.995959397425814,0.12568516982369182
40.776972,5.022409550550039,0.12525431482509963
40.781568,5.0565439181120295,0.12467676021425779
40.78616,5.087491243474494,0.12418648590339036
40.79076,5.115984634922306,0.12372605729440893
40.795356,5.14243478804653,0.12331225104405098
40.799952,5.17207198337028,0.1228279306825467
40.804552,5.20093192896053,0.12235079607993347
40.809144,5.227093571207834,0.12191942697095451
40.813736,5.253910278474495,0.12149616098538457
40.818324,5.28174860490295,0.1210443175636741
40.82292,5.305378269970086,0.12069558384183804
40.827508,5.330273923627307,0.12031286891429327
40.832104,5.3561911964463205,0.11991724415161746
40.836696,5.383007903712982,0.11951697214481019
40.84128,5.415465587093823,0.11903060281087616
40.845872,5.450088693512395,0.1185042745830944
40.85046,5.485733419092762,0.11796274280573978
40.855052,5.528162924663246,0.11731907711293244
40.859652,5.5681384963190785,0.11669634908328642
40.864244,5.607336818241408,0.11608174849272476
40.868828,5.64677950959203,0.11546469160642346
40.873416,5.684178962619064,0.11490201102333708
40.878008,5.725787077007417,0.11426223741443499
40.882604,5.7681724411292725,0.11362832230570534
40.887192,5.815299346917659,0.11293239650356285
40.891784,5.860260829668313,0.11229487451601958
40.896364,5.905344497133113,0.11165312247659474
40.90096,5.9514497837597045,0.11099926160422514
40.905548,5.998576689548091,0.11033191921830651
40.910148,6.051466756164802,0.10959085126689097
40.914736,6.109587103304626,0.10876094863313708
40.91934,6.164642592959068,0.10799260918934706
40.923932,6.218554278737573,0.1072627584388085
40.928524,6.270667095620781,0.10655978138566718
40.933108,6.319837239732754,0.10590923844037106
40.937704,6.3652874613399915,0.10531084841804278
40.9423,6.4117593021090205,0.10470563148077616
40.946896,6.450913482582722,0.10418529686417309
40.9515,6.493909770275307,0.10362491573308039
40.956092,6.538949296291478,0.10304133601686276
40.960684,6.584233191735941,0.1024572706654793
40.965272,6.627840402999253,0.10188793943144785
40.969856,6.666828257310181,0.10136954959380268
40.974444,6.7032399929923105,0.10086843741515174
40.979032,6.737564348902225,0.10036117678921469
40.98362,6.768657521163985,0.09986188324982004
40.988212,6.801016682015831,0.09933916809748501
40.9928,6.831166278381316,0.09881209485206977
40.997392,6.864991655802909,0.09821872484941717
41.00198,6.894808599842845,0.0976390079674082
41.006568,6.919351121911041,0.09709620165141117
41.011176,6.9436051331023165,0.09652578778246866
41.015756,6.96372852619779,0.09596670281960137
41.020348,6.984585027578138,0.09537045919257595
41.024944,7.0053973875098565,0.09473534839932514
41.029532,7.026698486298159,0.09407537439581395
41.034124,7.048977062799627,0.0933713051223431
41.038716,7.072110932300113,0.09262146448638255
41.043308,7.091480737847234,0.0918668776232433
41.047888,7.10402162195561,0.09113673137470776
41.052488,7.107035281282297,0.09044554855326338
41.057064,7.1073064958174115,0.08972864706208758
41.061664,7.108433003351546,0.08896458001873077
41.06626,7.109393184722906,0.08816407758413514
41.070852,7.1058561938560265,0.08738772479713806
41.075432,7.101131257664582,0.08658319346562778
41.080024,7.088800150300889,0.08579281922614689
41.084616,7.0760583473461285,0.08497789280829321
41.089208,7.053300580753098,0.08422120239557322
41.093796,7.028088880245415,0.0834613197291479
41.098384,7.004143168327818,0.0826729137722816
41.102972,6.978642956943215,0.08187543781840873
41.107568,6.953631484415196,0.08104444188537813
41.112156,6.922323970753641,0.08023776751011079
41.116752,6.8843538618161135,0.07947361815668215
41.121348,6.842908199802141,0.07871320537052785
41.125936,6.789036781683871,0.07803838965788042
41.130528,6.731078886918428,0.07739784000384552
41.13512,6.668012896344017,0.07680204689208864
41.139712,6.607889578540842,0.07616964512872941
41.144308,6.553040682709408,0.0755099358609744
41.148896,6.497703048021392,0.07486823529554647
41.153492,6.440977240029145,0.07424991501930854
41.15808,6.384007062608605,0.073636473660044
41.162668,6.328957938797508,0.07299902253797196
41.167264,6.2743195105774765,0.07237643930401744
41.171852,6.22651000379619,0.07173814007433774
41.176456,6.18078787678712,0.07111948080993216
41.181048,6.140095802321498,0.07049464470142862
41.185644,6.099814423446943,0.06988769301381653
41.190232,6.059943740163451,0.06930145559636232
41.194832,6.027268532461143,0.06868892269901082
41.199412,5.995903454797549,0.06809319711462505
41.204004,5.971245113858553,0.06749883547892678
41.208588,5.954026617929032,0.06686275327277783
41.213176,5.9390176864858715,0.06624240637413362
41.217768,5.936723022023927,0.06557330302140287
41.22236,5.939580594819579,0.06490029650939215
41.226964,5.950533077644062,0.06420313999900339
41.23156,5.964350189974262,0.06354219176741023
41.236148,5.980499051504969,0.06289946047926684
41.240744,6.000900715845623,0.06226137885930507
41.245328,6.025677367710371,0.06162397219110715
41.249916,6.053563018509128,0.061009983759724946
41.2545,6.086356537137188,0.060418826149539674
41.259092,6.127367150508226,0.05981110039014116
41.263676,6.17095388250806,0.05921513723227463
41.268264,6.215317864241397,0.058631441662149175
41.272864,6.2623801493176785,0.05805053631629273
41.277452,6.3147168563657,0.05747348224886413
41.282044,6.365010325090135,0.056915169813038735
41.28664,6.409174078843809,0.05641421022782363
41.291228,6.458856623997515,0.05590718143411628
41.295824,6.507884104131866,0.055395270631314754
41.300412,6.562186006237957,0.05489630831553353
41.305016,6.618408961953491,0.05439324347878084
41.309612,6.67054544102185,0.05392672112628962
41.3142,6.723581354537857,0.05346498239876732
41.318796,6.7719979111014785,0.05301842525940204
41.323388,6.818615598769805,0.05257682349913068
41.32798,6.859470125609807,0.05215888481422078
41.332568,6.896849099373364,0.05174038340224528
41.337168,6.927565477860949,0.051346561286758616
41.341756,6.952885249662645,0.05095632245990931
41.34636,6.972564045350165,0.05058399682856616
41.350944,6.984802996028209,0.05023149781585684
41.355548,6.991523155306221,0.04988943275417222
41.36014,6.991702904022407,0.049561052904295286
41.364732,6.983421188567325,0.04925265705766722
41.369324,6.9670445630834115,0.04894543922299581
41.373912,6.949401949009415,0.04865511420339104
41.378504,6.927139977983033,0.04836914961365636
41.383096,6.892330066138207,0.0481279368033892
41.387676,6.849591570427327,0.0479229347658186
41.39226,6.791851199983351,0.04774855041405615
41.396848,6.726060060959174,0.04761816580408299
41.401448,6.652951261639668,0.0474926414166232
41.40604,6.572280432596542,0.04738427258076302
41.410632,6.488666930782182,0.04728486980282831
41.415228,6.40145569117723,0.0471811245042776
41.419816,6.3164098746100095,0.047053390875949036
41.424396,6.228954265576766,0.04695578845890189
41.428988,6.142398090991169,0.04685526839376186
41.433572,6.054698112529635,0.046765134417815
41.438184,5.962500961829861,0.046670516101699644
41.442772,5.864418465587616,0.04659960977280277
41.447368,5.763271111859993,0.04654531474783922
41.451964,5.662123758132367,0.0464871130763805
41.45656,5.563674707747687,0.046425886683983446
41.461156,5.465880722382362,0.04637362806633646
41.465748,5.368575475873621,0.04628679731972657
41.47034,5.26844974130779,0.04620470049433681
41.474936,5.171388864227341,0.04609813044873028
41.479544,5.07432798714689,0.045990833704800865
41.484132,4.979598859266947,0.04591126383113621
41.488728,4.888056773586529,0.04579866407137181
41.493316,4.799212991249055,0.045683569697018055
41.497912,4.707426536140346,0.04558465231090832
41.5025,4.614251907727406,0.04552412544777877
41.5071,4.516990802667292,0.04549893989695174
41.511692,4.41576540567415,0.045494430428330235
41.516284,4.311841705338065,0.04549246893963099
41.520872,4.202277028887801,0.045508280866226
41.525464,4.093733971599329,0.04551003365435967
41.530056,3.9848243601684223,0.04554721850790214
41.534648,3.87771361763281,0.0455914199867135
41.539228,3.770480690383053,0.0456512010954693
41.543812,3.664025012866797,0.045720549034165364
41.548396,3.552705608969865,0.045831555689385524
41.552992,3.4380769781592613,0.046024929734320194
41.557584,3.319361870701484,0.04626977207995906
41.562164,3.204366685748444,0.04651469836791093
41.56676,3.0892493160812577,0.046776403430025065
41.57134,2.9797729225282503,0.04701311722796405
41.575932,2.8727063214412665,0.04718280754158315
41.580528,2.7665391548019307,0.04734393160320446
41.585116,2.661271422610243,0.04750889467943553
41.589708,2.5645873393039684,0.0476122822846282
41.5943,2.4692914293019244,0.047659393766371176
41.598888,2.377060376785261,0.04765823933042297
41.603484,2.2847071395544516,0.04768070685475362
41.608068,2.1955409445231684,0.04760499587772851
41.612664,2.1140589639296508,0.047432615112446855
41.617252,2.0324547986219876,0.04726291937930779
41.621848,1.9548149252473528,0.04702670142330813
41.626428,1.8801177246439533,0.04673304463259663
41.631032,1.7997795479263747,0.0464760655663587
41.63562,1.7157214487040597,0.046218299285768295
41.64022,1.6374265103100685,0.0458708421361073
41.644812,1.5625629835438946,0.045321340060289775
41.649404,1.4906421295489558,0.04283905322863631
41.653992,1.4215417636111065,0.04035320828281871
41.65858,1.3542402665685525,0.03786348744220984
41.66318,1.2839960967547637,0.03539400537255403
41.667776,1.2133853727985382,0.03296542019145475
41.672364,1.1409757799470168,0.030558290720785405
41.67696,1.068688371809641,0.028150839714363447
41.681548,0.9934582909010307,0.025789588947934552
41.686132,0.9237470013924529,0.023454514688606903
41.690712,0.8566118305126729,0.02114841365059897
41.695308,0.7931965821376299,0.018821626546135783
41.6999,0.7346892015918913,0.016583869367941956
41.704488,0.6708293558088939,0.014433763569265111
41.709088,0.6086461942070462,0.012296634830160122
41.713676,0.5491613359481423,0.010201162461749602
41.718268,0.49135316187038847,0.008150707064646032
