Time,Force,Position
34.694124,0.5219458581576093,0.012849024577769713
34.698724,0.45305595983116187,0.010609626858459457
34.703328,0.38841886431466227,0.008446975136920734
34.70792,0.32765599999235034,0.006301819690235424
34.712512000000004,0.27613184957480846,0.004120948544472105
34.717096,0.22616219862427078,0.0020306331464108917
34.721692000000004,0.18428745770256386,0.0
34.726271999999994,0.14793150818088968,0.0
34.73087199999999,0.11505111173566127,0.0
34.735456,0.08768950669046563,0.0
34.740048,0.06494725859765492,0.0
34.744640000000004,0.04490331384778775,0.0
34.74923199999999,0.030255975783807693,0.0
34.753832,0.022026863567508274,0.0
34.758432,0.015596620246504557,0.0
34.763024,0.011742495554298722,0.0
34.767616000000004,0.006866751700299363,0.0
34.772195999999994,0.0036676920274500355,0.0
34.776788,0.01111459374698996,0.0
34.781375999999995,0.03547277909723775,0.0
34.785972,0.07162213479590268,0.0
34.790564,0.12273768556918792,0.010018417768243809
34.795152,0.18249126630825346,0.01992686393376797
34.799744000000004,0.2519165136482159,0.029730806298455995
34.804323999999994,0.3366865276785587,0.038910340568718914
34.808916,0.4366791236851363,0.0476855621560134
34.813503999999995,0.5535709858490985,0.05609402187507233
34.81809199999999,0.6860519841317327,0.06422189702730038
34.8227,0.831423815190095,0.07223049223151037
34.827288,0.9911968370425617,0.08002165743256079
34.831875999999994,1.1584640849848693,0.08790907370706244
34.836472,1.3349022431981683,0.09584335630644857
34.84106799999999,1.5202669422541668,0.10384980865050622
34.845676,1.7162348663340163,0.11188394202523365
34.850268,1.9261152423513876,0.11980381324463778
34.854872,2.1456552674963323,0.12770957025605606
34.85946,2.3759546041961617,0.13549437913388726
34.86405599999999,2.6142266662106786,0.14310776113228102
34.86864,2.840787006222383,0.15071965472745713
34.87324,3.0490938085893604,0.15834175709972462
34.877827999999994,3.246709103035231,0.16585871074528458
34.882424,3.4244824585524825,0.16341356476759056
34.887012,3.5961939027327516,0.16105002788918849
34.891604,3.761022044393909,0.15871662328337705
34.89618399999999,3.906907681574093,0.1570867311991699
34.90078,4.0369156717586865,0.15585762177466028
34.905368,4.146793212137739,0.15504092536308617
34.909964,4.236340074731591,0.1546345600582036
34.914548,4.315816592606804,0.15427140176324233
34.919144,4.379503746383683,0.15419572915178836
34.923732,4.439294411861312,0.15393956631340897
34.92832,4.491180155658035,0.15358002650879313
34.93290399999999,4.534505912754494,0.15311256561220918
34.937496,4.5706598564549195,0.15248734160474153
34.942083999999994,4.592124098484322,0.1519841645533739
34.946668,4.6056053755673005,0.1514679794492934
34.951263999999995,4.60898240611475,0.15107666569907513
34.955848,4.606840645262166,0.15082260211292908
34.960436,4.613082305315333,0.15043698120104804
34.965031999999994,4.626152886807246,0.14993772594649082
34.96961999999999,4.637879436443557,0.14956537267007095
34.974208000000004,4.6554132883568204,0.14910661642024892
34.978804,4.6754010741847365,0.14862386156053273
34.983391999999995,4.696454620623073,0.14818105485363392
34.987988,4.728301380433184,0.14753226655544494
34.99256799999999,4.764400943053245,0.1468261428129742
34.997164,4.804631123769107,0.14605940785378266
35.001752,4.8570426911609745,0.1450276889606271
35.00635199999999,4.9102315082863415,0.14401652179198618
35.010936,4.96930567095418,0.1428678858534769
35.015536,5.029279268069665,0.14173818841789418
35.020128,5.089663560776216,0.1406484254858677
35.02472,5.154178471578569,0.13953174407167002
35.02929999999999,5.2168164702201105,0.13853812792291142
35.033888000000005,5.281786218062157,0.13752978378064648
35.038476,5.348432650085356,0.13651766508033222
35.043064,5.415978516556202,0.1354949883723683
35.047652,5.484013121883631,0.13445430124497815
35.05224799999999,5.54730618554453,0.13353510357478132
35.056832,5.606757141986545,0.13271090894558554
35.06142,5.669395140628088,0.13181413454694935
35.066012,5.7277803364596815,0.1309700462104623
35.0706,5.785099771680855,0.13011967541282599
35.075192,5.843274499901048,0.1292273203084473
35.07978,5.890900384177757,0.12848874541817154
35.084384,5.936683258110542,0.12774288858013277
35.088972,5.983976490061703,0.12695036431485313
35.093548,6.022397562250534,0.12628964278062751
35.09815999999999,6.05476696273412,0.12569965459813717
35.10274799999999,6.083372299264339,0.12512813045989116
35.107336000000004,6.10245041101287,0.12466049010991032
35.11192799999999,6.118419523827392,0.12420590562048443
35.116516000000004,6.127926269345607,0.12379608173796917
35.121112,6.134035505052892,0.12336671501218756
35.125699999999995,6.13866828455869,0.12288772522628523
35.130303999999995,6.139370673948349,0.12237673540733057
35.134891999999994,6.136675553527078,0.12184471085575765
35.139492000000004,6.124331023609972,0.12141523899710693
35.144071999999994,6.1093662336154395,0.12096030973342693
35.148675999999995,6.089371391077457,0.12054387251481323
35.15326,6.063813615690814,0.12015130678179803
35.15785199999999,6.039233318017335,0.11968678890614881
35.162431999999995,6.009745152514553,0.1192510057315076
35.167028,5.971384827249436,0.11891233497363884
35.171628,5.934534860002696,0.11851606474330388
35.17622399999999,5.892166101355922,0.11818837161817064
35.180812,5.8436234862897605,0.11792274785436968
35.185407999999995,5.793892925899032,0.11763046362483298
35.189995999999994,5.746039277669116,0.11725058773355305
35.19458,5.69368845720096,0.11691863057650673
35.199168,5.646567917255918,0.11647283587349819
35.20376,5.600058300881604,0.11597585264219523
35.20835199999999,5.554325934240793,0.11547054602276227
35.21294,5.509493002047629,0.11494603277543779
35.217536,5.4594297893313515,0.11452429097909583
35.222116,5.4083890989019086,0.11416803853953314
35.226708,5.3608239615489115,0.11376917906231067
35.231303999999994,5.320698669205389,0.11326120461530147
35.23589199999999,5.281883506900582,0.11276180192421958
35.240488,5.247687701548157,0.11219403215976145
35.245076,5.214679841520301,0.11164479049122991
35.24968,5.183881545978807,0.11109545940203576
35.254272,5.153249576600086,0.11058686150376974
35.25886799999999,5.1307125172501955,0.10997854868850404
35.26347199999999,5.1132055104437555,0.10933344422802929
35.268052,5.101383621200123,0.10865949725350015
35.272648000000004,5.09626846868109,0.10793863808524795
35.277227999999994,5.0937735762394825,0.10724787404578076
35.281824,5.091611336123423,0.10664804902309269
35.286404000000005,5.0957892785895265,0.10603110075324214
35.291004,5.100422058095322,0.10549870686415141
35.295596,5.108696716840338,0.10498504376878856
35.30018799999999,5.12097980896701,0.10446238900091812
35.304779999999994,5.1387036492282,0.10394302782429964
35.309376,5.1654218339658655,0.10332718673648979
35.313964,5.193694518170537,0.10270875314370101
35.31855999999999,5.221234094090335,0.10215254572307395
35.32315199999999,5.253314983696999,0.10161628141715034
35.327744,5.285562199466437,0.1011253304359646
35.332331999999994,5.324516151960475,0.10061094434538462
35.33691999999999,5.370176841179114,0.10006917852352291
35.341508000000005,5.419723779065263,0.09954230333722065
35.34609999999999,5.473645704475506,0.09898386217245325
35.350696,5.5259350871532265,0.09849859253617976
35.355288,5.579656784583807,0.09803965891003334
35.359880000000004,5.635055166195535,0.09758313480044642
35.364468,5.688410309483679,0.09716667330469136
35.369063999999995,5.744585940828911,0.09672374784639948
35.37365199999999,5.80304917992602,0.09623501132187355
35.37823999999999,5.862001157879714,0.09572419962379289
35.382836,5.925161797194727,0.09515307393112035
35.387424,5.988566805938032,0.09457951230613855
35.39202399999999,6.055158856880862,0.09397339884665504
35.396608,6.118519724175538,0.09338370016108721
35.401196,6.182902210632008,0.09279813623577617
35.405788,6.2522706081832995,0.09216103851459714
35.41038399999999,6.320983940715235,0.09151862959922735
35.414976,6.385033774846156,0.09088170517089282
35.419563999999994,6.451737770871393,0.09018558387121572
35.424164000000005,6.512512279905531,0.08952486350954196
35.428752,6.568745475252803,0.08886058954316628
35.433356,6.616595249694325,0.08822201328758518
35.43794799999999,6.661458209915984,0.08757551547487427
35.442544,6.70525540952722,0.08690192864611891
35.44712799999999,6.7442669260232995,0.08623423910239857
35.451724,6.777715509670717,0.08556536201336669
35.456312,6.81099776715536,0.08486342166206107
35.460908,6.847056371248465,0.08411031989798826
35.465508,6.8837258989122985,0.08333242919874888
35.47010399999999,6.916264808480329,0.08256354560764462
35.474692000000005,6.9420969813237585,0.08181127608346388
35.479288,6.962654732195447,0.08108193617389553
35.483875999999995,6.971275465819423,0.08042482855487641
35.48846,6.976665015795246,0.07976470191948697
35.49305199999999,6.975347829046467,0.07911470579798292
35.497643999999994,6.96810115530659,0.07847661025775779
35.50224,6.961709774565733,0.07779268044615534
35.506828,6.953763894357873,0.07710218306143417
35.511427999999995,6.943364080235359,0.07641104565524005
35.516003999999995,6.932431385807634,0.07570326332132175
35.520596,6.918800388036966,0.07500367566144522
35.525192000000004,6.906435378856383,0.07427482769374094
35.52978,6.898279031037119,0.07350195938431964
35.534372000000005,6.891510856522086,0.072701718700643
35.53896399999999,6.881922193949964,0.07191317262934659
35.543555999999995,6.876053453882579,0.07110465721254428
35.548152,6.873249571300574,0.07027255590370038
35.55274,6.86288365899495,0.06948541183878382
35.557332,6.848920008898735,0.06870924889707414
35.56191199999999,6.838676281307255,0.06791694333242339
35.566512,6.832929725954016,0.06711239831886698
35.5711,6.831147462533806,0.06627865218212765
35.57569599999999,6.839747716894304,0.06539285082244732
35.58028399999999,6.851046274597746,0.06449972933840814
35.58488,6.8647987662158405,0.0636124014295459
35.589472,6.879206322853291,0.06273545771117639
35.59406799999999,6.894024575081806,0.06188683857044906
35.59865599999999,6.911174576510828,0.0610534562459737
35.603247999999994,6.930778511854502,0.06023201431499738
35.60783599999999,6.947972654732152,0.05944356970517717
35.612432,6.971462838743337,0.05864861007039315
35.61702,7.003047932783352,0.05784839433254611
35.62160399999999,7.027237323262521,0.057116669875307974
35.626192,7.047995302113875,0.056428559509074876
35.63078399999999,7.0709628454515885,0.0557585311138014
35.635375999999994,7.0907433465897745,0.05511878660584719
35.63996399999999,7.100552025538318,0.054538278703906914
35.644555999999994,7.109871965630279,0.05397935006667058
35.649136,7.118703166865656,0.05344399003485012
35.653728,7.124469510615653,0.05293217612724148
35.658311999999995,7.125005573842538,0.05246144844929642
35.66289999999999,7.120311356546307,0.05202990704177416
35.667500000000004,7.10601187120287,0.05163440739618012
35.672076000000004,7.091223647002852,0.05126292831996656
35.676664,7.071327326993865,0.050922049271844086
35.681268,7.049143399233,0.0506043389641119
35.685856,7.021074125929665,0.050311416268351235
35.69045199999999,6.990062179855096,0.05003038681197017
35.695032,6.9540643226857055,0.049773943766587884
35.699631999999994,6.9190880846781075,0.04950797050599956
35.70421999999999,6.873484959461509,0.04927924091091154
35.70882,6.813412839817029,0.04910008889962308
35.713408,6.752563470439045,0.04891109914128977
35.718008,6.686850374680384,0.048738155678041004
35.7226,6.616884476111776,0.04854865065370121
35.727192,6.543853720057788,0.04837519503953928
35.731787999999995,6.475320136242038,0.04819792019902775
35.73638,6.401023391597965,0.04803746020317025
35.740984,6.319697497535483,0.047916078542711626
35.745576,6.227622531549853,0.047841389190825
35.750168,6.131827643059488,0.04777197458076382
35.754760000000005,6.037176558445061,0.04768276439575109
35.759348,5.943302723564138,0.047595909867364776
35.76393999999999,5.841989043673739,0.04752004236625167
35.768528,5.740020298763985,0.047424743424943135
35.77311999999999,5.633432196901845,0.047333406649492794
35.777711999999994,5.525822475877912,0.04724647400609217
35.782308,5.414737201777532,0.047141446339106906
35.7869,5.298133136277121,0.047038904937205236
35.79147999999999,5.174744290786592,0.046962068877865595
35.796076,5.051233260581916,0.04689326155259652
35.800664,4.930420533720184,0.0468267614339661
35.805252,4.808341818268368,0.04678332660465046
35.809848,4.69190407893073,0.04671707511843031
35.814440000000005,4.57689865434595,0.046670889539157066
35.819028,4.459072741704081,0.046633598598617564
35.82361999999999,4.338426341005124,0.04660146927388338
35.828208000000004,4.224198166153847,0.0465625846062525
35.83279999999999,4.116876956006833,0.04647532473074883
35.83738,4.019038829192881,0.04635084509082536
35.841976,3.9219779521124303,0.04623534377971518
35.846564,3.8205862289565142,0.04618187700111635
35.851164,3.718050701924659,0.04614881758938989
35.855744,3.618868543255104,0.04614517510857513
35.860336000000004,3.523039752947849,0.04615990978100525
35.86492799999999,3.435550242097716,0.046146829593114835
35.869519999999994,3.349859600142879,0.04613324420431412
35.874112,3.265479088226755,0.046164159065819665
35.878708,3.186372998282372,0.04621386441908821
35.883303999999995,3.115728372509257,0.04622477115001497
35.88790399999999,3.047782050079085,0.04624230013146696
35.8925,2.984577269315445,0.046233899489473894
35.89709599999999,2.9234157268753913,0.04619638620100727
35.901675999999995,2.8571460886263695,0.04623168519121427
35.90626,2.790876450377348,0.046266949751851534
35.91085199999999,2.7321688418519465,0.04625653798641847
35.915443999999994,2.6743606677741925,0.04624520457833379
35.920036,2.6156530592487908,0.046232197415276906
35.924632,2.5547800276856565,0.04626276293602758
35.929227999999995,2.492885376960728,0.04630518123900117
35.93381599999999,2.434832833454683,0.04631559100581844
35.938407999999995,2.3797229627198733,0.04630714904119952
35.943,2.326534145594504,0.04628352313655139
35.947588,2.272690263449778,0.046226421649590774
35.95218,2.2151264588003157,0.04618889722554248
35.956772,2.1488568205512943,0.046259585276437934
35.96136,2.0834866167499206,0.04633203320047354
35.965952,2.013374871282016,0.04649314134800124
35.970544000000004,1.941830811061253,0.0465718033751997
35.97513599999999,1.863746340278664,0.04668602425282342
35.979716,1.7850068044767184,0.0467425848597908
35.984312,1.6998490428270916,0.044434574539740146
35.9889,1.6154685309109675,0.042146641603131155
35.9935,1.530555138689632,0.03980935270286699
35.998088,1.4465411809159456,0.037474072075498105
