Time,Force,Position
43.01774,1.0848760042907346,0.02016273347038366
43.022344,1.001761480964695,0.018151563900924077
43.026932,0.9180360340679273,0.016166264109589896
43.031528,0.8353763477815814,0.01429192857477715
43.036112,0.755825660429244,0.012485901327550945
43.040708,0.6833482639439439,0.010768305113459388
43.04528799999999,0.612425366925648,0.009116174230643584
43.04988,0.5459996421455916,0.007492228995066661
43.054472,0.4856255890707784,0.005960930080902699
43.05906,0.436655672938468,0.0044344174901894285
43.06366,0.39230511375854266,0.002921659616808029
43.068248,0.3495090540456215,0.0014330808412568348
43.07283999999999,0.31954944602806173,0.0
43.077428,0.28922328386806495,0.0
43.082016,0.26237267478451387,0.0
43.08662399999999,0.24655964850102838,0.0
43.091212,0.2370426633510778,0.0
43.09582,0.22584899401997724,0.0
43.100412,0.21146828248935037,0.0
43.105016,0.19954150487337569,0.0
43.109608,0.19669735463113594,0.0
43.114208,0.20204663694672187,0.0
43.118812,0.23091363924703642,0.0
43.1234,0.2712391595702205,0.0072043541628199065
43.127996,0.31971397100260207,0.01488930871523444
43.132584,0.3741726505064486,0.02293589503436489
43.137188,0.44103342392944056,0.03115759081126255
43.141768,0.5250378329381087,0.03903224815501179
43.146368,0.6225881397418616,0.0467563703087204
43.15094799999999,0.7275546293699379,0.054559655479843365
43.155548,0.8505641890313382,0.06214202171200225
43.160144,0.9881412656496168,0.06972851842375777
43.164736,1.135177763415806,0.07734079412390293
43.16932,1.3012789503771127,0.08484627768466102
43.173908,1.4808038504193584,0.09236457967576758
43.178496,1.6701988672005796,0.09988870376613775
43.183092,1.8700749242915053,0.10744452252617326
43.18767999999999,2.083541020626144,0.11504417960378487
43.19227599999999,2.311985329508726,0.12266012470919796
43.196864,2.5556522203675427,0.1302428202170393
43.201448,2.804226979055664,0.13776731173033377
43.20604,3.0513591833591875,0.145252862482955
43.210632,3.2864219460691135,0.15270764602110343
43.215228,3.5199641111289233,0.15289937630816847
43.21980799999999,3.7505092223371337,0.15255412716122532
43.2244,3.9760140413701555,0.1518417325646329
43.228992,4.197089491798717,0.15088210838491542
43.233588,4.401798556375105,0.15028778501558487
43.238176,4.590918484832822,0.14988651516591325
43.242764,4.770823361570919,0.14935779886409498
43.247372,4.932030103256336,0.1490707314477212
43.251964,5.086842281279222,0.14864633169073116
43.256552,5.231129277543777,0.14812344650992698
43.261148,5.357861942631589,0.14771769591347647
43.26574,5.473169991513424,0.14723210696787134
43.27033599999999,5.572023371645826,0.14672918720586461
43.274924,5.657531081962807,0.14617792244646205
43.27952,5.732591653786973,0.14547199424075707
43.2841,5.791974806595212,0.14474198462786153
43.2887,5.835802725101669,0.1439924585673723
43.29328399999999,5.865185311365391,0.14328831382904744
43.29788,5.889038866597343,0.14253370465637127
43.30246399999999,5.902499664416847,0.1418179354475096
43.30705999999999,5.901969967033311,0.1412018610330289
43.311656,5.8913360231142455,0.1406564064815779
43.316252,5.873662690145034,0.14010696798772893
43.32084,5.849360663716737,0.13957615997324038
43.325432,5.821128247172301,0.13901640183172406
43.330024,5.790764309407021,0.1383983095148844
43.334608,5.755614688526584,0.13781756440985243
43.339196,5.718499872588075,0.13721995435550063
43.34378399999999,5.669814593544292,0.13680084040461452
43.348376,5.6132787738999665,0.13649106171442077
43.35296399999999,5.553878324749925,0.13618179722287643
43.357556,5.489325638342286,0.13593412937722127
43.36213599999999,5.424362256343581,0.13565324213496158
43.366732,5.3580887443061656,0.1353546250516512
43.37131599999999,5.286584951745635,0.1351772887054798
43.375904,5.2167578433662545,0.13497290993012676
43.380512,5.145786931110935,0.13479146818360074
43.3851,5.076248333608474,0.13460414691531147
43.389692,5.005732258392848,0.13448190249182712
43.394288,4.942455800207032,0.13428834605092987
43.398876,4.8846200901557335,0.1340639164903405
43.40348,4.832591682381387,0.13376715230078534
43.40806799999999,4.786126207455699,0.13341745671883523
43.41266399999999,4.740482123712144,0.13311438443634302
43.41723999999999,4.703221460874338,0.13270214173584316
43.42184,4.67356696920878,0.13219018677172442
43.426428,4.647021476477231,0.1316563030846182
43.431028,4.6270605357561365,0.13105400665227954
43.43561999999999,4.615483015940794,0.13035406507614558
43.44022,4.610123493993468,0.1296144127941792
43.444812,4.6148240771330435,0.12876321233033947
43.449404,4.627541527035932,0.12785376164627654
43.45399199999999,4.642923378464875,0.12702683600889372
43.458584,4.666854976962342,0.12616766406352387
43.46317199999999,4.6931624661089435,0.12534718609219753
43.46776799999999,4.7246663339617685,0.12453012657296549
43.472356,4.7621438302543195,0.1237124617266804
43.47694,4.804695520538949,0.12290486057593807
43.481528,4.851544155082156,0.12211314803466433
43.486128,4.899214180807492,0.1213876829715681
43.490716,4.954368192990931,0.12060178568527516
43.495312,5.013819149432945,0.11984514009316316
43.499908,5.075890365952385,0.11913343829234967
43.504492,5.142625080872839,0.11841159880095352
43.509088,5.2062168950423935,0.11784051180979353
43.513676,5.267565242908699,0.11740532852124709
43.518268,5.333577089176017,0.11696755295962584
43.522856,5.3989780118726065,0.11658945334968707
43.527444,5.466588499055558,0.11622975975282762
43.532048,5.541638831247984,0.11578081575361275
43.536636,5.615956055155533,0.11540975967361956
43.541236,5.690928344082442,0.11506501737731459
43.54582799999999,5.769087675208875,0.11465571373662505
43.550416,5.846591941315953,0.11426284966369307
43.55502,5.931369726269731,0.11374263243962443
43.559612,6.015981185060735,0.1132013551169864
43.564212,6.0983830793653775,0.11266825553017956
43.5688,6.182661885830833,0.11207879955996894
43.57339999999999,6.26779598529531,0.11144846984509038
43.57798,6.352885943311157,0.11078068861006755
43.582584,6.433434587640137,0.11012924551619073
43.587168,6.511362971891692,0.10946624806076859
43.591768,6.584872227170527,0.10880058252848906
43.596364,6.656005591800224,0.10810529901363194
43.60095999999999,6.724640881066642,0.10737209211162968
43.60555599999999,6.792166268274009,0.10657186679589707
43.610148,6.855272526508655,0.10577391716176729
43.61473599999999,6.9178017629894635,0.1049284512948543
43.619336,6.973702306011187,0.1040758881650426
43.62392799999999,7.0194205592318655,0.1032940897322089
43.628516,7.058754488421754,0.10248673426154166
43.6331,7.086718182486028,0.1017109086173524
43.63768399999999,7.112794724757751,0.10087455607618848
43.642276,7.127134477761422,0.1000876245545437
43.646868,7.1303925065164,0.09935934692723256
43.65145999999999,7.123223876042042,0.09868939287420668
43.656048,7.11163611659496,0.09800225854444376
43.66063199999999,7.089621697918542,0.09737222447173484
43.665212,7.058202239174581,0.09678334409004774
43.6698,7.02199709731546,0.09619473086329428
43.674396,6.983704575684125,0.09558606357651721
43.67898399999999,6.937683698166396,0.09500774289301017
43.683572,6.891374309771745,0.09439435278375012
43.688168,6.838113815224204,0.09380861317183724
43.692756,6.789550720894566,0.09312834668323294
43.697352,6.737389888774335,0.09246446187418797
43.701948,6.680321188824801,0.09179873680281175
43.706548,6.61977693579882,0.09114080259499102
43.711136,6.555801271145023,0.09053345291562752
43.71573599999999,6.492847225653019,0.08990424324731909
43.720324,6.429404441304431,0.08929276819650404
43.724924,6.373812197556384,0.08863528734056586
43.729508,6.3169981066668806,0.08804191933475769
43.734108,6.264559003301471,0.08741799281817315
43.738704,6.218171571641305,0.08676236989335953
43.7433,6.180656299743472,0.08605319723494421
43.74788,6.143307354008412,0.08537446583428941
43.752476,6.1130316991403895,0.08465326515786249
43.757076,6.089584965711113,0.08390550364324381
43.761672,6.069247231215845,0.08316174976649712
43.76626399999999,6.048953638169205,0.0824611835625221
43.770856,6.037287835456607,0.08172828257011723
43.77544399999999,6.025543989478491,0.08104720229540355
43.780032,6.025004052463214,0.0803319570306703
43.784612,6.018500726639951,0.07972983034655415
43.789204,6.013063161427108,0.07915837442435927
43.7938,6.0138435940822825,0.0786068043610197
43.79838,6.01454598347194,0.07810756056584348
43.802976,6.027063205395165,0.07754318623930621
43.80756399999999,6.042567241538253,0.07700065607606493
43.812156,6.05811541912997,0.07650311758993561
43.816752,6.070110000379723,0.07607195883315679
43.82133999999999,6.080960777753538,0.07566038846298921
43.825936,6.098518291851951,0.07524766059353243
43.830516,6.117508120703224,0.07485440823212575
43.835104,6.138951883469149,0.07447115674824883
43.83969999999999,6.169267805997407,0.07406095205220241
43.844292,6.199872239402584,0.07368820463603112
43.848888,6.231908987560621,0.07333444517602646
43.85347599999999,6.265622419899808,0.07298499755668604
43.858076,6.301256905848436,0.07262366321830266
43.86266799999999,6.334970338187622,0.07228215955005325
43.867256,6.372525877745692,0.07191636725255407
43.87184,6.401497768418347,0.07161169068241179
43.87644,6.436477189347619,0.07125498837553679
43.881036,6.479263009428802,0.07084463359953463
43.885632,6.523314818100068,0.07041720744176443
43.890216,6.574395776189743,0.06993377129391731
43.894808,6.617259639536443,0.06949155522031387
43.89939999999999,6.660367872311435,0.06904217794048641
43.90399599999999,6.7087063856095375,0.06854207673604712
43.908584,6.761375744983108,0.06799351743593399
43.91318,6.815188908232618,0.06743049627562375
43.91777199999999,6.865404333691536,0.06688623881386015
43.922364,6.908057729426833,0.066382356552575
43.92695199999999,6.944537268742742,0.06589532339761806
43.93154799999999,6.97238901772461,0.06541877622985219
43.93614,6.999830071115412,0.06492309148752637
43.94072799999999,7.025305929448145,0.0644007448725522
43.94532399999999,7.048205669152079,0.06388150539620494
43.949912,7.071349778284304,0.0633535294979052
43.954508,7.092695018521234,0.06283137185490648
43.959092,7.11080907511001,0.0623021035845783
43.96368,7.134275596936045,0.061720834057664306
43.968284,7.155043815419136,0.061150377259564855
43.972872,7.167350569730958,0.06061825706774024
43.97746,7.17605958625219,0.0600954568548839
43.98205599999999,7.178228192211595,0.059598839497687704
43.986648,7.181540602046941,0.05908757729520178
43.991244,7.178556970748751,0.05858484425775137
43.995836,7.172997220821763,0.058082411043542344
44.000432,7.167681840323066,0.05757096116618179
44.00502,7.1618335795191586,0.05704244172862001
44.00962,7.153897938943037,0.05648690048488296
44.014208,7.1511925788900275,0.055887245154671736
44.01880799999999,7.149631022712957,0.05527323280410241
44.023396,7.151545019612333,0.05466103508461358
44.02797999999999,7.1485952901310315,0.054069415741516545
44.032568,7.141314714574266,0.05351447787911357
44.037152,7.133911954303354,0.0529643914580121
44.041744,7.1254875748706485,0.05242189201751079
44.046344,7.113221088219061,0.05188980906265636
44.05093599999999,7.101609666586827,0.05136842836245203
44.055528,7.083868529983835,0.050884444812402695
44.060116,7.063062535895462,0.05041740835591021
44.0647,7.042911606826444,0.04995875424004322
44.06928,7.020717439433841,0.049509988280045894
44.073876,6.995214045127565,0.049088354420564966
44.078468,6.963580935850529,0.04870046269897173
44.083048,6.934157391059853,0.048332334609666065
44.087648,6.90130243464136,0.04799957776494933
44.09223599999999,6.858353471319076,0.047721135596025095
44.096828,6.812750346102478,0.04748390039873613
44.101424,6.763349255115625,0.04730006772729042
44.106008,6.712315621396251,0.047151590252900354
44.11061599999999,6.655685153011326,0.04705827317370765
44.115204,6.59713363101696,0.04696754874206751
44.119796,6.540258793203744,0.04688094909944035
44.124388,6.483383955390527,0.04679221959609869
44.128976,6.421523206482488,0.04672732942907402
44.133572,6.354554361765482,0.046692666124060124
44.138164,6.291427624267359,0.04664204501522521
44.142768,6.22114955263668,0.046636329442582974
44.147348,6.150749296291857,0.046636474419788
44.151948,6.077161997747508,0.046663742551274305
44.156528,6.002675264755509,0.046689197119530484
44.161132,5.925368043706421,0.0467185133769414
44.165724,5.850226245695067,0.04672591778388927
44.17032,5.778804370188451,0.04672775808145429
44.174912,5.703784756891241,0.04672832610061186
44.179508,5.627088459412882,0.04671956865728303
44.184104,5.555255888315199,0.046689805387908165
44.18869599999999,5.480069948855218,0.04664243839815811
44.193288,5.403329509928231,0.04657932520455141
44.197884,5.322336268191296,0.0464950544977103
44.20247199999999,5.24363063420624,0.046379204792234785
44.20706,5.156996416355127,0.0463080601154811
44.21164399999999,5.067663895161069,0.046231570932713364
44.216236,4.980252427576454,0.046141615493067084
44.22082399999999,4.892963144705984,0.04604145754780266
44.22541999999999,4.80105450488313,0.04594891619807613
44.230012,4.707102626736687,0.04586556386572217
44.23459199999999,4.614538921894476,0.045745380374182035
44.239184,4.518377479261674,0.04561870921964626
44.243776,4.423604209933103,0.045448785621750476
44.248364,4.323434333918643,0.045264100148170644
44.25297199999999,4.222897903761747,0.04510646721593296
44.257556,4.118519366385969,0.04495665946820904
44.262148,4.011564710381391,0.04478530301816448
44.26674,3.9084521615956973,0.04458428399705073
44.271328,3.802274755324623,0.0444083545623455
44.275924,3.691355807387018,0.04424309840876469
44.280516,3.5794152402876187,0.04407389696436084
44.285112,3.4704173459594547,0.04386519935936956
44.2897,3.361052897488854,0.04368045671752803
44.29429999999999,3.249767395408812,0.043491506709472195
44.29888,3.1397478819188547,0.04325519450091074
44.30347999999999,3.0276851301053105,0.04302922740547475
44.308068,2.9080603485681458,0.042810517794539746
44.312668,2.7884355670309815,0.04257105657287365
44.317252,2.6746961310362876,0.04224673718236127
44.321844,2.5553157189274143,0.04190978925197686
44.32644,2.436712556552043,0.04155453251921235
44.331036,2.322606566414912,0.04118356273586514
44.335624,2.208134022135343,0.040833205302466494
44.34022,2.0968926615039294,0.040534246110555595
44.344804,1.9858956703008064,0.0401569714358163
44.349392,1.8755537441170402,0.039808141206796425
44.35397999999999,1.7688095557238652,0.039406303063581824
44.358568,1.6561800217882208,0.037289515188538874
44.36315999999999,1.546493160623811,0.035157650408619325
44.367748,1.442325090859434,0.033024734215400885
44.37234,1.346296072572516,0.03090728155382405
44.37692,1.2523985755064413,0.02883240873803377
44.381516,1.1635752724324449,0.02675489273579404
44.3861,1.0798261633505264,0.02469321335406805
