Time,Force,Position
42.484344,0.9344321601668694,0.019777192671037815
42.488944,0.8617442960701672,0.01781587652187499
42.493532,0.7876682586692346,0.01593307002598185
42.498132,0.7179672087923955,0.014073670511484752
42.502728,0.651863896706148,0.012219622298135785
42.50732,0.5884588879628437,0.010393139597288447
42.511912,0.5354363970002488,0.008528436301582953
42.516508,0.4847456552381602,0.006695315158060724
42.5211,0.4343434243529912,0.004932928738034957
42.525696,0.3920361034966529,0.003193443286919564
42.530288,0.35181616241252966,0.001578509796134644
42.53488,0.3178922624619415,0.0
42.53946,0.2866666658542968,0.0
42.544044,0.2608037741156498,0.0
42.548632,0.252084517962679,0.0
42.553228,0.2647617002053322,0.0
42.557824,0.29074041081477875,0.007401476156735574
42.562412,0.3288768459150795,0.014849716657013692
42.567008,0.38603382876186954,0.021907613716101098
42.5716,0.4557931335074683,0.029014088901984165
42.576192,0.5348455332382038,0.03625697223184885
42.58078,0.6294870690876112,0.04351038198548059
42.585364,0.7376745027321032,0.050818098554728124
42.589972,0.8550328466475863,0.05821922080538916
42.594556,0.9870367507854652,0.06544828700954115
42.599144,1.1270236198697678,0.07277161729658342
42.603736,1.2697190319287528,0.08017471946907588
42.608332,1.4221962778294572,0.08765038333302821
42.612928,1.5890747145242663,0.09511159136870168
42.61752,1.7657349850607946,0.10259484492119511
42.622124,1.9534430780291283,0.11004631885820008
42.626708,2.148967809781111,0.11744724176088707
42.631308,2.3510431917266588,0.12492609500041281
42.635896,2.555650550852377,0.13235703671053944
42.640496,2.747034424876821,0.13971630867605572
42.645084,2.9195096962371805,0.14705332875616925
42.649684,3.081826339981644,0.14689476152107717
42.654268,3.230020064177185,0.1466491875980629
42.65886,3.3629131631309725,0.14680183892616822
42.663456,3.487046047404834,0.14688018479146508
42.668048,3.6051950636072316,0.1466978885072861
42.672648,3.714906277823512,0.1463723486748968
42.677248,3.8107830833677876,0.14600018025553196
42.681844,3.8946243491353556,0.1455298856429986
42.68644,3.9630428049470248,0.14527064322405286
42.691028,4.024377730259918,0.1449171367222169
42.695612,4.082104678150481,0.14441313172568357
42.7002,4.132826138807785,0.14375566963483472
42.7048,4.173721624174743,0.1430451190335862
42.709392,4.205201829842418,0.14230030900399313
42.713968,4.226000767220724,0.14158727858988854
42.71856,4.235018773882353,0.14101086899929205
42.723152,4.241861117874511,0.14030719323337265
42.727744,4.245961017075095,0.13960941906659796
42.732332,4.250637938029519,0.13899532194259856
42.73692,4.259733987956665,0.1383617692381345
42.74152,4.2696514290659415,0.13779290264471963
42.746108,4.281167511090851,0.13727614163562954
42.750716,4.2939937231544745,0.13676957441313553
42.755304,4.308785130276166,0.1362836257033485
42.759904,4.319900756341749,0.13595716209149336
42.7645,4.328240035798871,0.13576943898638175
42.769088,4.339566129475856,0.13556832476033748
42.773684,4.356577340715647,0.13530347807833856
42.778272,4.375920301155945,0.1350171712039949
42.782876,4.400537683567984,0.1346431100815726
42.787464,4.420946404618706,0.13440089871307592
42.792064,4.4415214518322,0.1342180139598782
42.79664,4.465205497979702,0.13402277787586392
42.80124,4.494408335527236,0.1337265531164139
42.805824,4.5263094764177145,0.13338612205894396
42.810416,4.567815885355401,0.13283622499781367
42.814996,4.609444479007233,0.1322914964069594
42.819592,4.648252584601975,0.13180868203397345
42.824192,4.68951462411137,0.1313034570004805
42.828788,4.731187359211828,0.1308331070383767
42.833368,4.775436212941085,0.1303400946903243
42.837952,4.8213617508514925,0.12982886269694766
42.84254,4.865488419866604,0.12934126850347585
42.84714,4.908960023862359,0.12885222749571723
42.851728,4.951654378124613,0.12836011596193803
42.856316,4.991772613758068,0.12789792725780727
42.860908,5.035732956610406,0.12736684501764767
42.865488,5.074951757796213,0.126936181257127
42.870072,5.116335982019753,0.12644961105405728
42.874656,5.14938092678617,0.12611797967376828
42.879236,5.188311217095057,0.12566113427994147
42.88384,5.226219888242151,0.12523209605802477
42.888424,5.2557892799321255,0.12495314832779279
42.893012,5.276652838022538,0.12485595262569708
42.897608,5.2955953425035105,0.12479929763894207
42.902196,5.305954198099069,0.12490865187526816
42.9068,5.315535803961125,0.12502192677776283
42.911388,5.328060082594416,0.12507585552526
42.915988,5.340950915370144,0.1251015266993142
42.920568,5.353963932860019,0.12511802202671357
42.925168,5.362235408683362,0.1252180596800251
42.929752,5.375614980315673,0.1252095573004984
42.934352,5.393980463042804,0.1251025245030516
42.938944,5.414633553521816,0.1249378635024731
42.94354,5.441171989543297,0.12466749581819965
42.948128,5.473107032250665,0.12432624952374888
42.952724,5.500544902719794,0.12405106876931728
42.957328,5.533868118731392,0.12367428423948473
42.96192,5.567435704171283,0.1232885112418223
42.966508,5.607910254315434,0.12277925006828129
42.971104,5.644909251383142,0.12231616545309125
42.975692,5.687915778707466,0.12175627173850509
42.980276,5.739505954917203,0.12106491101204171
42.984868,5.79530479248826,0.12028058931392577
42.98946,5.854290672258842,0.11944199838668516
42.994056,5.917485213390744,0.11852014549215895
42.998648,5.981945743112732,0.11758298961096215
43.00324,6.045629023101217,0.11666167908819162
43.007828,6.110700476393932,0.11571811880688557
43.01242,6.176260668543231,0.11475346135686237
43.017012,6.244885718177909,0.11373500053780837
43.021596,6.3059487380889685,0.11283899316130806
43.026208,6.366478877694816,0.11194886751702451
43.030796,6.424188529243575,0.11110850928217486
43.035408,6.478422627715888,0.11031328842042284
43.039988,6.532490400025427,0.10949677737196827
43.044592,6.5866803570491115,0.10867494165719639
43.049184,6.635351522672764,0.10792277656779714
43.053776,6.680302765791678,0.1072180029403808
43.058368,6.720756836672353,0.10656259356348878
43.062948,6.763376330590762,0.1058767039232327
43.067544,6.79904471835628,0.10525371446241874
43.072132,6.831481922473641,0.10465101300464456
43.076724,6.8668617993622405,0.10401957291493075
43.081308,6.899787742336185,0.10340612235328533
43.085908,6.929482501661975,0.10280604760486978
43.0905,6.954025023730171,0.10224035615424192
43.095096,6.976480166026151,0.10166412798202999
43.099684,6.990840398293299,0.10115244499450264
43.104276,7.003890500521736,0.1006305016161358
43.108864,7.016896461301543,0.10007119730844363
43.113448,7.029736095918578,0.09947577224447159
43.118028,7.039222362173312,0.0988968288659968
43.12262,7.048009421960062,0.0982711062889939
43.127208,7.054586917260451,0.09763808380257277
43.1318,7.052047883370216,0.09707304287940605
43.136392,7.0466442199742625,0.09648965931780447
43.140984,7.039397546234386,0.0958735414170146
43.145576,7.033250534921819,0.09519424967481153
43.15016,7.027958816608274,0.09446568965920384
43.154756,7.014816557694189,0.09377556840455913
43.159344,6.995378257646569,0.09312052784332052
43.163928,6.97001047060785,0.09248185746763976
43.168544,6.939857000453973,0.09184272456330188
43.173132,6.903529673880707,0.09123190172442423
43.177732,6.864992782821079,0.09060399629948698
43.182324,6.825800826742095,0.08996170731942464
43.186912,6.784810001767816,0.08932491386765833
43.191508,6.745329534811912,0.08863836748677986
43.196092,6.699553026722475,0.08798203629529135
43.200696,6.6473582927853565,0.08736262117174821
43.205276,6.5925874402194395,0.08674328230249682
43.209876,6.53229779625349,0.08615482220095422
43.214464,6.466777871764428,0.08562665532800542
43.219064,6.398559643932421,0.08510384326922517
43.223644,6.339291619128265,0.08447156916331364
43.228244,6.280678659343465,0.08383804652216552
43.23284,6.224641818187464,0.08318619223718218
43.237432,6.165540119546082,0.08255966467520069
43.242024,6.105172432314616,0.08195010807191914
43.24662,6.0493019173213884,0.08130675118164465
43.251208,6.003569550680578,0.08058822530873487
43.255808,5.960946182973777,0.0798706101657728
43.260396,5.915257957781596,0.07917828430282788
43.264992,5.871002047342272,0.0784889117238833
43.26958,5.827811897513372,0.0778272991642592
43.274168,5.786054062437328,0.07717256908742995
43.278756,5.745972911542435,0.07650961493936406
43.283348,5.71157687821035,0.07584998132943083
43.28794,5.683887581602863,0.07518019788101087
43.292544,5.663271575862415,0.07447934245525603
43.297128,5.646664003503622,0.07378345368316579
43.30172,5.640971829230749,0.07302999055998402
43.306312,5.643374564986708,0.07223877161765323
43.310892,5.650562983857825,0.07146017047233172
43.31548,5.651788013920955,0.07079473983791043
43.320084,5.661763019032271,0.07011477570076342
43.324672,5.674969207791743,0.06944920705065115
43.32926,5.691695091076289,0.06882642854551424
43.333856,5.7126737771707825,0.06820706107360375
43.338444,5.7407257541323125,0.06758111794603762
43.34304,5.769188426684908,0.0669941776988852
43.34762,5.803947140371037,0.06639430009756289
43.352224,5.847211459677064,0.06580061761343182
43.356804,5.901757731211448,0.06515674675384427
43.361392,5.963621663041159,0.064495141038924
43.36598,6.029083332661463,0.06383284062718313
43.370568,6.0978983706440655,0.06318483400305372
43.37516,6.167612843074317,0.06255015328817544
43.379748,6.241047238009305,0.0619129614921188
43.384336,6.315669578268859,0.06131958460160632
43.388932,6.397731763537888,0.06071263744014739
43.39352,6.477628525769186,0.060146801045257436
43.398108,6.558424722448129,0.059593419299813835
43.402692,6.644084645507751,0.059025142848115594
43.407284,6.7358742835381324,0.058411532199691696
43.411872,6.8213678804349795,0.057823642215424714
43.416464,6.90788309649362,0.05724281590045986
43.421056,6.997174659160721,0.056617595626465865
43.425636,7.084545168218381,0.05601161704823223
43.430216,7.161777528923624,0.05544089311368023
43.434804,7.234634902104773,0.05487740459777684
43.439392,7.30197348388589,0.054334435307787296
43.444,7.364937078142913,0.05379726997386013
43.448588,7.416252166029142,0.05331961294548795
43.453196,7.461149028067689,0.0528599620682182
43.457784,7.503225402049148,0.05241321913389577
43.462372,7.541704038240016,0.05197266696680451
43.466968,7.57274282942141,0.0515507100666542
43.471556,7.595320156431535,0.0511530681842713
43.476152,7.609924758126976,0.05075423286579227
43.480732,7.608750235355821,0.050386544994980305
43.485332,7.602301290612924,0.0500156157238911
43.489908,7.587390881698759,0.04966456109465263
43.494508,7.558255847785002,0.04935109234199455
43.4991,7.521558784147627,0.049054846540060815
43.5037,7.481919047739015,0.048768249200656935
43.508292,7.431652424121403,0.048516242717348834
43.512888,7.373335031923588,0.04830285167047208
43.51748,7.309376663611597,0.048098829378824634
43.522076,7.242353437814223,0.04790856481221533
43.526664,7.167523812864938,0.047744729884250756
43.531264,7.087708276820832,0.047602704774331726
43.535856,7.001352330214899,0.04746884260206331
43.540448,6.915362937751404,0.047312479157885404
43.54504,6.821689330850143,0.047177189801918346
43.549624,6.720331509511116,0.04706363206266979
43.554212,6.613210527343766,0.04696467114477792
43.558808,6.506866794909916,0.0468681549973013
43.5634,6.39770257441898,0.046775054123751186
43.567992,6.288416169213896,0.04668369922618273
43.572588,6.185425805142348,0.046589602001710494
43.577176,6.076960791119395,0.046548645740953666
43.581768,5.96939521154409,0.04650451930930753
43.586356,5.863750685578227,0.046453137459201446
43.590944,5.759782843793514,0.04640471668393558
43.59554,5.651972894789917,0.04636622812565133
43.600128,5.547105618557556,0.04631209098226154
43.604716,5.442238342325193,0.0462565031840378
43.609316,5.337248881378686,0.0462057853606084
43.613912,5.236756592670418,0.04615542194400911
43.618508,5.142804714523975,0.046089630828771225
43.6231,5.051018259415266,0.04599662091895406
43.627696,4.960786303773562,0.04591842364848644
43.632284,4.867122936504039,0.04588825372014563
43.636884,4.779877795082197,0.0458522806214503
43.641464,4.697496380041033,0.04578852954613757
43.646064,4.6188348875046055,0.04571404838177887
43.650652,4.536209103035149,0.0456647357734117
43.655252,4.458202675518077,0.04560516178293529
43.659848,4.380973497734508,0.04555216927644365
43.66444,4.299002778284408,0.04551411198263205
43.669036,4.222140154643275,0.04543213063159795
43.673632,4.143234292678555,0.04536674819847235
43.678228,4.071646091009163,0.04529233139155002
43.682824,3.9968708471402454,0.04525982873777842
43.687412,3.9237722874524787,0.04523923071842477
43.692008,3.846831620545829,0.0452370317383754
43.696596,3.7697687689250325,0.04524756853209305
43.701184,3.693483167037739,0.04527218544406525
43.705772,3.6174419345787374,0.04526759671523041
43.710372,3.5375585949008523,0.04528375840838468
43.71496,3.460251373851766,0.04530556021833735
43.719552,3.383965771964472,0.04531723804012859
43.724148,3.3108672122767047,0.04528313638442496
43.728736,3.233271480350698,0.045242358056890225
43.733336,3.1513449023492255,0.0452863174526708
43.737912,3.066597836290664,0.04533807241054459
43.742488,2.984138377983982,0.04533008181625744
43.747088,2.8960379435631207,0.04534471727964184
43.751676,2.803195967475728,0.04539560659365461
43.756264,2.7131744794454256,0.04543609812971887
43.760848,2.617634200015091,0.04547995560837671
