Time,Force,Position
35.943,2.326534145594504,0.04628352313655139
35.947588,2.272690263449778,0.046226421649590774
35.95218,2.2151264588003157,0.04618889722554248
35.956772,2.1488568205512943,0.046259585276437934
35.96136,2.0834866167499206,0.04633203320047354
35.965952,2.013374871282016,0.04649314134800124
35.970544000000004,1.941830811061253,0.0465718033751997
35.97513599999999,1.863746340278664,0.04668602425282342
35.979716,1.7850068044767184,0.0467425848597908
35.984312,1.6998490428270916,0.044434574539740146
35.9889,1.6154685309109675,0.042146641603131155
35.9935,1.530555138689632,0.03980935270286699
35.998088,1.4465411809159456,0.037474072075498105
36.00268,1.3576634967615822,0.0351764000363949
36.007272,1.2677641934454251,0.03288212751660967
36.01186,1.177087640395766,0.0305905581167121
36.016448,1.084734403164957,0.02828220368506971
36.02104,0.9905822970388519,0.025976342049406315
36.025644,0.8945091373033057,0.02369378905365566
36.03023999999999,0.8017331870081081,0.02139334801404572
36.034828000000005,0.7125549745035022,0.019096885179126392
36.039424,0.6278739342371354,0.016805870460448312
36.044012,0.5487116853708014,0.01449594880145735
36.048596,0.48008663573612265,0.012107747645691025
36.053184,0.4168242909704417,0.009719971347090468
36.05778,0.36763048467331766,0.0072298889256806
36.062372,0.3258867630174064,0.004807414552194493
36.066948,0.2965790370975301,0.002381984154121508
36.071544,0.2804845566471909,0.0
36.076132,0.2783805713998909,0.0
36.080724,0.2849926593838887,0.009912975577552793
36.085312,0.3078828503228041,0.01895069374591927
36.0899,0.3378124303118673,0.02807094679348699
36.09449599999999,0.3777240721223131,0.03711610830070166
36.099076,0.43043826381123085,0.045803440576499564
36.103664,0.4927679631790942,0.05442358420888041
36.10826,0.5695768966065796,0.06272492071850912
36.112852,0.6551019032653628,0.07114551307325216
36.11744399999999,0.7483213639936501,0.0797049784443831
36.122028,0.8517012301794171,0.08800809614025985
36.12662399999999,0.9637530281478538,0.09604106849362855
36.131204,1.082389378126745,0.10384955522952576
36.135812,1.2020914887160579,0.11171478679593365
36.140404,1.315631387597809,0.1198013863970696
36.145,1.4299824380299513,0.12774068748268919
36.14958,1.542079782527105,0.1355633017111858
36.15417599999999,1.653678148535937,0.14326980870995668
36.15876399999999,1.7586478210856864,0.1510636547005069
36.16336,1.8526138126522596,0.15900306441443407
36.167952,1.939662599882831,0.1669649449521447
36.172544,2.0214708669585497,0.1649958661088877
36.177132,2.09011003001336,0.16411753573615295
36.18172799999999,2.1586609101709135,0.16299431839469386
36.18631599999999,2.224058649945831,0.16191479614015436
36.19090799999999,2.2806622732239323,0.16130253192240984
36.195504,2.3324360719382473,0.16076476345031523
36.200096,2.3772146230510427,0.16053505265750434
36.204688,2.4226821410000836,0.16004188883097634
36.209276,2.4680613760518684,0.15931067030971097
36.213872,2.501948191263894,0.1590119335491915
36.218452,2.528228835303672,0.15903093544739708
36.223044,2.553854414324093,0.15908559892118798
36.22765199999999,2.581523231668101,0.15902505202133266
36.23224,2.6211290662598232,0.15846698387832575
36.23683199999999,2.657425673937873,0.15813110503795183
36.241428,2.6937222816159228,0.15782881203122417
36.246016,2.729407965723244,0.15764123294255727
36.250612,2.7681585073159463,0.1572987786713406
36.2552,2.8088301025180895,0.15684380058340422
36.259804,2.8519556316348855,0.1563328222241544
36.26438399999999,2.894059541589888,0.1558724517599607
36.26898,2.9409049932114204,0.15517442028892384
36.27356,2.981576588413564,0.1547100273266095
36.27816,3.0181175655199053,0.15434998873030095
36.282748,3.0566576395012057,0.15378612148115348
36.287348,3.092333083976788,0.153237922770494
36.29194,3.1253882683749454,0.15267876226159374
36.296532,3.1513260204574367,0.15228198252026376
36.301124,3.173089012995498,0.15191159057094167
36.305716,3.195663157083951,0.15130327047148584
36.31032,3.215983595237414,0.15061881345285344
36.314916,3.2237899943893256,0.15026949911259785
36.319496,3.2247233306538625,0.1500237922443473
36.324088,3.2103221398597586,0.15022013725956126
36.328676,3.1921127436636603,0.15037595932276265
36.333264,3.166908099866043,0.15065111229858186
36.337844,3.1380174353805774,0.15085080129253
36.34244,3.1047076419223907,0.1510810281975474
36.347036,3.069799207548572,0.15124016097303922
36.351624,3.0301831333251106,0.15136601995083326
36.356224,2.9898678526336653,0.15138165112121482
36.360812,2.944356193235996,0.151451561218675
36.365404,2.8968793387802574,0.15153032075862558
36.369996,2.850257777323538,0.15147639324883364
36.374584,2.797095805304993,0.15171637057956883
36.379192,2.7440560180005935,0.15194590791687276
36.38378,2.6892173618008988,0.15225467252360186
36.388368,2.6362997592106447,0.1524628682401025
36.392956,2.583015602477954,0.15271191978574425
36.397544,2.5309193910698307,0.15297187693089467
36.402136,2.4784566255192697,0.15329791482403535
36.406716,2.433477846426811,0.1534331660598981
36.411316,2.3920187618594264,0.15357445997602814
36.415896,2.3579214790359986,0.15353101682923717
36.420496,2.32914275963294,0.15339132109597306
36.42508,2.3045387997743125,0.15324723427837084
36.42967999999999,2.279245873079439,0.1533695734415117
36.434268,2.2571060867672017,0.15354032203954363
36.43885999999999,2.241062113608837,0.15358108973422738
36.443456,2.23038084531947,0.15364282325672077
36.448052,2.2268170093457678,0.15353471519740208
36.45264,2.2320472898688806,0.15322549763325682
36.457236,2.2472154907647486,0.15264882893130013
36.46182,2.266802820633338,0.15204886906824866
36.46641199999999,2.2974718747506206,0.15110428724151687
36.471,2.3357471000401526,0.14997850762831616
36.47558,2.3803625079118467,0.14873885203541556
36.480176,2.4271094370043844,0.14762643343255955
36.48476,2.4764766261743483,0.14655641115408402
36.489352,2.528830629564175,0.14549096588411514
36.49393599999999,2.5878913696786023,0.14428262946465126
36.49852799999999,2.651204912602977,0.14301977794153042
36.503112,2.7201594316415303,0.14158334528337677
36.507704,2.7945105573659705,0.14004613081544165
36.512308,2.872215051452711,0.13850363888733022
36.516896,2.950574610558808,0.13696169765109167
36.521484,3.036374014674379,0.13515296279560093
36.526076,3.126259895437124,0.13323416147197004
36.53066,3.217167395361663,0.13140227573475163
36.535256,3.307664199695137,0.12958329558028614
36.539836,3.3904767895908448,0.1280879786985011
36.544436000000005,3.469691641695961,0.12675561442740804
36.549016,3.5435098871151904,0.1256197278920793
36.55361599999999,3.613486025315537,0.12461561493686361
36.558204,3.678065556829997,0.12377778220414073
36.562804,3.7379035466779267,0.12311419615746473
36.567388,3.798352460096584,0.12241976414441334
36.57198,3.860678285676055,0.1216110748112966
36.576568,3.9228377850927516,0.12075238677577707
36.581164,3.9862632730995338,0.11987202378377522
36.585764,4.048012076925165,0.11905553820850821
36.59036,4.103587024331407,0.1183620792932895
36.594948,4.154664799499411,0.11777795923378331
36.599544,4.200468152695672,0.11730050482474946
36.60412,4.240586388329127,0.11688120726373871
36.6087,4.282581536123396,0.11635885452828056
36.61329599999999,4.320568250536008,0.11587986877512887
36.617888,4.35070442434808,0.11551506758926394
36.622484,4.372990057559612,0.11525822027326335
36.627064,4.39318831099893,0.11499050183083306
36.63165599999999,4.415263476599062,0.11461383688856115
36.63624399999999,4.437050131322273,0.11419843985148989
36.640832,4.458548275168566,0.1137415095484685
36.645428,4.482944950337464,0.11315884704659906
36.650012,4.506520234324233,0.11251340755806179
36.65460399999999,4.528496877395368,0.11181006884979049
36.659188,4.544666218189553,0.11116321156874662
36.663776,4.557604375335583,0.11054333160773781
36.668368,4.570131836890547,0.10989954305740561
36.672956,4.5732542583779665,0.10934603560593009
36.677556,4.568115443673783,0.1088463212436817
36.682144,4.562810302806825,0.1082900531052033
36.686748,4.553741097986502,0.1077251913188716
36.69133599999999,4.538986775603372,0.10718517151514498
36.69593999999999,4.5236995729150316,0.1066200533591462
36.700532,4.50313794825495,0.10611405599531398
36.705128,4.479222955232568,0.10563012572395186
36.709712,4.457473385247918,0.10508386253296907
36.7143,4.435190934958059,0.10450970896590868
36.71888799999999,4.4111096157729035,0.10395500764650448
36.723488,4.387394850730184,0.10336194647667145
36.728076,4.359182913449225,0.10282308663076345
36.732672,4.330193726434765,0.10227991033274368
36.73725999999999,4.29658518246792,0.10179929653473502
36.741848000000005,4.262732269072784,0.1013351541251212
36.746436,4.230311670430506,0.10087596256390491
36.751032,4.197402332931645,0.10045742455414619
36.755628,4.163837930413429,0.10001945256250508
36.760216,4.128108104857479,0.09963145130701509
36.76481199999999,4.09740833184498,0.09920901047891625
36.769400000000005,4.074559099433019,0.09870673995021112
36.773996,4.053264366488063,0.09820131851312573
36.778584,4.036755316658266,0.09768585029294968
36.783168,4.02887405716251,0.0970968794634115
36.787768,4.024101796600764,0.09651206222931129
36.792348,4.019862416344227,0.0959458147488136
36.796952000000005,4.02294069638302,0.09529029860221246
36.80154399999999,4.028106356194027,0.09466451416285872
36.80613199999999,4.039445872424424,0.09398220066493657
36.81073599999999,4.054916006750624,0.09328956473314416
36.815324,4.06683254473486,0.09270269032383412
36.81992,4.08672180803378,0.09204558170877668
36.824508,4.104323463580823,0.09144848519309001
36.82910799999999,4.1247897486335825,0.0908792858510342
36.833696,4.147954337029285,0.09028787678185422
36.838296,4.168953502387256,0.08975149513198323
36.842876,4.191629351926376,0.08920518442178668
36.847472,4.2130833543240405,0.08877110230876059
36.852068,4.236091856188708,0.08834257926258121
36.856664,4.261920846110466,0.08788186632405715
36.861248,4.2845627938326984,0.08749914227999325
36.86583999999999,4.30773762186014,0.08714446137585984
36.87044,4.3319340690493755,0.08677841643653056
36.87504,4.35253277844802,0.0864534580769901
36.879616,4.372476422827308,0.08612067539246407
36.884204,4.397816673892484,0.08574316298210205
36.888792,4.414861786949164,0.08552785019652882
36.893388,4.429985846396404,0.08533977925658279
36.897976,4.442944482805911,0.08520216465229644
36.90257199999999,4.450262143101239,0.08513104987257594
36.907164,4.4641202139583935,0.08498636244547436
36.91174,4.473358927863164,0.08489240535626418
36.916332,4.490936921225055,0.08471445077993683
36.92092,4.509125838157675,0.08448719583848958
36.925508,4.525027147338418,0.08431703065981848
36.930104,4.541950075680953,0.08412946419704943
36.934692,4.562959480670663,0.0838783475923
36.93928,4.589565720325923,0.0835060995073972
36.943876,4.619236817466563,0.08309170577110717
36.948472,4.6462096112642595,0.08270334110149297
36.953076,4.673671143918539,0.08227710950643387
36.957664,4.699455992391668,0.0818546337108505
36.96226,4.721520918360061,0.08147133359013861
36.966848,4.742442040452514,0.0811138530219797
36.97144399999999,4.765039846726117,0.0807602081168218
36.976024,4.7871047726945095,0.08039321860992377
36.98062399999999,4.81398928359495,0.0799069326368945
36.985212,4.842628521942058,0.07935306198969971
36.989812,4.870734879983955,0.07878003883212932
36.994404,4.90587038744426,0.07811518460635739
36.999,4.939573580151708,0.07744721317905143
37.003584,4.974420576735095,0.07676015485056495
37.00818,5.004892585794389,0.0761048779458584
37.012768,5.036386214015475,0.07544501537506623
37.017364,5.069145830826646,0.07475547029908564
37.021952,5.103171436227902,0.07403950487789737
37.02654,5.13245549996263,0.07337392789148742
37.031128,5.159574140659622,0.07275648929858089
37.035708,5.1830950435660235,0.07216477111058349
37.0403,5.208537000081866,0.07156125092418679
37.044888,5.236677259940652,0.07095271896729283
37.04948,5.270580680627763,0.07030336817320776
37.05405999999999,5.308570577962047,0.0696119211468731
37.058652,5.349625332781713,0.0688876436333888
37.063236,5.385938545934847,0.06820191038249475
37.067824,5.420452890192686,0.06753452858875995
37.072428,5.4572989836510315,0.06689416586600135
37.077012,5.496232456881593,0.06629563899719415
37.0816,5.537742048740952,0.06570285248374505
37.086196,5.576064598400784,0.06516089381788723
37.090784,5.61234390973703,0.06464644902923121
37.095384,5.649522655520922,0.06413593448095946
37.099964,5.688622454914257,0.06362067171657826
37.104564,5.729276753774595,0.06312533776510117
37.109152,5.770175422063227,0.06262053260132602
37.113748,5.813405839552364,0.062139226645382746
37.11834,5.857169137346712,0.061677952680554475
37.122936,5.8983563165122606,0.06122008445822021
37.127528,5.939054756821228,0.06079344055348859
37.132124000000005,5.976810524358958,0.06039140618023413
37.136704,6.009702565516016,0.06002456218906566
37.14129199999999,6.035809826682954,0.05970521914869303
37.14587999999999,6.056564622612633,0.05944876766857106
37.150476,6.077075049114022,0.05920992985109062
37.155064,6.09872927949135,0.058953927441409176
37.159652,6.120016955726239,0.05872224973394438
37.16423999999999,6.137340340028102,0.0585217093202179
37.168836,6.147468248748779,0.05833526757309187
37.173428,6.155020038840659,0.05814824819574189
37.17802,6.161672394484893,0.05796337710160051
37.182616,6.169101999862628,0.05778470847598012
37.187204,6.173466747754983,0.05763255677589512
37.1918,6.17272339983837,0.05752368788940523
37.196388,6.165684010788223,0.05742503072388683
37.20098,6.1564791987003415,0.05734995125390072
37.205568,6.142122149354866,0.05726859598450539
37.210156,6.1263327852565315,0.057168447165530205
37.214752,6.109033063139821,0.0571044360215465
37.21934,6.0886243420890995,0.05701665475504547
37.223936,6.070258859361966,0.05691126709440749
37.228532,6.054180984386712,0.05677399984589816
37.233128,6.042189586058631,0.05660299222860473
37.237732,6.031830730463073,0.056387225036166236
37.242324,6.018118506505214,0.05616146182658009
37.246916,6.008903454785596,0.05593078437441465
37.251504,5.996867915008887,0.055709996275527376
37.25610399999999,5.984177310212823,0.05547561867472532
37.26069199999999,5.976106062369142,0.05522771375366885
37.265292,5.965869391487729,0.05500228516908644
37.26988,5.953956036425168,0.05477081899059615
37.27448,5.938689313000304,0.054527792973256786
37.279076,5.921868090108438,0.05427062530312198
37.28366799999999,5.9064350405208,0.05398237078354434
37.288248,5.894721913437901,0.05368201687288135
37.292844,5.885052024678588,0.05336533181517498
37.297448,5.875137766490984,0.05306099695986053
37.30203999999999,5.867266746626966,0.05273951057395377
37.306628,5.8619277039431195,0.052372130696912676
37.31121999999999,5.860186399049864,0.051999972412421984
37.315808,5.85754565970896,0.05162930462168995
37.320396,5.854660550939765,0.051273349882597546
37.324984,5.846911715789894,0.050940975803170155
37.329576,5.840839564821174,0.050614867035187465
37.334172,5.835422478871809,0.05030133631070792
37.338752,5.822032667607759,0.049982576817924236
37.343344,5.807987791324353,0.049646886817050595
37.347932,5.788424123640914,0.04931533041343491
37.352524,5.763219479843296,0.048997231534784275
37.357112,5.735316532702735,0.04867617266333181
37.3617,5.707535770276319,0.048344045572811425
37.366304,5.6802878881551155,0.048030954662886205
37.370892,5.652018386872117,0.04772107333649494
37.37548,5.617985724760795,0.04742938124760022
37.380084,5.575369413764061,0.04716453518811636
37.384672,5.526090507491354,0.04691894990805266
37.389268,5.47501273232335,0.04666921772137432
37.393856,5.420092849936464,0.04642867797950341
37.39846,5.356467133950019,0.046220413431614794
37.40304,5.287855506868753,0.046039907472889725
37.40764,5.211437480635573,0.045895174540730686
37.41221999999999,5.126680174945275,0.04575932255049248
37.41682,5.037181327588444,0.04563596684301063
37.421408,4.939876081079702,0.045551159903708324
37.426,4.836152608723279,0.04546889962229993
37.430592,4.7291199094531855,0.045427498327878665
37.435188,4.616324049354766,0.04540850660710836
37.439784,4.5072481117610845,0.04537243046372803
37.444384,4.398416543595695,0.0453088400134971
37.448972,4.290728779306245,0.045217297574299084
37.453568,4.17613405031253,0.04516716966066413
37.458148,4.055121095471136,0.04512266592308024
37.462732,3.934108140629741,0.04506868693994446
37.46732,3.8157934891312895,0.04501305752583337
37.471912,3.6993998912422796,0.044945082657302536
37.476508,3.5821068589056213,0.04486997958332164
37.481088,3.459950100188288,0.04482672308512088
37.485672,3.334606299271428,0.04483041013754099
37.49025999999999,3.2140040400210976,0.04480580079336349
37.494852,3.091725096589618,0.04476341256236039
37.499444,2.9734104450911674,0.044678002967362275
37.504036,2.8575497275073682,0.04463025771866917
37.508624,2.7475743554660386,0.04450380493397331
37.51322,2.6388649720147948,0.04431863771017834
37.517808,2.532731707192348,0.04414668121530722
37.522404,2.4295411151411375,0.04393849681649067
37.526996,2.3348119872611934,0.04366853389418789
37.531592,2.2358741980199293,0.04348061623796775
37.53617199999999,2.1365698546362286,0.04333158020555628
37.540764,2.0370211418242365,0.04319367068453519
37.545344,1.9432355898405684,0.042987490884589794
37.549944,1.8550910139710792,0.04272074065776376
37.55452799999999,1.764003765330355,0.04245897536693143
37.55911999999999,1.673038701403776,0.04212117636325328
37.563712,1.585671375267789,0.04176928071691715
37.568308,1.4999807333129518,0.0395784764042257
37.572904,1.4200532521864389,0.03736655684601973
37.57750399999999,1.3440900629929542,0.03512757608864469
37.58209599999999,1.2676381349428867,0.03291359340014225
37.586688,1.1965828135787064,0.03071129968969254
37.59127599999999,1.1241393189102955,0.028537868396502405
37.59586399999999,1.057458985070209,0.02633227096982275
37.600452,0.9875916090305961,0.02420022460150385
37.60504399999999,0.919156547743842,0.022109929301255427
37.60964,0.851865290333027,0.020011220453946627
37.614232,0.7872723362651555,0.017930582646431267
37.618824,0.7188372749784013,0.015904728243765525
37.62341599999999,0.6562875592341169,0.013823368902284033
37.628004,0.5974577659945693,0.011732192305157168
37.632588,0.5385057880408763,0.009659443396102061
37.637176,0.4809741073667188,0.0076376843135288735
37.641772,0.4260185453213593,0.00567169549592246
37.64636,0.37748120912368044,0.0037198513436899616
37.650948,0.3324194260024472,0.00184894557212493
37.655536,0.28915651177650975,0.0
37.660124,0.2505129545029572,0.0
37.664728,0.21444551585820257,0.0
37.669324,0.18095419584224579,0.0
37.67392,0.1514271677593174,0.0
37.6785,0.1227995741240369,0.0
37.6831,0.09903570686943268,0.0
37.687688,0.07514965490068276,0.0
37.692292,0.05588295988431777,0.0
37.69687999999999,0.04045837208683554,0.0
37.70148,0.02850933736579904,0.0
37.70607199999999,0.01835917154005824,0.0
37.71066,0.011806743504908852,0.0
37.715248,0.00603156520326164,0.0
37.719844,0.001155821349262281,0.0
37.72443199999999,0.0,0.0
37.72901999999999,0.0,0.0
37.733608,0.0,0.0
37.738196,0.0,0.0
37.74278,0.0,0.0
37.747372,0.0,0.0
37.751964,0.0,0.0
37.756552,0.0,0.0
37.761144,0.0,0.0
37.765728,0.0,0.0
37.770316,0.0,0.0
37.774912,0.0,0.0
37.779504,0.0,0.0
37.78411199999999,0.0,0.0
37.788692,0.0,0.0
37.793296,0.0,0.0
