Time,Force,Position
44.36315999999999,1.546493160623811,0.035157650408619325
44.367748,1.442325090859434,0.033024734215400885
44.37234,1.346296072572516,0.03090728155382405
44.37692,1.2523985755064413,0.02883240873803377
44.381516,1.1635752724324449,0.02675489273579404
44.3861,1.0798261633505264,0.02469321335406805
44.390688,1.0052818663564886,0.0226552467170079
44.3953,0.9372440781073876,0.020619620502841503
44.39988,0.88225320916505,0.018598045990143572
44.40448799999999,0.836344967596447,0.016601484354117634
44.40908399999999,0.7976424412407661,0.014675811472661879
44.413672,0.7726860406598326,0.020829039909778024
44.41826,0.758655277796558,0.027164709876714994
44.422852,0.7520745995744963,0.03377805275493766
44.427448,0.7567861132125304,0.0403892415565342
44.43203199999999,0.7704580695101536,0.047122461049564815
44.436624,0.7991421401726094,0.05360269009089779
44.44121199999999,0.8419388907522503,0.05994507096339465
44.44581599999999,0.8929629757066062,0.066407524829936
44.4504,0.9610424133493819,0.07441596327568326
44.455,1.041313477299901,0.08237402042040479
44.459596,1.131200048929366,0.09026464548935996
44.464192,1.227915541997577,0.09798057394187037
44.468776,1.3311714456276138,0.10560766657898826
44.473372,1.438513825904825,0.1132018764896343
44.47796,1.5526409861721537,0.12064591898333457
44.482548,1.6678678088667935,0.1280388406145246
44.48714,1.7871369667599792,0.13533427366945247
44.491728,1.9035414951474476,0.14267921215354387
44.49631599999999,2.018058871742364,0.14996485729532605
44.500908,2.131133693952683,0.15710462604259112
44.505496,2.2413336470255456,0.15601564170332904
44.51009199999999,2.3459604276180093,0.1546595832329039
44.514676,2.4457912854635735,0.15295611689704128
44.51926399999999,2.539804601400448,0.1511458290158183
44.52386,2.632130993524434,0.14903906011877335
44.528448,2.711855063749611,0.14725688803406348
44.533036,2.7802428006660636,0.14558790181517686
44.537632,2.8430573651021174,0.1437398941401234
44.54221199999999,2.8942912268011556,0.14206094070725464
44.546804,2.9357432546584743,0.14041733803704798
44.5514,2.9672912639599276,0.13882571378044664
44.55598799999999,2.98603672338291,0.1375018846588846
44.560584,2.9972540548991606,0.13627008957492717
44.56518,3.003641561851625,0.1350303013074495
44.56977199999999,3.00135713702142,0.13394335286011494
44.574356,2.9927325296090515,0.13295595425756557
44.578952,2.979566608509815,0.13201585534717167
44.583532,2.9658236656567403,0.13094963634206402
44.58812399999999,2.952325092231957,0.12985400482242257
44.592708,2.9366610957694403,0.12886687829107962
44.597304,2.915644634069665,0.12813084933920366
44.601896,2.8928734449232225,0.12753964286097239
44.606492,2.8709236469589103,0.12703439383613088
44.61108,2.8469747521196385,0.12671098994101435
44.61567599999999,2.821804010138911,0.12655793097767493
44.620264,2.800152962683257,0.12642470989239948
44.62484799999999,2.780999990590883,0.12635433823166087
44.62944,2.7623018555382024,0.12642208395863078
44.634036,2.7480228494582435,0.12647986528938493
44.63862399999999,2.7391845915127995,0.12648776586957347
44.64321999999999,2.736564331435374,0.1264429780691939
44.647816,2.742083122835407,0.12628080255398866
44.652404,2.7518988584940156,0.12613178810863265
44.65700399999999,2.764989919249407,0.12603956237641112
44.661592,2.77661476343505,0.1261519403913044
44.666188,2.793558171041063,0.12622889153182942
44.67077199999999,2.811200785115061,0.12641726340156156
44.67536,2.8305642248188363,0.12667714099629854
44.679956,2.8481729370759443,0.12708585903714625
44.68454,2.86864627883877,0.12750215862249775
44.689128,2.8950491075926936,0.1277981014226289
44.693724,2.9226398816711843,0.12812586926213834
44.698312,2.952562404950182,0.12843211587268707
44.702908,2.98469449271554,0.12872299632711387
44.707488,3.0150277115856032,0.12905307449582396
44.712088,3.046260364903314,0.12935311490262114
44.71667599999999,3.0831339943352027,0.12947629323869939
44.721276,3.119108189319444,0.1296193843538996
44.725864,3.1547158301612477,0.12981383490332732
44.730464,3.1884024173936103,0.13007483982145637
44.735048,3.2196350707113206,0.13037616029227317
44.73964,3.249435409276172,0.1306744659700764
44.744232,3.2803795517169627,0.13091756436704277
44.748828,3.313611301909632,0.1310598805312097
44.753424,3.355915439844298,0.1308820973587857
44.758024,3.3988305013496913,0.13063725083008296
44.762616,3.4468536586640526,0.13022743305309303
44.767208,3.4934445012255555,0.129818683763225
44.771796,3.54334457070073,0.12928402327291455
44.77638,3.590790706261253,0.12878787230294844
44.780972,3.6350056581736205,0.12833654888480342
44.785564,3.681752587266158,0.12776753196129048
44.790152,3.721792779634096,0.12729052959640974
44.794732,3.7648536880387855,0.12665175915631519
44.799316,3.812367627233087,0.12585331204167277
44.803904,3.8624135436075577,0.12496110848890078
44.8085,3.906163418848494,0.12421397238335005
44.813096,3.9486031640507164,0.12344571928872022
44.81768,3.9885448338896596,0.12263474271228003
44.82228799999999,4.025499689508739,0.12182709695783306
44.826876,4.057302307870223,0.12109347885816088
44.831476,4.088938600068931,0.12031279447211195
44.836068,4.117421751885005,0.11949009909204071
44.84065999999999,4.138420917242976,0.11876089945770066
44.845252,4.155778203361726,0.11804689343894184
44.849848,4.172969163317704,0.1172895122964224
44.854444,4.1798556487584895,0.1166685484269075
44.859032,4.185676373588853,0.11600525049454674
44.863632,4.186833600018205,0.11536246795884528
44.868224,4.184348947208336,0.1147038559090961
44.872824,4.183496837130989,0.11395950050794722
44.87741199999999,4.176715240062545,0.11327882178734923
44.882012,4.176185542679007,0.1124240954413374
44.8866,4.167438750552493,0.11170885592716308
44.891196,4.1527624714348805,0.11105464159329208
44.895784,4.132811770345527,0.11046927800029736
44.900376,4.113838546969339,0.10978399512806758
44.904968,4.095476247163879,0.1090343092197033
44.909564,4.072372405691888,0.1083670363107574
44.914152,4.0523334217052795,0.10761907112101828
44.918744,4.037158164099345,0.1067627939852066
44.923336,4.01867367957974,0.10600496637728421
44.927924,3.997412848451673,0.105364975873905
44.932512,3.9795053856859073,0.10469085270515599
44.937108,3.956123272968736,0.104177801157888
44.941692,3.9276330644425967,0.10378827436477148
44.94628,3.9059717773552043,0.10332678713391442
44.950864,3.88741948920182,0.10286067624865283
44.955456,3.870832396106505,0.10242742257820321
44.960044,3.8599304205739973,0.10196476649491402
44.964636,3.8462520984330277,0.1016252141739792
44.969228,3.837359459407218,0.10127027320541321
44.97381599999999,3.8252017349163636,0.10108858150096951
44.978412,3.8206501815977574,0.10084349737526196
44.983,3.816431280604699,0.10072072880932541
44.98759199999999,3.815077009117358,0.10062186808847601
44.992172,3.8171202474409442,0.10057269560944349
44.996768,3.824482049184901,0.10053831179461956
45.001356,3.8430477598916974,0.10039835393546523
45.005948,3.8623126770664777,0.10034691115297674
45.010536,3.882398985423389,0.10037011113226887
45.015136,3.9066159118761026,0.10037034357942885
45.01972799999999,3.9385611942152092,0.1003030370876755
45.024328,3.9714500524505922,0.10029464826601955
45.028912,4.014110504895956,0.10017238222802385
45.0335,4.0604128365805385,0.10006697331035531
45.038104,4.1089247327514835,0.09998197977165255
45.04269599999999,4.157070074779989,0.09993902068577822
45.047284,4.206769916275501,0.09989968646862644
45.05188,4.255448138609219,0.09988777305898872
45.05647199999999,4.308623533181176,0.09982069214167517
45.061056,4.3626983622007804,0.09974742019422356
45.065636,4.420204602848203,0.09957438165413489
45.070232,4.472969301829095,0.09947572810316556
45.07482399999999,4.531208650761392,0.09923505539500112
45.079404,4.587771315512539,0.09900389803933722
45.084,4.6409806119013854,0.09879718737464924
45.08857999999999,4.686217182975547,0.09867388381247064
45.093172,4.727445320668052,0.09856928080904301
45.097756,4.767852067178426,0.09840507641703966
45.102344,4.803473130573642,0.09824488339454329
45.106956,4.8364739338914315,0.09804436020325928
45.111548,4.861091316303472,0.0978899917445527
45.11615199999999,4.88435442722817,0.0976526782209108
45.120744,4.899356301961264,0.09745278715481148
45.12533199999999,4.914025524368809,0.09715143471473697
45.12994,4.922354564194193,0.09685520352612256
45.13453199999999,4.923199617561473,0.09658967145321078
45.13912799999999,4.915416880594713,0.09638524200299188
45.143708,4.902970645226939,0.09617469949356529
45.1483,4.884184227277003,0.09596635512423779
45.15288,4.861755930087847,0.09573077749602991
45.157484,4.8336425153358835,0.0955045623591367
45.162076,4.807894751601317,0.0951442882930067
45.166672,4.776217500875652,0.09481172771701357
45.171264,4.745517727863153,0.09439498762932091
45.17585999999999,4.710809521468997,0.09397741995217594
45.180448,4.677856042521508,0.0934753040003451
45.185044,4.637951457421129,0.093017012743895
45.18964,4.591506461758921,0.0926353574072698
45.194236,4.54657182411509,0.09218629201432092
45.198824,4.500493382595321,0.09175947893072176
45.20341199999999,4.456580364113284,0.09127675243070756
45.208,4.412178606774666,0.09082900493733793
45.212588,4.370475152778989,0.09034809915372077
45.217176,4.32660627574558,0.08990766206825991
45.221768,4.285680071483408,0.0894117077219868
45.226364,4.251049908354769,0.08885182817302026
45.230952,4.22398177494975,0.08818665927977279
45.235552,4.201821509374035,0.08751079235373553
45.24014,4.181748623570536,0.08685780963029391
45.244732,4.160043195034515,0.08627219004125491
45.24932,4.142879080185362,0.0857104346018981
45.253908,4.1234714990329575,0.08527492868660462
45.25852,4.10807235126221,0.08484034165469354
45.263108,4.090019041597148,0.08449537232210395
45.267704,4.080715706980272,0.08409215172487834
45.2723,4.073255382707321,0.08374104858752741
45.276892,4.075444467930204,0.08332689032264334
45.281488,4.086505712915419,0.08284594821972942
45.28606799999999,4.101331021854001,0.08239678157861542
45.290676,4.116567026383647,0.08198134931919718
45.295256,4.134667660419011,0.08160394900067033
45.299856,4.1553444130831725,0.08121826944791585
45.304444,4.176309676624255,0.08088284727904665
45.309036,4.203448796584725,0.08051518588096816
45.313628,4.228588819670237,0.08025284819839906
45.318224,4.254261723060959,0.08002075178133834
45.322816,4.2794458875951,0.07983571744530372
45.327412,4.304630052129239,0.07965505370670202
45.332,4.3355773774917035,0.07941000911333694
45.336592,4.375108351739581,0.07907351934960255
45.34118,4.41206320735866,0.0787456566332948
45.345776,4.4514278554437645,0.07835454865131018
45.350364,4.4870725810241305,0.07799966345984197
45.354952,4.5273366635568815,0.0776057502583182
45.359532,4.560160901080158,0.07728558594884172
45.364128,4.593473877460019,0.07692854091205463
45.36872,4.6231891160492875,0.07660447619685551
45.373312,4.651227670457406,0.07628968383795504
45.377908,4.682575451779195,0.07592256926668545
45.382496,4.721729632252898,0.0754754417511002
45.387092,4.765214658802065,0.07496573090053155
45.39168,4.808821870065377,0.07445509802451418
45.396268,4.8538172546329195,0.07390870960832112
45.400864,4.895092716695724,0.07340108146407752
45.405452,4.943519512891085,0.07280609503324986
45.41004,4.993334482390678,0.07218235857292842
45.414636,5.046336494089795,0.07152207719750667
45.41922399999999,5.099582875217205,0.07085483771763343
45.42381999999999,5.151152572163463,0.07020658331354997
45.428412,5.196836923567252,0.06962755923386874
45.433012,5.2494282396753045,0.06899203524992685
45.43759599999999,5.302674620802714,0.06837780768696156
45.442188,5.363483031653742,0.06771929931297974
45.446768,5.424535811933062,0.06705742297399894
45.45137199999999,5.494050056383649,0.06634861893856789
45.455964,5.565240985015387,0.06565361271068
45.460548,5.639130216990069,0.06496152363689367
45.465144,5.716861556183632,0.06426069807623218
45.46974,5.787563745958787,0.06363950342929495
45.474344,5.854546013229205,0.06305705645826665
45.47894,5.915765119671299,0.06252619023938948
45.48354,5.976984226113392,0.06200309952186159
45.488136,6.040002201450781,0.061486811382439076
45.492724,6.103264546216462,0.06096135196867791
45.49732,6.161907534029758,0.06046665027584499
45.501912,6.219528902681261,0.059991181857619286
45.5065,6.276006467456825,0.059542287213704706
45.511088,6.333383466680036,0.059100015150582316
45.515672,6.389738846741454,0.05867528262307994
45.520268,6.447482400107103,0.05822488472074519
45.52485599999999,6.499584977358572,0.057807417070377135
45.52944,6.551154674304831,0.05737635484080512
45.53402,6.594629461222258,0.056963294740813526
45.5386,6.632585456739655,0.05656726858498454
45.543196,6.6643675958376605,0.056179269791204675
45.54778399999999,6.692674181859221,0.05579234278208557
45.552372,6.715584161194894,0.05541443422161015
45.55696,6.726434938568708,0.055070242407490526
45.561552,6.737119389779749,0.0546869831533355
45.566148,6.741385615143108,0.054317110331202546
45.57074,6.74307572187767,0.053942341333916365
45.57533599999999,6.740390841088138,0.053565104631696996
45.579916,6.72948886555563,0.053201128322841705
45.584516,6.71306809862309,0.05284593019340997
45.589108,6.692150159452309,0.052492071718201326
45.59370799999999,6.664691809719702,0.0521538631288003
45.5983,6.630160169120059,0.0518117130740343
45.602892,6.589210302672734,0.0514779775497801
45.607488,6.539798972054142,0.05116547067756207
45.612084,6.485401730340728,0.05087901187879546
45.616672,6.426385131674929,0.05059691780670783
45.62126799999999,6.364548044952041,0.05031821241967101
45.62586,6.30450982712445,0.05003378820326769
45.630452,6.243449990135066,0.0497519733938762
45.63504399999999,6.180346914822093,0.04947903691072433
45.639632,6.1135239170043825,0.04920811959661947
45.64422,6.043880431129584,0.04893976601730408
45.64881999999999,5.977834683045376,0.04866555042348837
45.653408,5.909379142495144,0.04842104339984003
45.658,5.840801417230766,0.04817846269652105
45.66259599999999,5.771857137823951,0.04795308339603477
45.66718,5.7016468698270515,0.04774480647874685
45.671776,5.630292797954214,0.04754604387704116
45.676356,5.562536463871966,0.04734203404711505
45.680948,5.494291390933137,0.04716404514966765
45.685536,5.424902514118368,0.046998136464965784
45.690124,5.3578453865041045,0.046851265460492356
45.694728,5.28862283585211,0.046724441682746656
45.699324,5.222098588543059,0.04659544242340519
45.703912,5.1577397642717395,0.0464376570356366
45.7085,5.091093332248541,0.04630933974754135
45.713092,5.0193388044163765,0.04621923491673605
45.717696,4.943497799937037,0.046159177685607206
45.722276,4.869455664352995,0.04609607619549282
45.726868,4.792470855997716,0.04604570217525275
45.731456,4.717040547109442,0.04601001924779758
45.736052,4.640588619059375,0.04598032760896125
45.740644,4.566957179066397,0.045937684638231294
45.74524399999999,4.493081369645126,0.04591570905546394
45.749832,4.418306125776209,0.045889093867939136
45.75442399999999,4.340710393850203,0.045871411777496686
45.759016,4.265935149981287,0.04584288540625504
45.763608,4.194757643902961,0.04581518351983609
45.768212,4.120393095625109,0.04582601700086351
45.7728,4.04422967845196,0.04583906574320941
45.777388,3.969987314888254,0.04584375352860613
45.78197599999999,3.8930466479816035,0.04584646693655101
45.78657199999999,3.8163503505032446,0.04582559215305272
45.791164,3.7365891955395054,0.04584346308064177
45.79575199999999,3.653518813662094,0.04591636067297577
45.80034799999999,3.5754343428795052,0.045943758997875804
45.804944,3.501314164029944,0.04593828072917529
45.809536,3.428337789056322,0.045906815828285825
45.814132,3.352540926025611,0.0458821130257501
45.81872,3.2772769433001114,0.045905146643193805
45.823316,3.20291239502226,0.04592842390919422
45.827904,3.130102346211412,0.04598682551315399
45.8325,3.049730267676944,0.04608226244627145
45.837096,2.970624177732561,0.04613850349033389
45.84168,2.8930725872551823,0.04622669492170216
45.846292,2.8174420503872453,0.04630582026113512
45.85088,2.734127299081543,0.046459884207056476
45.855484,2.647214809985249,0.046616969972974216
45.86008,2.5588700061360963,0.04672996039085181
45.864668,2.4724462558963856,0.04683428406444981
45.869268,2.3880657439802615,0.04688837357921101
45.87385999999999,2.3056062856735786,0.046916633142833716
45.87845599999999,2.2266223804433416,0.04696016294422599
45.883044,2.153523820755574,0.04693764086477022
45.887644,2.081691249657892,0.046854037147608746
45.89223199999999,2.009614309131918,0.04679706826440872
45.89682799999999,1.9374151838917983,0.0467510298338401
45.90141199999999,1.8658711236710355,0.04674937139866139
45.906012,1.7933054442884793,0.04677632566306273
45.910608,1.7232717420860926,0.046641930019345516
45.915204,1.6493959326648233,0.046568123548827146
45.9198,1.5757644926718448,0.046450298241681634
45.924396,1.5076518440788995,0.04631037510210413
45.929,1.436840892143011,0.04396177196677904
45.933596,1.3670515593689154,0.041595042322567485
45.9382,1.2981616610424678,0.039229430588475826
45.942792,1.237200346582077,0.03680107034624599
45.94738399999999,1.1809805737882166,0.034370955666696866
45.951984,1.127214734909009,0.03196356742160989
45.956572,1.0752477649250967,0.029555810121237792
45.961168,1.0238136752463953,0.027200383132312926
45.96576,0.9721352161394027,0.024873539169446984
45.97033999999999,0.9194351378706164,0.022548418881982592
45.974932,0.8649361907065345,0.020252132591218573
45.97952,0.8130133621712505,0.017990304703223367
45.98411599999999,0.7590472953123794,0.015732038566415207
45.988704,0.704836859025217,0.013479475785488984
45.9933,0.6535690955092894,0.011200578257061854
45.997888,0.6088417425551881,0.008897141088943322
46.002484,0.5654245196398,0.006709941909292161
46.00708,0.5296915111621773,0.004463275662887889
46.01166799999999,0.5006210979605265,0.002228349909928085
46.01626399999999,0.47167286947302134,0.0
46.020852,0.4460780093478163,0.0
46.02544399999999,0.41856209561317,0.0
46.030036,0.39374448522146716,0.0
46.034628,0.36945975513497525,0.0
46.039224,0.3446862861919005,0.0
46.043812,0.32465435891535643,0.0
46.048412,0.30552186608646026,0.0
46.052992,0.2865115579717096,0.0
46.05759199999999,0.26852286901875255,0.0
46.06218,0.2534768528370305,0.0
46.06678,0.24100695528410618,0.0
46.07136799999999,0.22661600412174057,0.0
46.075964,0.21594497546411204,0.0
46.080552,0.2074393698442162,0.0
46.085148,0.19611327616723115,0.0
46.089736,0.18257393543795714,0.0
46.094332,0.17005621387047667,0.0
46.098924,0.1554952539794091,0.0
46.103516,0.13786943660296105,0.0
46.108104,0.12192030340766292,0.0
46.112692,0.1078922238218062,0.0
46.11728,0.09758406674068659,0.0
46.121864,0.08727590965956696,0.0
46.12646,0.07696775257844733,0.0
46.13104799999999,0.0678033993732669,0.0
46.135648,0.05671799255864509,0.0
46.14022799999999,0.04653202019167113,0.0
46.14482,0.037245482272345025,0.0
46.149416,0.02975781324831462,0.0
46.15400399999999,0.022147959510138544,0.0
46.158608,0.014538105771962465,0.0
46.16319599999999,0.009748740090875618,0.0
46.167796,0.00508155912393444,0.0
46.172392,0.0011916278904954426,0.0
46.17697999999999,0.0,0.0
46.18157599999999,0.0,0.0
46.186172,0.0,0.0
46.190768,0.0,0.0
46.195356,0.0,0.0
46.199948,0.0,0.0
46.20454,0.0,0.0
46.20914,0.002135203786771446,0.0
46.21373199999999,0.0070908956306321175,0.0
46.218332,0.01306820663628631,0.0
46.22292,0.0201893215178797,0.0
46.227516,0.026166632523533892,0.0
46.232092,0.034964431586277316,0.0
46.236688,0.045805468972607774,0.0
46.241288,0.052027149406553314,0.0
46.245884,0.055550526497555305,0.0
46.250472,0.058052284426763766,0.0
46.25505999999999,0.0642739648607093,0.0
46.259648,0.07074001472294618,0.0
