Time,Force,Position
7.406551999999998,0.04004775384015166,0.0
7.411147999999997,0.043401122202451715,0.0
7.415743999999997,0.04471125224116473,0.0
7.420327999999998,0.047287370869962604,0.0
7.424923999999997,0.04961912007046915,0.0
7.429519999999997,0.054893542042210586,0.0
7.434119999999993,0.05775817154792796,0.0
7.438711999999995,0.06760705535652028,0.0
7.443303999999998,0.07847755832690613,0.0
7.447895999999993,0.09073623460152251,0.0
7.452479999999994,0.10201818682987941,0.0
7.457071999999997,0.11529848226628932,0.0
7.461663999999999,0.12767934325505137,0.0
7.466259999999998,0.13621809702493065,0.0
7.470847999999997,0.14655571969010567,0.0
7.475435999999995,0.1529739455377863,0.0
7.480023999999993,0.16523262181240267,0.0
7.48462,0.17508225928790092,0.0
7.489203999999994,0.1785136709157185,0.0
7.493791999999999,0.17863585562986414,0.0
7.4983879999999985,0.18092346338174253,0.0
7.502975999999997,0.1819450825435361,0.0
7.507579999999997,0.18423269029541445,0.0
7.512172,0.18741973249494068,0.0
7.516763999999995,0.19162839385626043,0.0
7.521363999999998,0.19673648966522803,0.0
7.525955999999994,0.20527599710201327,0.0
7.530551999999993,0.20547622508167643,0.0
7.535139999999998,0.20351103002360693,0.0
7.539739999999995,0.1970928041759263,0.0
7.544327999999993,0.19145182806174782,0.0
7.5489279999999965,0.1868324711093629,0.0
7.553507999999994,0.18527797164235857,0.0
7.558107999999997,0.19152987132726537,0.0
7.562695999999995,0.19238516432628505,0.0
7.567291999999995,0.19270757702009392,0.0
7.571879999999993,0.18804407861908085,0.0
7.576475999999999,0.18235896105627425,0.0
7.581063999999998,0.1823148196076461,0.0
7.585659999999997,0.18635715480619205,0.0
7.590247999999995,0.18631301335756387,0.0
7.594835999999994,0.18524725274714218,0.0
7.599423999999999,0.18675761076551844,0.0
7.604007999999993,0.18442586156501187,0.0
7.608599999999996,0.18184974293621398,0.0
7.613191999999998,0.17674164712724638,0.0
7.617787999999997,0.17196620364382645,0.0
7.622379999999993,0.17284197590632372,0.0
7.626963999999994,0.18153438695247093,0.0
7.631551999999999,0.20025300126862897,0.0
7.636139999999997,0.2240119077599759,0.0
7.640735999999997,0.2508900528170703,0.0
7.645323999999995,0.2853846086781515,0.009011529275423064
7.649915999999997,0.32095516478139313,0.018400227308534682
7.654511999999997,0.36900585806929775,0.027553503774709512
7.659099999999995,0.42953668854186544,0.03632240600243758
7.663695999999994,0.4988277336943592,0.04520523055161481
7.668283999999993,0.5779006126885723,0.05407935904690238
7.672887999999993,0.66381265275327,0.0628840542349882
7.677475999999999,0.7577076577643914,0.0715205187037915
7.682075999999995,0.8624061157790259,0.08004323301373814
7.686659999999996,0.9779080267971734,0.08847029329852057
7.691259999999993,1.09677354580936,0.09700344189895181
7.695847999999998,1.2309396900632985,0.10533578932827221
7.7004519999999985,1.3743547878537457,0.11361909265539853
7.705031999999996,1.527096882446219,0.12180375344902927
7.709627999999995,1.6851133990104339,0.12989180746742907
7.714215999999993,1.8450848710009795,0.13786546981667747
7.718807999999996,1.999815822836673,0.1458292337595028
7.723403999999995,2.1475854288877363,0.1537929977023281
7.727995999999997,2.2903147427636106,0.1617278685541362
7.732571999999998,2.4290253836260898,0.1696182719568233
7.737167999999997,2.5541120834279667,0.16864552119289547
7.741755999999995,2.6732590566070065,0.1673255268702678
7.746351999999995,2.7834014456778293,0.16625739989608332
7.750939999999993,2.881963132011637,0.16558744584660953
7.755527999999998,2.9738078419891054,0.16478703794542288
7.7601199999999935,3.059057760324381,0.1639160664415937
7.764703999999995,3.1366912678556695,0.16305261498930745
7.769295999999997,3.2046651262593846,0.16232506809101138
7.773883999999995,3.261835531659586,0.16175659753637428
7.7784599999999955,3.307425234322773,0.16134306430154471
7.783055999999995,3.348874079258419,0.16074790178495965
7.787643999999993,3.3779649717235474,0.1603373060546292
7.792247999999994,3.400094518404045,0.15988615130532963
7.796839999999996,3.4114647535296587,0.15962324221068883
7.801423999999997,3.4159619257678977,0.15947317427613517
7.806019999999997,3.4156734148909784,0.15942126362587675
7.810599999999994,3.414852023708848,0.15935028871548057
7.815195999999993,3.4181171091738918,0.15910378480393117
7.819775999999997,3.419827695171931,0.15888216053829107
7.824375999999994,3.4216604658841163,0.1586467112785758
7.828959999999995,3.429378582138771,0.15817909809036051
7.8335599999999985,3.4418382400599565,0.15754935116715882
7.838143999999993,3.454664452123579,0.15687342675934873
7.842735999999995,3.4673684794730555,0.1562085575347473
7.8473359999999985,3.485058417917354,0.15536612080796652
7.851927999999994,3.5034034213810097,0.15454245467777802
7.856515999999999,3.5168846984639885,0.15388835857959893
7.8611119999999985,3.530121606118677,0.1532665886467122
7.865699999999997,3.5446245023634493,0.1525703883617313
7.870291999999999,3.5619478866653114,0.15177694116278598
7.874879999999997,3.5765729676242293,0.15106797122428928
7.879467999999996,3.5892769949737056,0.1504226329054544
7.884055999999994,3.597239480656652,0.14993976380512988
7.888631999999994,3.608389008539124,0.14931310961737754
7.893215999999995,3.6199050905640338,0.14864064811623753
7.897796,3.630277368713003,0.14802345635726555
7.902387999999995,3.638195712947322,0.14745439806288083
7.906971999999996,3.6402287116391703,0.14711074219666417
7.911559999999994,3.643161144778666,0.14674073223181955
7.916147999999993,3.645849208489871,0.14640413940748145
7.920739999999995,3.6446951649821937,0.14620133885887265
7.925335999999994,3.6381445147886287,0.14615092113458306
7.929931999999994,3.63057224543327,0.1461404569386048
7.934523999999996,3.624921029687352,0.1460641467485991
7.939124,3.614039533418322,0.14619731003182918
7.943711999999998,3.600581918520493,0.14638565872180398
7.948311999999994,3.5940312683269284,0.1463304079245826
7.9529,3.587724987561655,0.14624505949964098
7.957499999999996,3.5823181412440284,0.1461348794961985
7.962087999999994,3.577155664354694,0.1459946552051487
7.966683999999994,3.5713381224460026,0.14584786819874682
7.971267999999995,3.5665421996991054,0.1456623501839684
7.975859999999997,3.567631622494677,0.14527559796241374
7.980452,3.5678216108426026,0.1449138926073947
7.985043999999995,3.5687888489240285,0.1445450036175363
7.989631999999993,3.5747419981002775,0.14400811045571799
7.994228,3.586091753962413,0.14334212364165738
7.998815999999998,3.6001398131674924,0.14260627947085142
8.003403999999996,3.6138213182301344,0.14191443275673213
8.007991999999994,3.6258261391116267,0.14125381536208226
8.012583999999997,3.643716305535589,0.1404109222743697
8.017176,3.6612399178171136,0.13959978801579442
8.021763999999997,3.684404506212817,0.1386439496989947
8.026355999999993,3.7076912793226664,0.13768481423234571
8.030943999999998,3.7312224218608065,0.1366973359151804
8.035535999999993,3.7543870102565102,0.1357462936750729
8.040115999999998,3.770400264519659,0.13504560993554507
8.044703999999996,3.7871907685163095,0.13434265972528833
8.049311999999993,3.8010385997417253,0.1337317969433113
8.053899999999999,3.8115772040534694,0.13325503235067943
8.058507999999996,3.8244475575657195,0.1327562168822651
8.063099999999999,3.838217345525618,0.132235191773305
8.067687999999997,3.848922276000136,0.13182900856059324
8.072283999999996,3.860404456208156,0.1314191830791742
8.076859999999996,3.871109386682674,0.13101929699227882
8.081455999999996,3.8782165793665997,0.13070828061488432
8.086043999999994,3.8825032839934375,0.13047520618451175
8.090639999999993,3.889732661391509,0.1301633106171946
8.095219999999998,3.899494015969751,0.12973879793344176
8.099819999999994,3.909255370547993,0.12931233061438238
8.104411999999996,3.911088141260178,0.1291142729102557
8.109007999999996,3.919705691962481,0.1287383368852624
8.113587999999993,3.919861778493516,0.12856598828217708
8.118184,3.918874061148612,0.12843792895349582
8.122771999999998,3.9151880404607646,0.12836317165895897
8.127367999999997,3.915466311705945,0.12817813394973954
8.13196,3.920075429026591,0.12784000929542033
8.136543999999994,3.9257061655090313,0.12747477785381012
8.141119999999994,3.936322813086293,0.12697197541490676
8.145719999999997,3.95127030673902,0.1263221582805018
8.150307999999995,3.9654405506582444,0.1256797702704793
8.154899999999998,3.9817762176152027,0.12497195769242352
8.159491999999993,3.9951692118009254,0.12433530135217921
8.164079999999998,4.0067633370913525,0.12373456091862074
8.168671999999994,4.0182352776676336,0.12314833669013767
8.173259999999999,4.028563414367975,0.12260532531872824
8.177855999999998,4.034394378830078,0.12214468087174099
8.182451999999998,4.034051486872792,0.12179308420957947
8.187035999999999,4.031298802449481,0.12154047475090275
8.191647999999994,4.02968992190211,0.12124531473671385
8.196235999999999,4.0342107563255,0.12077219867515192
8.20084,4.032068995472918,0.12045619642704274
8.205423999999994,4.036589829896308,0.1199873075370544
8.210019999999993,4.040577784014488,0.11949630597217407
8.214611999999995,4.046242422313817,0.11898009424160229
8.219211999999999,4.0454888347654645,0.118592170711874
8.223803999999994,4.048210800293559,0.11815642498799697
8.228395999999996,4.048234462478709,0.1177702578708853
8.232987999999999,4.04351658299733,0.11748862640982433
8.237567999999996,4.036633280478217,0.11727536375151204
8.242168,4.030771597120898,0.11703440712907166
8.246751999999994,4.020823437116404,0.11690230726660815
8.251351999999997,4.0157390034925875,0.11665781496773309
8.255947999999997,4.01065456986877,0.11641245203490644
8.260539999999999,4.006713940120893,0.11612755615203425
8.265127999999997,4.004572179268309,0.1158128968627923
8.269723999999997,4.007827025101615,0.11540748779607851
8.274311999999995,4.0145574240113655,0.11495384224886313
8.278903999999997,4.019611138739966,0.11451562263019283
8.283483999999994,4.028262591259158,0.11402539685211018
8.288067999999996,4.0385907279595,0.11353021147698358
8.292655999999994,4.049163234088133,0.1130058363348148
8.297251999999993,4.054094764102588,0.11259194121533361
8.301851999999997,4.058781924688752,0.11220127211760032
8.306447999999996,4.069476615531531,0.11167393099896848
8.311043999999995,4.08491284804084,0.11105092570437881
8.315631999999994,4.097650777207207,0.11047979634760971
8.320223999999996,4.107446033602338,0.10996618312591362
8.324811999999994,4.121738462235709,0.1093887752667983
8.329407999999994,4.136153075583225,0.10880116541616101
8.333999999999996,4.14979043919724,0.10821945870146975
8.338587999999994,4.168535898620221,0.10751834229083827
8.343183999999994,4.185604673862053,0.10683873176544789
8.347771999999999,4.205738306589265,0.1060918220851553
8.352359999999997,4.225871939316477,0.10535389945831249
8.356951999999993,4.2463721261861265,0.10458952809285484
8.361543999999995,4.262497325531681,0.10387365048242507
8.366135999999997,4.275024787086645,0.10320407981292347
8.370723999999996,4.290494921412845,0.10247625499795802
8.375323999999999,4.297625776281921,0.10187792968416874
8.379903999999996,4.298216220589172,0.10138625085909443
8.384503999999993,4.304569825724748,0.10079620310575572
8.389091999999998,4.316564406974501,0.1001177057534699
8.393691999999994,4.330602226547842,0.09939638837461805
8.398283999999997,4.335156962788122,0.09883282819563888
8.402876,4.338690079866607,0.09829386058422018
8.407455999999996,4.340424328049796,0.09777704794656235
8.412051999999996,4.348821171508959,0.09715215492387615
8.416639999999994,4.352598658015736,0.0965933609628999
8.421235999999993,4.356620513950804,0.0960139041369457
8.425811999999993,4.35847694684814,0.09548659357301478
8.430407999999993,4.35432584948886,0.09507653756084923
8.434995999999998,4.3520958057390216,0.09463734271955022
8.439591999999998,4.34884414282739,0.09422162420695884
8.444183999999993,4.34354924159217,0.09384667683508786
8.448771999999998,4.334290048423923,0.09354053151513841
8.453363999999993,4.328750777760412,0.09318446197916894
8.457955999999996,4.327708679335141,0.0927810927457837
8.462547999999998,4.325522777033931,0.09240974831856778
8.467135999999996,4.331676154189842,0.09193405611390208
8.471723999999995,4.339750584955196,0.09142535562652676
8.476327999999995,4.3391191821209905,0.09105390090973135
8.480919999999998,4.335789475943842,0.09071174537231577
8.485511999999993,4.330416531443104,0.09040868042839603
8.490099999999998,4.332483431951842,0.09001306685336351
8.494691999999993,4.333650898012932,0.08962590220048267
8.499291999999997,4.335962167949961,0.08920858644632337
8.503884,4.337496188153487,0.08879453204783101
8.508475999999995,4.3401740122329535,0.08834886157063847
8.513063999999993,4.340808597988832,0.08794005540668907
8.517667999999993,4.345651845106031,0.08744648624458655
8.522251999999995,4.354581568870404,0.08687689538367205
8.526847999999994,4.36146805431119,0.08634906919151869
8.531427999999998,4.364390247818947,0.08588280727182385
8.536027999999995,4.368334060488497,0.08539776094252927
8.540611999999996,4.376119980376933,0.0848593135640536
8.545195999999997,4.381984846655924,0.08434840966835316
8.549783999999995,4.383230355982532,0.08388552284561751
8.554379999999995,4.384964604165721,0.08338114429101544
8.558963999999996,4.381302245663025,0.08292297569901785
8.563559999999995,4.3816041790933555,0.08240775983797165
8.568143999999997,4.388568707799658,0.08180944435689401
8.572739999999996,4.392468379020581,0.08126078077448845
8.577323999999997,4.398655657993382,0.08065780674185283
8.581915999999993,4.399324145566151,0.08010732671110438
8.586511999999999,4.403057490624299,0.07950828736149336
8.591095999999993,4.407812454844242,0.07889614136262597
8.595679999999994,4.40680425823586,0.07835130467082116
8.600259999999999,4.4077171152369194,0.07778489646299336
8.604851999999994,4.4104288411332755,0.07720478127731889
8.609447999999993,4.411996763153691,0.0766563407826579
8.614035999999999,4.411643631564666,0.07613064785143366
8.618631999999998,4.407692762185049,0.07562368539113999
8.623219999999996,4.4087278039002555,0.075047162918919
8.627807999999995,4.406165107824869,0.0744887975136326
8.632403999999994,4.400781923692393,0.07395644609484466
8.636995999999996,4.399363031492946,0.07337461739105293
8.641591999999996,4.402807865674175,0.07273568031402002
8.646167999999996,4.407807199322408,0.07211179402192486
8.650771999999996,4.418325324370676,0.0714536175278112
8.655359999999995,4.425778591933561,0.07084634819812755
8.659947999999993,4.43041137143936,0.07026532050103754
8.664539999999995,4.4382311931446825,0.06962857996856155
8.669135999999995,4.446706079869362,0.06901409227318034
8.673727999999997,4.458778704384632,0.06838163614852243
8.678323999999996,4.46586541780508,0.06781024962443727
8.682919999999996,4.469765089026003,0.06729071749121959
8.687511999999998,4.477384682751662,0.06674186297476717
8.692111999999995,4.4857815262108245,0.06620475649765652
8.696703999999997,4.495322173545926,0.06564759591691488
8.701296,4.503186136699877,0.06509017539944922
8.705879999999993,4.51464783764442,0.06452359858542275
8.710475999999993,4.531628329988995,0.06392712679843071
8.715067999999995,4.547587203171776,0.06335087007288447
8.719643999999995,4.570985921364033,0.06273412427646721
8.724243999999999,4.599126181222819,0.06208882904132392
8.728835999999994,4.62240271470093,0.061492647338124005
8.733419999999995,4.644901998445538,0.060899181166611624
8.738015999999995,4.664458609418911,0.06033548244531947
8.742603999999993,4.677352625116312,0.05981987421398078
8.747195999999995,4.68922502165192,0.059315924279247825
8.751783999999994,4.703140656511114,0.05879135360095411
8.756371999999999,4.719876779427398,0.05825848698374364
8.760979999999996,4.7308497415153585,0.0577640244119983
8.765571999999999,4.743088692193403,0.057245861985271825
8.770171999999995,4.762112422861565,0.05668286263720606
8.774767999999995,4.78330157656746,0.056089658188816574
8.779351999999996,4.804490730273355,0.055498676840811174
8.783947999999995,4.821837776760368,0.05493398327818907
8.788539999999998,4.838041019371441,0.0543925477167644
8.793139999999994,4.851956654230635,0.05388730773531718
8.797728,4.8620301818709475,0.05340844395722601
8.802327999999996,4.868383787006523,0.052944573718833016
8.806919999999998,4.870118035189713,0.05249336091002044
8.811515999999997,4.866988556992227,0.05207668394391621
8.816099999999999,4.860016971575858,0.05168268270766593
8.820699999999995,4.857664743111874,0.05127689896894434
8.825283999999996,4.851226038000715,0.05090758939869445
8.829879999999996,4.842211214260759,0.05052765304642775
8.834471999999998,4.830375902463714,0.05015190835776605
8.839063999999993,4.815720102609579,0.049783228339299934
8.843655999999996,4.799021064431858,0.04943242473902814
8.848247999999998,4.775292876835726,0.049136995783078966
8.852827999999995,4.752586308401389,0.048827707479167815
8.857411999999997,4.7218289713868495,0.04858214444885665
8.861991999999994,4.684164669668047,0.04838190804804378
8.866587999999993,4.644212760197367,0.04821541393606326
8.871179999999995,4.601562547383741,0.04804509176093405
8.875767999999994,4.559156703998408,0.04785133800363074
8.880363999999993,4.513030938108337,0.047662652981337275
8.884951999999998,4.467926791380061,0.04746163707644409
8.889543999999994,4.419224906861193,0.04725563613576669
8.894131999999999,4.372199706523474,0.047055772435861606
8.898711999999996,4.326851190366905,0.04686055445844103
8.903319999999994,4.2807254244768345,0.0466509275639691
8.907907999999999,4.231656985815531,0.04645555133053425
8.912507999999995,4.1749043327164586,0.04629355138298087
8.917099999999998,4.1188067446367445,0.04615018505467363
8.921691999999993,4.064263656024034,0.046023326814215046
8.926283999999995,4.014339924363709,0.04588487098738776
8.930871999999994,3.9664594310269705,0.045721843605298795
8.935475999999994,3.916535699366645,0.045574495846970944
8.940064,3.8646909140968786,0.04543662825279337
8.944663999999996,3.813745563274759,0.04529453932727848
8.949251999999994,3.7697071771569046,0.04509847330406248
8.953851999999998,3.721826683820167,0.04491929660749015
8.958439999999996,3.673824005769283,0.04475091590852932
8.963035999999995,3.626476392737756,0.04460099914024214
8.967631999999995,3.5767189872402048,0.04450414629933673
8.972223999999997,3.526472842886071,0.04445607761344703
8.976807999999998,3.4770039482654393,0.04441848100952165
8.981403999999998,3.4310106067212534,0.044393274893637216
8.985999999999997,3.377455235453447,0.04440035221061162
8.990599999999993,3.3218566258620537,0.04443114865279851
8.995191999999996,3.261272105175839,0.044511030945560755
8.999783999999998,3.198522161451891,0.044640087424291236
9.004371999999996,3.1360165871562344,0.044743143911237786
9.008967999999996,3.0719565133935736,0.04481666790791083
9.013547999999991,3.007119189897411,0.04487162972917123
9.018139999999995,2.9385619438965116,0.04493467219197366
9.022735999999997,2.8710263170574053,0.04496510515240827
9.027327999999995,2.8034906902182994,0.044994370470095815
9.031923999999997,2.7438836472452497,0.04493263641017881
9.036499999999997,2.6881187114910827,0.04483371138618905
9.041092,2.6274900493562394,0.04476065960211348
9.045683999999994,2.5754450361068097,0.04463883300179139
9.050267999999996,2.5178812314573475,0.044522765867278546
9.054875999999991,2.4556980698555,0.04440926864341931
9.059459999999994,2.3928598432342962,0.04425803488952005
9.064055999999994,2.332431409079116,0.04401768447419936
9.068647999999996,2.2675058026856965,0.04375333098990007
9.073235999999994,2.1989824585016864,0.04346657479089114
9.077827999999997,2.1372438943077934,0.043101934202074796
9.082407999999994,2.0785701875992815,0.04266840670344287
9.087011999999994,2.0257818264332386,0.042150699967412164
9.091592,1.9761805074667222,0.04153864785145511
9.096191999999997,1.9300547415766518,0.04093768315004965
9.100772,1.8856056598677313,0.04034005175751104
9.105371999999996,1.8407900240163737,0.03979365532605602
