Time,Force,Position
2.8212840000000003,0.0,0.0
2.8258720000000004,0.0,0.0
2.830464000000001,0.0,0.0
2.835056,0.0,0.0
2.8396480000000004,0.0,0.0
2.8442480000000003,0.0,0.0
2.848840000000001,0.0,0.0
2.853416000000001,0.0,0.0
2.858004000000001,0.0,0.0
2.862588000000001,0.0005982729509347901,0.0
2.8671880000000005,0.0020959803495174322,0.0
2.871776000000001,0.004493122195747925,0.0
2.87636,0.008034067917917612,0.0
2.880948,0.008099460563641565,0.0
2.8855319999999995,0.00918647237115904,0.0
2.890124,0.011172918626324368,0.0
2.8947160000000007,0.014058799329137547,0.0
2.899292000000001,0.0188657336413921,0.0
2.9039,0.02187379905835095,0.0
2.908488,0.02704728751304251,0.0
2.913080000000001,0.03132134152008623,0.0
2.917672,0.03571758024127561,0.0
2.92226,0.03999163424831932,0.0
2.926856000000001,0.044265688255363034,0.0
2.931432000000001,0.04841755754826109,0.0
2.936032000000001,0.05310230714636996,0.0
2.940608000000001,0.06016294739361354,0.0
2.945212,0.07246410779570918,0.0
2.9498040000000003,0.09017211451543072,0.0
2.954388,0.11412100935470205,0.0
2.958972000000001,0.14605286914039714,0.0
2.9635680000000004,0.18584550915837034,0.008356018604618523
2.9681560000000005,0.23259949496097382,0.01666755081889646
2.972736000000001,0.2924886829675968,0.02486429711875942
2.977316,0.3594614014729957,0.03304713630960527
2.9819,0.4333954657630249,0.041292744658958
2.98648,0.5155568644277692,0.049427726959847
2.991072000000001,0.6044352394488522,0.05759234408094631
2.9956560000000003,0.7048943172069507,0.06567712718783776
3.000236000000001,0.8091276985501532,0.07393147736235606
3.004828,0.9230207290209292,0.08217683074855985
3.009416,1.0445301702956922,0.09047842723049464
3.014004,1.1778646837357618,0.09861264928601954
3.0185960000000005,1.320858846303405,0.1067117708455687
3.0231840000000005,1.4719581585316177,0.11482785943059097
3.02778,1.6289530559340393,0.12298848025549144
3.032368,1.788279702536967,0.13114961085992669
3.036956,1.9480509465478495,0.13918118318196562
3.041552000000001,2.1047470934416124,0.1471734513418513
3.046144,2.25574788314083,0.15510543156131762
3.050740000000001,2.3997873270554173,0.16296572605049262
3.055328000000001,2.5362103601660184,0.16241159362427224
3.0599240000000005,2.666327112511345,0.16184807638815074
3.064512000000001,2.783841542957863,0.16151162457746276
3.069108,2.8942724429056055,0.1611460958149368
3.073696,2.9979863664970092,0.1606599954601986
3.078296,3.091551902104256,0.16032689933770772
3.082880000000001,3.176601592459868,0.1599487652333726
3.087472,3.2510921992402584,0.15966223445804759
3.09206,3.3227079368831927,0.15908003851999528
3.096656000000001,3.3827429717891118,0.15860204400461994
3.1012439999999994,3.4351615958910453,0.15805239141463825
3.1058400000000006,3.4740784636465207,0.1577246615053223
3.1104280000000006,3.5035800517027145,0.15740087691958765
3.1150199999999995,3.525098674812484,0.15706012530837987
3.1196079999999995,3.5422320707664214,0.15658999912407
3.1242,3.5564566957660135,0.15606666112591525
3.1287959999999995,3.5620535304315633,0.15578320881132246
3.1333839999999995,3.563641931715457,0.15557812913523722
3.1379719999999995,3.5649859635710595,0.15540594058313573
3.142548,3.564531126531366,0.15528991391529084
3.1471400000000003,3.562155235882231,0.15524399361207417
3.151736,3.5561816074425048,0.1553071869808109
3.156324,3.5542944556499534,0.15519900402791897
3.1609320000000007,3.5504862502479595,0.15516136788554064
3.1655200000000008,3.542713752912938,0.15528201556882315
3.170108000000001,3.539149916939236,0.15521266766646005
3.1747,3.5346866465178866,0.15517050058039694
3.1793,3.52818013777295,0.15521670459667924
3.183904,3.5175871523808384,0.155433928896309
3.188492,3.5128795125311973,0.155422769137882
3.1930879999999995,3.50637300378626,0.1554671209447338
3.197664,3.500888114203117,0.15546921437677108
3.202264,3.496302659067621,0.15544221750602782
3.20684,3.492861007808065,0.1553557702878101
3.211444,3.487864857081504,0.15529112716483806
3.216028,3.480414772440291,0.1552747856527885
3.2206200000000003,3.4779505988938997,0.155063321872465
3.225212000000001,3.4792063478522457,0.15472994970247367
3.229808,3.4778859781817943,0.1544603259337231
3.234404,3.4728456860066053,0.15431273350539843
3.238996,3.466661589955477,0.1542244671704838
3.243596,3.4632979819614387,0.15403726105233634
3.2481880000000007,3.461855427576841,0.15378113610670688
3.2527760000000008,3.463233361249333,0.1534299463988733
3.257364000000001,3.47229550935959,0.15280836638983178
3.261944,3.477148996108527,0.15237363350975427
3.2665240000000004,3.4830241020192583,0.1518972418714002
3.271108,3.49364074959652,0.15125784146110363
3.275684,3.5055233857638664,0.15054411699366013
3.2802679999999995,3.5134417299981844,0.1499872540808257
3.2848520000000008,3.5248356273089483,0.14934316284339266
3.289440000000001,3.5363517093338577,0.14868090817930063
3.2940520000000006,3.5448029338733864,0.14814097270587898
3.298628000000001,3.5521103545369765,0.14766048757993172
3.303216000000001,3.5576630477538984,0.14731198999762987
3.307812,3.5675907284949147,0.14685734662054947
3.312408,3.576496790074137,0.14644967436332373
3.3170040000000007,3.58593573195857,0.14607078406340587
3.321580000000001,3.5998718460812427,0.14557490593105749
3.326180000000001,3.618182947728008,0.1449647492823461
3.3307640000000003,3.6403361565936567,0.14422682878325332
3.335364,3.662244996031014,0.14352520304871938
3.339948,3.6799451741070515,0.14300038206712268
3.344548,3.6957242985736474,0.14254306309807172
3.349132000000001,3.702797589440685,0.1423713591138958
3.353724,3.710892499469515,0.14216042540261803
3.358324,3.7206640936794964,0.14192093456492044
3.362916,3.728759003708327,0.14171635098756138
3.3675200000000007,3.7367317290230115,0.1415272156632033
3.372112,3.7456038887853444,0.14131439820793035
3.3767,3.7565192868712645,0.14103635606040155
3.3812960000000007,3.7678453805482492,0.14079141763714442
3.38588,3.780193093387028,0.1405053895017066
3.390472000000001,3.791641371778159,0.14024054188516957
3.395060000000001,3.8046000081876663,0.13987920652517807
3.399664,3.81203985319714,0.13967106401047344
3.404256,3.816537025435379,0.13955828356649785
3.4088480000000008,3.816903579577817,0.13951555371008834
3.413444,3.8126507767678692,0.13959844903879512
3.418028,3.809786147262152,0.13960156373650046
3.42262,3.807165887184726,0.13957586649056922
3.427212000000001,3.8040127468020883,0.13952972177760842
3.431804,3.802247779723682,0.1394070095465886
3.436388000000001,3.7997055629117735,0.13929151008478374
3.44098,3.8020270724805414,0.13902538470986098
3.445568,3.8043485820493093,0.1387592593349382
3.4501600000000003,3.804871222722781,0.13853774532069138
3.4547480000000004,3.807969982025051,0.13826903372293572
3.459356,3.8127454255084707,0.13797431900181548
3.463956,3.8207079111914166,0.13756836478444975
3.46856,3.822252171026682,0.13731912268551727
3.4731520000000007,3.829148896099207,0.13688301828090046
3.477756000000001,3.840909347552408,0.13631653177701913
3.4823319999999995,3.8529141684338994,0.1357210549493079
3.4869319999999995,3.864796804601246,0.13514050483420384
3.491508,3.877823244644532,0.13450941212334536
3.4961079999999995,3.8949361613349915,0.13374890841744366
3.5007040000000007,3.9128263277589537,0.13297682616430573
3.5053,3.9359467747060286,0.13203590857489522
3.5098959999999995,3.9561245488818693,0.13118645313236008
3.514476,3.9732374655723284,0.13043882858505998
3.519064,3.9894509478151408,0.12971068429942986
3.523648,4.007585483667394,0.12894117121939036
3.528224,4.0267416386814405,0.12814005079387694
3.5328160000000004,4.046019978409633,0.12733393054392805
3.5374040000000004,4.064643253118469,0.1265191119882398
3.542,4.081345474217863,0.1257494430648328
3.5465920000000004,4.09240671920308,0.12511539812730357
3.5511680000000005,4.100114595825996,0.12452902165633353
3.555752,4.103735995801738,0.12407039858818522
3.56034,4.1137756216251615,0.12347753824837192
3.5649239999999995,4.116908282744321,0.12307635967141771
3.5695200000000007,4.1172204558063905,0.1227437220924289
3.5741080000000007,4.122151985820846,0.12232011814103205
3.5787080000000007,4.127083515835301,0.12189705904823628
3.583292,4.1356127836403465,0.1214134113873398
3.58788,4.143120432283601,0.1209635264479949
3.5924840000000007,4.152426949822148,0.12048321415108779
3.59708,4.155237198247498,0.12020554311435776
3.601684000000001,4.160745750015792,0.11988295435519546
3.606276000000001,4.170462963145407,0.11944345870491897
3.610868,4.180957426008522,0.11900079516867867
3.615456,4.188631400814549,0.11861792195610087
3.620056,4.197449179496515,0.11819984687307473
3.624644,4.207532946768565,0.11773854264539227
3.629244,4.2214588212595,0.11720326646587538
3.633832,4.240492791559401,0.11654545885398201
3.638432,4.263857607934767,0.11576145482048866
3.643024000000001,4.287999674043635,0.11497049918364213
3.64762,4.310587240685501,0.11417625435579061
3.652196,4.327000950907975,0.11347436741968632
3.656792000000001,4.344436280292244,0.11274126787927316
3.661388000000001,4.357252252724127,0.11208619059212827
3.665984,4.363649999308331,0.11154428083944208
3.6705640000000006,4.371313734482619,0.11095672095655439
3.675156,4.375746286008751,0.1103932123867
3.6797400000000007,4.37837996863959,0.10985716626003494
3.6843400000000006,4.380358586251071,0.10931322911671763
3.6889280000000007,4.385890800204516,0.10864546979987118
3.693504000000001,4.3910123185668954,0.10795144272737825
3.698088,4.388327437777363,0.10741537049380029
3.702676,4.383965872806682,0.10689148859849965
3.707268000000001,4.3806259269977925,0.10634262346007177
3.71186,4.376142177312965,0.10583052708510551
3.716448,4.364629278209729,0.105472109949379
3.72104,4.348252652725816,0.10520892933370761
3.725628,4.32496906253764,0.10508675668458696
3.730216,4.301441102921173,0.10498183694084297
3.734812,4.2809780007900855,0.1048044712221243
3.739404,4.262191582840149,0.10461405200070105
3.744,4.245859098804865,0.10440936054503887
3.748588,4.230914788073811,0.10414506191405493
3.753188,4.219812584561638,0.10380850273763802
3.757764,4.213329738001853,0.10340021650967947
3.762368,4.205703087566127,0.10302662786998835
3.766956,4.196199524969589,0.10275449967733431
3.771552,4.1877175815348435,0.10245813025468903
3.776136000000001,4.176292965328864,0.10221782718136443
3.780720000000001,4.164623979694592,0.10199904293385084
3.785312000000001,4.1506673863084425,0.10184707803071004
3.789904,4.142473953750616,0.10159139229785324
3.794492,4.13710100924988,0.10128922824697659
3.799088000000001,4.131361510606706,0.10102140431318779
3.8036720000000006,4.125499827249387,0.10076482903939551
3.808268,4.122703001377449,0.10043602781240848
3.812844,4.1200283602196555,0.10009293893911114
3.8174360000000007,4.122095260728393,0.09966586986979302
3.822028,4.120320054018248,0.09930788332745033
3.826608,4.1156021745368685,0.09900879411311937
3.831208,4.1130497180932215,0.09865164864065665
3.835784,4.111641065525513,0.09826082947193297
3.840364000000001,4.108844239653574,0.0979274171015717
3.844976000000001,4.1068246635151375,0.09759561636204285
3.849564000000001,4.103905652929053,0.09727653556548292
3.854164000000001,4.099965023181176,0.0969788207451385
3.858756,4.1007217936512,0.09653616465730387
3.863348,4.1003347602452855,0.09612642156941763
3.867944,4.10558870295355,0.09563304290703593
3.872528000000001,4.110720460947668,0.09515199229555465
3.87712,4.115074969208284,0.0946669206960342
3.8817,4.1221277808118435,0.09415978158177377
3.8863,4.129957842148906,0.09365974532104629
3.890876,4.137377207894902,0.09312442589683627
3.895476,4.144141508621542,0.09257615294002672
3.900068000000001,4.157446219910008,0.09194750392345066
3.90466,4.1735714192555635,0.09128144679006195
3.909256000000001,4.188919368867617,0.0906180767580283
3.913848,4.211829348203291,0.08985782107243172
3.918448,4.233717708377171,0.08911367730837827
3.92304,4.255483883836904,0.08838995724507405
3.927632000000001,4.273407952077755,0.08772149783484444
3.932224,4.295174127537489,0.08700387028457902
3.936804,4.317961922159016,0.08627674688627851
3.941388,4.338828663171103,0.08558033319622413
3.945976,4.359939773611481,0.08486150548127303
3.950572000000001,4.374921169081097,0.08425539484955857
3.955156000000001,4.391823618160155,0.08362459242672288
3.9597440000000006,4.406027763896269,0.08302475890858023
3.964336,4.419699029327173,0.08240146523186007
3.968924,4.432348675596282,0.0817902879657089
3.9735200000000006,4.439357345751214,0.08124931295741776
3.978104,4.442890462829699,0.08072798446899368
3.982692,4.4489996985369835,0.08019910340032509
3.987288,4.456907803139563,0.07965833030199865
3.991876,4.461095985237406,0.07916361802104205
3.996456,4.468104655392336,0.07864695267571187
4.001052,4.476012759994916,0.07812715354820382
4.005652,4.477258269321523,0.07768363368808831
4.010244,4.480547016971717,0.07720710299153498
4.014836000000001,4.484613014355413,0.07673887814743179
4.019428,4.495463791729228,0.07619451520632556
4.024016,4.502716831312451,0.07567626464409455
4.028616,4.5063721331050814,0.07518064011698364
4.033204,4.509905250183569,0.07469347473825395
4.037800000000001,4.519978777823879,0.0741588602336017
4.042392,4.537736519901957,0.07354762552813358
4.046976000000001,4.555860816122472,0.07291389558671081
4.051568,4.574884546790634,0.07228017818349763
4.05616,4.597261645821097,0.07165370908692612
4.060748,4.627322959289325,0.07096084769228321
4.065344,4.658528076633493,0.07024287499595269
4.069932,4.693208747054103,0.06952128154547425
4.074516000000001,4.7230256910940405,0.06885047768390272
4.079104000000001,4.752720450419831,0.06819604856301577
4.083696,4.779594721688533,0.0675653836220742
4.088288,4.8007058321289104,0.0669921835234447
4.092872,4.820917508121641,0.06642729010138765
4.097464,4.841251368828516,0.0658497444299859
4.102044000000001,4.865427336754275,0.06524896999057378
4.1066400000000005,4.887926620498882,0.06465148029555223
4.111224,4.909282100367551,0.06408854319190428
4.115812,4.930515395522074,0.06353498084893147
4.120412,4.955468613181335,0.06296422297395256
4.125,4.982465069164182,0.06237202515879551
4.129588,5.000877876261617,0.06184798709179223
4.134180000000001,5.016592380016107,0.061340508269136104
4.138768000000001,5.031940329628161,0.060863964770877306
4.143372000000001,5.044712160611416,0.0603873855878781
4.147952,5.053109004070578,0.059915750392148255
4.152548,5.057541555596711,0.05948484476758825
4.157136,5.063895160732286,0.05904285136754999
4.161732000000001,5.066895397505561,0.05859246207839225
4.166320000000001,5.072183242030714,0.058101806085513255
4.170920000000001,5.076693836822364,0.05760628953114635
4.175512,5.083125485223456,0.057098180442136375
4.180104,5.091600371948137,0.056568920941282866
4.18468,5.097132585901582,0.05605956854222651
4.189272000000001,5.105485287912115,0.055537407711338284
4.193872000000001,5.107175394646676,0.055053042668378155
4.198456,5.106944447771797,0.054578709966864224
4.203044,5.100295275049238,0.05412087113089569
4.207636000000001,5.093523917612532,0.05366992709985805
4.212224000000001,5.082666083528652,0.05325722054547456
4.216824000000001,5.06988719583533,0.05285454319374845
4.221408,5.057108308142008,0.05244740309375731
4.226000000000001,5.041264562963305,0.05206730153004231
4.230592,5.021945264708158,0.05167965517323827
4.235172,5.002137227596428,0.05132280980350863
4.239768,4.980941017180467,0.05099781565922152
4.244352000000001,4.9571686881357095,0.050664061544427506
4.248932,4.93033150160557,0.05035581501902574
4.253544,4.902106141771201,0.050078777872394536
4.258132,4.873514227794394,0.0498248613558078
4.262740000000001,4.841080206598704,0.04958649707716441
4.267332,4.808401815974723,0.049363611888267815
4.271936,4.768938645360624,0.04917460522214544
4.276528000000001,4.733195397251263,0.048972876612766385
4.28112,4.692832792189517,0.04877669233374968
4.28572,4.650959829109395,0.04862449949754923
4.290308,4.605122574096242,0.048497823982414895
4.2949,4.556220461597712,0.04839666637354398
4.299488,4.506663284079823,0.04827187789479699
4.304088,4.454407803218992,0.04814568059443871
4.308664,4.396511346243981,0.04803527399982294
4.313268000000001,4.343478615649646,0.04788879361940938
4.317852,4.285704343388782,0.04775930160723327
4.322444000000001,4.225642463376039,0.047665580207669006
4.327036,4.163781714468001,0.04757039236451717
4.331632000000001,4.102287519702401,0.047440613432507675
4.336224,4.033886360232535,0.047358911050632974
4.340816,3.963441962439084,0.04729778593928813
4.345408000000001,3.8938969990932804,0.04723596057991721
4.35,3.8233304165856827,0.047182730253028195
4.354588,3.749698976592705,0.04716452053926649
4.35918,3.6695271260378997,0.04716907321456067
4.363756,3.594096817149626,0.04714958056347539
4.368348000000001,3.5109822938235857,0.0471788341884771
4.37294,3.4313433235739925,0.04721252761990449
4.377528,3.353214711342775,0.047185560186284725
4.382128,3.278028771882792,0.047131928068220225
4.3867080000000005,3.2074621893751942,0.04706719610137585
4.391292,3.13538524884922,0.04706611229562267
4.39588,3.0642077427708942,0.047064803921464574
4.400468,2.997649593644953,0.047046687528002964
4.4050720000000005,2.9203423725958664,0.04712481749781988
4.409656,2.848553942946813,0.04719419085974228
4.414244,2.7817514243925805,0.04719708872454492
4.418844,2.7140494713907004,0.04719886394868524
4.423436000000001,2.6431604761892937,0.04726405634077115
4.428032,2.5788118915497136,0.04730761024327812
4.43262,2.514585491624279,0.04733880863143383
4.43722,2.447782973070046,0.047346697259499124
4.441803999999999,2.3791815856205183,0.04735337786224137
4.446404000000001,2.3155661092658124,0.047284965619744185
4.450991999999999,2.2547711209681958,0.04719899943168659
4.455592000000001,2.1939761326705782,0.04710001986831304
4.460184,2.1390664899154315,0.04691819216589319
4.4647760000000005,2.079415305493754,0.04676850017064231
4.46936,2.0175986980343437,0.04666942397095257
4.473944,1.9575809594702287,0.04655590298937542
4.478543999999999,1.8965416017443206,0.0464669457332925
4.483136,1.8343142986938454,0.04623682849505614
4.48772,1.7722091803575155,0.045957381035678375
4.492316000000001,1.707039204535805,0.0457449754645646
4.496904000000001,1.6495534431518597,0.04543785166506583
4.5015,1.589491563139117,0.04506855424828202
4.506088,1.5184362417749369,0.04272444375888681
4.510684,1.453021896524935,0.04253227956995777
4.515272,1.3945145159791965,0.042161707895234754
4.51986,1.3342082665381625,0.03978202910960287
4.524456000000001,1.2748014515447759,0.03740307894588267
4.529044000000001,1.218092939894333,0.035048022299404055
4.533636,1.1624060474056837,0.03269477087426354
4.538228,1.107252035222245,0.03039094984960168
4.542816,1.0547963263817501,0.028091280409333848
4.547412,1.0002973792176684,0.025819559282533877
4.552004,0.942733574568206,0.0236010757633228
4.5566,0.8888896924234806,0.021365935148836807
4.561196000000001,0.8406867863929337,0.01911196857901805
4.565796000000001,0.7905628267529453,0.0168894325606943
4.570388,0.7426042901506897,0.014643215368837682
4.574976,0.6975103830541515,0.01250629041051338
4.579572000000001,0.6578130826435004,0.010419640690930428
4.584160000000001,0.6222022588800232,0.00828382402898906
4.588760000000001,0.5855698159547527,0.006190372601180046
4.593348000000001,0.5476713844393972,0.004159082411423441
4.597951999999999,0.5233425129042771,0.004159082411423441
4.602539999999999,0.49786983749321784,0.0020094519650355
4.607140000000001,0.46908793516848657,0.0
4.611724000000001,0.44210490173905104,0.0
4.61632,0.4189639755284983,0.0
4.620904,0.39737754878494974,0.0
4.625500000000001,0.3765683717749036,0.0
4.630088000000001,0.35870186753609223,0.0
4.634684,0.3418569824590743,0.0
4.639272,0.3296314543344414,0.0
4.643864000000001,0.3212480334286913,0.0
4.648452000000001,0.31106574362764544,0.0
4.653040000000001,0.2998618346648061,0.0
4.657624,0.28931299072132316,0.0
4.662216000000001,0.2804408309589903,0.0
4.666808,0.27103579089144664,0.0
4.671388,0.25778864360502024,0.0
4.675984,0.24699543023324605,0.0
