Time,Force,Position
5.022248000000005,0.3552558031012535,0.0
5.026888,0.3553779878153992,0.0
5.031531999999999,0.3613855180720147,0.0
5.036156000000005,0.36751523304277584,0.0
5.040800000000004,0.37160170968995004,0.0
5.045444000000003,0.36963651463188035,0.0
5.050080000000008,0.3688151234497501,0.0
5.054712000000009,0.36517324421053055,0.0
5.059352000000004,0.3634524185807524,0.0
5.063984000000005,0.3589111048938849,0.0
5.068628000000004,0.3506498687022804,0.0
5.073264000000009,0.3412448286347367,0.0
5.077892000000006,0.3322504841582582,0.0
5.082543999999999,0.31647135969166207,0.0
5.08717200000001,0.3073548305010379,0.0
5.091819999999999,0.30093660465335725,0.0
5.096456000000003,0.29014339128158306,0.0
5.101100000000002,0.27755130901451314,0.0
5.105739999999997,0.25678627345309496,0.0
5.110371999999998,0.23740213507375113,0.0
5.114996000000005,0.21891743114205514,0.0
5.119640000000004,0.20247596553394615,0.0
5.124284000000003,0.18309182715460232,0.0
5.128920000000008,0.16268606961346493,0.0
5.133564000000007,0.14592946743370339,0.0
5.138199999999998,0.13444728722568328,0.0
5.142836000000003,0.12374235675116536,0.0
5.147463999999999,0.11495847988608882,0.0
5.152096,0.10821784134459932,0.0
5.156739999999999,0.1044198755743447,0.0
5.161380000000008,0.10458620173711854,0.0
5.166008000000005,0.10924970013813162,0.0
5.170656000000008,0.11007109132026195,0.0
5.175296000000003,0.1195983161019513,0.0
5.179932000000008,0.1270823025600536,0.0
5.184576000000007,0.1291696823322688,0.0
5.189216000000002,0.13563204962857758,0.0
5.193843999999999,0.1456921547154778,0.0
5.1984879999999976,0.16290359393493264,0.0
5.2031319999999965,0.18167680874354813,0.0
5.2077680000000015,0.19762953549507445,0.0
5.212404000000007,0.21256064308480718,0.0
5.217032000000003,0.2255706970650986,0.0
5.221671999999998,0.2366596974359486,0.0
5.226312000000007,0.24704221521665767,0.0
5.230944000000008,0.25472642965442316,0.0
5.235579999999999,0.25689185269215586,0.0
5.240216000000004,0.255992418244508,0.0
5.2448440000000005,0.2531719301874188,0.0
5.249488,0.2483082038067425,0.0
5.254131999999999,0.240623989368977,0.0
5.258768000000003,0.23036365630241362,0.0
5.263416000000007,0.22226874627358298,0.0
5.268044000000003,0.2082884907022825,0.0
5.272672,0.1927537356639777,0.0
5.277304000000001,0.18285995673985134,0.0
5.281931999999998,0.17603103530110553,0.0
5.286568000000003,0.16842486412885757,0.0
5.291212000000002,0.15865326991887685,0.0
5.295848000000007,0.1499474363193178,0.0
5.300483999999997,0.14427255838824998,0.0
5.305127999999996,0.14702524281156046,0.0
5.309759999999997,0.15812744632373174,0.0
5.314391999999998,0.17835641865826599,0.0
5.319032000000007,0.20812285540622844,0.007088607182700419
5.323660000000004,0.2421523345958775,0.014832583162481906
5.328296000000009,0.29148243902727883,0.022338163687388966
5.33292800000001,0.35275980033813237,0.02977674971285082
5.337575999999999,0.4215313877388269,0.037428427226650275
5.342212000000004,0.5009842434288889,0.045074121569461834
5.346844000000004,0.5966371588083511,0.05242260917849964
5.351488000000003,0.7009281041535932,0.059902091924121395
5.356116,0.8137348947504701,0.06745452303772095
5.360752000000005,0.9393883766744472,0.07493081986185013
5.365396000000004,1.0715144655264717,0.08255961540193477
5.370040000000003,1.212522953772568,0.09014822444019088
5.374679999999998,1.3584495494797075,0.09776823612268698
5.379320000000007,1.50929425264789,0.10552330484309215
5.383960000000002,1.6642798135436139,0.11343390707992887
5.388596000000007,1.8227070256988938,0.12140808305475341
5.393231999999998,1.991516755634883,0.12915767188943397
5.3978680000000026,2.158483475226948,0.13681407361340983
5.402500000000003,2.3196767943589505,0.144474479388404
5.407148000000007,2.4784059399445617,0.1519815925584738
5.411776000000003,2.6209350258407724,0.1525790532277976
5.416424000000006,2.7611221229047387,0.1524554027655844
5.421059999999997,2.8880518330505387,0.15260622396465318
5.425691999999998,3.006099143802268,0.15278384003101728
5.430335999999997,3.1158749787306546,0.15274421198478455
5.434964000000008,3.216357718673903,0.1526663902462244
5.439592000000005,3.2988415300324565,0.15298807179055066
5.444232,3.3748527344629617,0.15310800231394298
5.448864,3.4424702783559784,0.15312521468255186
5.453500000000005,3.497607685064332,0.15325477171549443
5.458144000000004,3.543329812073403,0.15331035360667924
5.462780000000009,3.5810689741360497,0.15333840367817897
5.467411999999996,3.6046513148328843,0.1534955416975908
5.472052000000005,3.622293928906882,0.15351762267909352
5.476684000000006,3.636939489129278,0.15329867400116431
5.481319999999997,3.6450343991581087,0.15304310873653404
5.48596400000001,3.642658508508974,0.1529966086670653
5.490592000000007,3.633820250563531,0.15307043053581065
5.495236000000006,3.6281690348176134,0.15300293567926304
5.4998800000000045,3.616754658243372,0.15313015409813213
5.504512000000005,3.6149455497163374,0.15293037049650435
5.5091600000000085,3.616079113960538,0.15263084533974028
5.513788000000005,3.6215876657288315,0.15222540573054402
5.518420000000006,3.6270962174971255,0.15182329096892147
5.523060000000001,3.635180887894218,0.15136658837088157
5.527687999999998,3.642899004148873,0.150954062636157
5.532331999999997,3.6535597931747628,0.15043367934944826
5.53697600000001,3.664875647220008,0.14992632961486982
5.541612000000001,3.6731266437798737,0.14952877968469122
5.546248000000006,3.6831765092350355,0.1490810571469761
5.550892000000005,3.6980901010708735,0.14846925240052766
5.5555240000000055,3.7131258776208567,0.1478550458240458
5.560156000000006,3.737278183361464,0.14698406893181004
5.564796000000001,3.7637180968539505,0.14602055305582604
5.569423999999998,3.7881147720228494,0.1451425333228425
5.574060000000003,3.815331935248838,0.14418567593601458
5.578688,3.8443479673701213,0.14319342889581751
5.583331999999999,3.875285053100847,0.1421426179112737
5.587972000000008,3.901602781879187,0.14123511056124935
5.592607999999999,3.928164880085818,0.14029221888683874
5.597260000000006,3.954604793578304,0.1393984556624622
5.601892000000007,3.972461058185377,0.13875634710367515
5.606520000000003,3.9869639544301494,0.13817732205957767
5.611156000000008,4.002366285122569,0.13758530620334178
5.615796000000003,4.013149258862605,0.137107920202171
5.620432000000008,4.024054417316786,0.13661771229318062
5.625064000000009,4.035614640790324,0.13613306538706166
5.629704000000004,4.043454941759125,0.13574409249539157
5.634343999999999,4.061022695489277,0.13508288644848535
5.638984000000008,4.081533121990665,0.13434665672710258
5.643619999999999,4.101676994349615,0.13366216647020612
5.648251999999999,4.116057705880243,0.13312832489472992
5.652888000000004,4.126962864334424,0.1326661536432393
5.657516000000001,4.137379283932023,0.13226224785747343
5.66216,4.147917888243767,0.13184618251815827
5.666800000000009,4.159722481145595,0.13138406584063064
5.67143200000001,4.169606020437983,0.13097286076145467
5.676076000000009,4.1767912563874265,0.13061387205065503
5.680704000000006,4.1855309918038754,0.13024444480565614
5.685344000000001,4.196969030563268,0.1298245855272215
5.6899760000000015,4.202888277922627,0.12952411475331607
5.694603999999998,4.213426882234371,0.12912125171987598
5.699235999999999,4.228462658784355,0.12863829281922967
5.703879999999998,4.237979643934305,0.12826829608125503
5.708523999999997,4.251993801322495,0.12781060121836868
5.713155999999998,4.266785208444187,0.12735002003668325
5.717792000000003,4.284274918908823,0.12684307961460076
5.722440000000006,4.305484551878195,0.12625649668773126
5.727072000000007,4.317743981819717,0.12591533683351
5.731712000000002,4.323751512076333,0.12575661040549468
5.736339999999998,4.327182923704151,0.12563589085566065
5.7409880000000015,4.3333126386749115,0.12546257809782757
5.745624000000007,4.3411190378268225,0.12527000198553623
5.75027200000001,4.347248752797584,0.1250999628121453
5.754908,4.355543890806077,0.12486434811736484
5.759540000000001,4.360651986615045,0.12472666526335442
5.764176000000006,4.364205582957008,0.1245965728222349
5.768808000000007,4.369558048194268,0.12443404795051936
5.773440000000008,4.375277067573964,0.12423747664663448
5.778072000000009,4.376376730001274,0.12413140643230797
5.782716000000008,4.379153076609735,0.12400486660196065
5.787348000000009,4.382173792646488,0.12385574108199024
5.791983999999999,4.379797901997353,0.12380086879784633
5.796611999999996,4.381141933852955,0.12367117597984045
5.801243999999997,4.384895758174582,0.12345538245724269
5.805884000000006,4.387095083029204,0.12324704325342149
5.810516000000007,4.384919420359733,0.1231030204239942
5.815151999999998,4.382088692670905,0.12295147639836036
5.819788000000003,4.381667757448101,0.12271237977843755
5.824415999999999,4.385822037729054,0.12232013379597205
5.8290640000000025,4.3939406099430345,0.12183751690203445
5.8337080000000014,4.40446897462304,0.12126935903998752
5.838340000000002,4.413320655121895,0.1207230668164931
5.842984000000001,4.42163945531554,0.12015757864891939
5.847611999999998,4.424972344414361,0.11970926881248933
5.852252000000007,4.4278945379221195,0.11922961206715074
5.856884000000008,4.432737785039318,0.11870896295607483
5.861519999999999,4.436803782423015,0.11819074929773557
5.866163999999998,4.43727204201612,0.1177280800761116
5.870807999999997,4.439905724646957,0.11719869038880673
5.875436000000008,4.441884342258438,0.11665990023044565
5.880071999999998,4.441286841241123,0.11615233162438648
5.884712000000008,4.437991036880863,0.11568178724037667
5.889344000000008,4.435839036396541,0.11517460621095421
5.893976000000009,4.42894549424569,0.11476407826118003
5.898616000000004,4.42229632152313,0.11432886891620438
5.903244000000001,4.415891518228861,0.11386748371110958
5.907880000000006,4.406788411591648,0.11344698047285967
5.9125080000000025,4.396663685792642,0.11305072857557624
5.917156000000006,4.385517340831843,0.11267900686930633
5.9217960000000005,4.368607835042719,0.11242171808399362
5.9264320000000055,4.3485112870540705,0.11224924500938188
5.931080000000009,4.325594251008332,0.11212833339800578
5.935712000000009,4.3032100952678025,0.11202620887166123
5.940340000000006,4.2847902314603035,0.11183457195512048
5.944975999999997,4.265881628796221,0.11168800174780258
5.949604000000008,4.24775027586564,0.11153707486679384
5.954232000000005,4.231295607116209,0.11136994013949382
5.958876000000004,4.218560860871516,0.11113690013855071
5.963504,4.2084022332556215,0.11087516227141145
5.968136000000001,4.198243605639726,0.11061215049359945
5.972784000000004,4.1895172927766895,0.11035672433664598
5.977420000000009,4.189663139675986,0.10998315596945069
5.982051999999996,4.188787367413488,0.10963513120360734
5.986692000000005,4.18934390990385,0.10929638182049349
5.991320000000002,4.192232201594718,0.10895567609248262
5.995959999999997,4.198718231076177,0.10856672644167796
6.000588000000008,4.204593336986909,0.10823135461249697
6.005232000000007,4.210224073469348,0.10791774039944085
6.009867999999997,4.214588821361703,0.10765107157646488
6.014504000000002,4.221529687882856,0.10735615303587176
6.019136000000003,4.234355899946478,0.10694319329003556
6.023764,4.248980980905396,0.10650085642431441
6.028396000000001,4.261685008254872,0.10609339494828085
6.03303600000001,4.273245231728411,0.1057248104671791
6.037664000000007,4.285827074363742,0.10533132663220963
6.042296000000007,4.29738729783728,0.1049644344345137
6.046936000000002,4.30829245629146,0.10458953401592426
6.051563999999999,4.3190754300314955,0.10423027246313145
6.056200000000004,4.329980588485677,0.10386582447491369
6.060844000000003,4.341662996673361,0.10350114865593471
6.065480000000008,4.352690339841687,0.10312521740169013
6.070112000000009,4.357299457162333,0.10284428662265704
6.074748,4.363707443378276,0.10254306727396431
6.0793800000000005,4.368683114841358,0.10223153584871951
6.084028000000004,4.37030541794214,0.10194286032272015
6.0886640000000085,4.3719277210429235,0.1016574274429282
6.0933160000000015,4.380823542990408,0.10121392981149543
6.0979600000000005,4.3930285918515635,0.10068805155354438
6.10260000000001,4.410341736521686,0.10006397012337614
6.107228000000006,4.4252009472771565,0.09944525221651604
6.111856000000003,4.4353186163660965,0.09890546167577219
6.116484,4.446702274045122,0.09832445909206858
6.121120000000005,4.461150789209528,0.09768178514086676
6.12576,4.475843673802225,0.09701987031316969
6.130396000000005,4.490780927823213,0.09633879808590211
6.1350280000000055,4.505840366558346,0.09564872135612602
6.139651999999998,4.521799239741129,0.09495415198322114
6.144295999999997,4.535959244028614,0.09428047332258191
6.148944,4.546399325811364,0.09365658765010132
6.153592000000003,4.557083777022405,0.09301339040306021
6.158215999999996,4.568667662681093,0.09236135907030503
6.162863999999999,4.583682959967598,0.09162080724976897
6.167500000000004,4.593301650568217,0.09093240060075788
6.172144000000003,4.6017765372928965,0.09027090617605671
6.176780000000008,4.608863250713346,0.08965421755744847
6.181412000000009,4.612885106648414,0.08909840610665007
6.18604400000001,4.611021617041012,0.08864237266239454
6.190691999999999,4.605193835500582,0.08825158665001168
6.195323999999999,4.591559654808242,0.08797849217398811
6.199960000000004,4.581767581334783,0.08764990573119052
6.204599999999999,4.572752757594827,0.08732269799181251
6.209236000000004,4.564392998874228,0.08700799212080791
6.213880000000003,4.555011620991835,0.08671135203603121
6.218508,4.547306927290591,0.08640982817916572
6.223144000000005,4.5387027991417,0.08611483391327605
6.227784,4.529321421259307,0.08581609005563415
6.232416000000001,4.518796239500975,0.08554493511537281
6.2370480000000015,4.5082710577426415,0.08527239933767773
6.241687999999996,4.499544744879605,0.0849838991807329
6.246316000000007,4.491840051178363,0.0846777588049496
6.250956000000002,4.486422965228998,0.08431789413905774
6.255595999999997,4.480517140423051,0.083998982624575
6.260227999999998,4.482051160626578,0.08360762848613823
6.264884000000009,4.485628419153692,0.08318228512550857
6.269512000000006,4.496234827099214,0.08265399697288466
6.274135999999999,4.510272646672553,0.0820508325804135
6.278784000000002,4.524188281531749,0.0814562311139709
6.283411999999998,4.542723273343328,0.08082436454115742
6.288048000000003,4.566121991535583,0.0801287155476709
6.292692000000002,4.590175774747197,0.07945572718270677
6.297319999999999,4.615373361834749,0.07876148991553202
6.301956000000004,4.641714752798239,0.07805117299311225
6.306600000000003,4.671898250980613,0.07731014145433453
6.311232000000004,4.697462392210601,0.07660724042631933
6.315864000000005,4.725602652069388,0.07590269286211115
6.320496000000006,4.753498542499884,0.07521701858960911
6.325128000000007,4.780739367911023,0.07451885633643088
6.329768000000001,4.8114557463986065,0.07381461587207588
6.334395999999998,4.842294309600337,0.07310482715626257
6.339039999999997,4.871989068926128,0.07242545516441064
6.343676000000002,4.901195089395336,0.0717957893159109
6.348315999999997,4.92745843709331,0.07119910959725219
6.352972000000008,4.947958623962959,0.0706638778741693
6.357604000000009,4.971157114175551,0.07012202876024735
6.362232000000006,4.988470258845673,0.06964815943720883
6.366867999999997,5.003373611049773,0.06923282929652078
6.371508000000006,5.018521332682164,0.06879910509169236
6.376140000000007,5.030848566257466,0.06839075375321475
6.380784000000006,5.043297984546912,0.06797739713638741
6.385424,5.0540707186552085,0.06756574212819705
6.390056000000001,5.064066203030003,0.06715162095698109
6.394688000000002,5.07087464520527,0.06678481834995909
6.399324000000007,5.071020492104567,0.06646917301611878
6.403956000000008,5.076929499832186,0.06610837381625018
6.408600000000007,5.080262388931009,0.06574993637283306
6.413228000000004,5.084861266619916,0.06536244825704629
6.417876000000007,5.093302251527706,0.06494879698122473
6.422511999999998,5.099655856663281,0.06450481317164672
6.427143999999998,5.106009461798855,0.06406209592226764
6.43180000000001,5.113384686096225,0.06361013991207522
6.436428000000007,5.118061607050651,0.06316753617139746
6.441056000000003,5.124126701309305,0.06268685285760732
6.445695999999998,5.133256653053342,0.062173612427321896
6.450336000000007,5.136989998111491,0.06167608776999835
6.454971999999998,5.145587069550315,0.061143780469263685
6.459615999999997,5.151485837646197,0.060615880633844044
6.464244000000008,5.16404720101805,0.06005495398558127
6.468879999999999,5.174032445761106,0.059490405430139545
6.473523999999998,5.181974452180574,0.05894821619001952
6.478155999999999,5.190815893047691,0.05840667057591617
6.482787999999999,5.198635714753014,0.05787608552252219
6.487436000000002,5.206944275314919,0.057311374371766956
6.492068000000003,5.2144755861433225,0.05673364437689936
6.496712000000002,5.2154664864099,0.056184451180107224
6.501356000000001,5.218256255571774,0.05563313126412309
6.505988000000002,5.220024405571853,0.05509183088632266
6.510643999999999,5.214885590867669,0.05460133630027964
6.515271999999996,5.205415930088019,0.05416283618583617
6.519900000000007,5.194147400413074,0.05372480967341948
6.524532000000008,5.180180567395186,0.05328869682513836
6.529172000000003,5.162738181300851,0.052842933753298946
6.533804000000004,5.14799409854946,0.05239389403372196
6.5384480000000025,5.129407908579186,0.05196238592633124
6.543084000000008,5.1094335453046815,0.05156000693219125
6.547716000000008,5.0857392595254405,0.05116834455545363
6.552360000000007,5.063066592907993,0.05076324147794855
6.556992000000008,5.02682436631031,0.05043134770277532
6.561627999999999,4.992258823893777,0.050102125071631864
6.566264000000004,4.955772227867803,0.04977850103302764
6.570896000000005,4.915443524622947,0.04947021178534787
6.57553200000001,4.8729493983403565,0.04918461318248208
6.580163999999996,4.826368795410594,0.04892942058166374
6.584811999999999,4.780565442214332,0.048677308490803727
6.589439999999996,4.736316588485074,0.04843848930780794
6.594076000000001,4.686426758641638,0.04821354952368867
6.59872,4.637314178531705,0.04799267450449936
6.603360000000009,4.589345402297711,0.047748537416183845
6.60799200000001,4.54239824522551,0.04749078503876235
6.612623999999997,4.492019676525492,0.04728609100958755
6.617260000000002,4.439475684787741,0.04710437267144354
6.6218840000000085,4.388119638374556,0.04696736940238388
6.626528000000008,4.32703613920002,0.04688456409079743
6.631163999999998,4.263542847559458,0.04685212426319065
6.635800000000003,4.202092794242486,0.04679882077063397
6.640439999999998,4.133857960935395,0.04678245144617702
6.645080000000007,4.063824258733009,0.04675822337340033
6.649712000000008,3.99775484846365,0.046702790251487894
6.654356000000007,3.9268217118136155,0.046676582833415706
6.658984000000004,3.8548669560017874,0.046658659689481644
6.663632000000007,3.782790015475814,0.04664952187388539
6.668272000000002,3.709813640502192,0.046639579625734395
6.672908000000007,3.641456622480955,0.046616597896292924
6.67755600000001,3.5748984733550135,0.04658942751078141
6.682184000000007,3.508462508943219,0.046547423997205004
6.686819999999997,3.4437032287125735,0.04651482406457905
6.691468,3.3731807876536037,0.04651323720650891
6.696104000000005,3.303191226899845,0.04654717117630657
6.700744,3.2302589933748513,0.04660553206794592
6.705376000000001,3.1625570403729713,0.04658745015117529
6.710003999999998,3.0898691762762702,0.04663165553252376
6.714640000000003,3.019468919931446,0.04662078720936807
6.719284000000002,2.952666401377214,0.04662306045597648
6.723920000000007,2.8909719786319488,0.04655654191829045
6.728560000000002,2.8274786869913884,0.0464809381304667
6.733208000000005,2.768604752303213,0.046391933243648445
6.737831999999997,2.710263697920248,0.04634473393910223
6.742484000000005,2.6526998932707855,0.04630890091393805
6.7471200000000096,2.596812772802473,0.04629923308712333
6.751751999999996,2.5410478370483065,0.046267390509733296
6.756408000000008,2.486548889884224,0.04617078166810073
