Time,Force,Position
7.245588000000005,0.49415621951116345,0.0
7.250176000000003,0.47408015078599125,0.0
7.254780000000004,0.45465914708017546,0.0
7.259371999999999,0.43589320839371626,0.0
7.263964000000001,0.4186817691742614,0.0
7.268560000000001,0.3952184302698997,0.0
7.273147999999999,0.3760078941754859,0.0
7.277744000000005,0.35655298865278084,0.0
7.282324000000003,0.34310561338669127,0.0
7.286923999999999,0.33848625643430624,0.0
7.291516000000001,0.32912535781539076,0.0
7.296123999999999,0.32360656641535807,0.0
7.300712000000004,0.322296436376645,0.0
7.305300000000003,0.32613854359552774,0.0
7.309884000000004,0.3221742516624993,0.0
7.314480000000003,0.31093644088277056,0.0
7.319084000000004,0.2983104567988113,0.0
7.323680000000003,0.2882605913436499,0.0
7.328268000000001,0.27882164945921684,0.0
7.332864000000001,0.27028214202243156,0.0
7.337451999999999,0.2583892662233464,0.0
7.342040000000004,0.24829525931955684,0.0
7.346628000000003,0.24036667545349996,0.0
7.351212000000004,0.23820125241576723,0.0
7.355796000000005,0.23807906770162154,0.0
7.360388,0.24408659795823703,0.0
7.364984,0.2540584201478809,0.0
7.369572000000005,0.2628864384615856,0.0
7.374164,0.27032628347105975,0.0
7.378756000000003,0.27396816271027924,0.0
7.383344000000001,0.28292860536986847,0.0
7.3879480000000015,0.2958635795942248,0.0
7.392536,0.31383884599377,0.0
7.397131999999999,0.33763165430200626,0.005962388990660356
7.401720000000004,0.3767250878519948,0.012205740435269034
7.406312,0.43238513523382044,0.018598704575632466
7.410907999999999,0.5051446767526941,0.024944130876059147
7.415496000000004,0.586542248237348,0.03145644536293962
7.420096000000001,0.6760891108311995,0.03812982237209002
7.424676000000005,0.7714535153337422,0.04494843463010445
7.4292760000000015,0.8797087526120129,0.05180844868012721
7.433860000000003,0.9954582159801247,0.05882019262216667
7.438459999999999,1.119845709314017,0.06587386530210738
7.443044,1.2473524412136565,0.07305284492281566
7.447636000000003,1.3805545303078415,0.0803815619588747
7.452228000000005,1.5223946493678067,0.08772674083694533
7.456824000000005,1.6689085064605238,0.09517262836403301
7.461420000000004,1.8292906740421349,0.10250528936522324
7.466011999999999,1.9971229262649586,0.1098703238606992
7.470604000000002,2.1733827408421607,0.11720978659069166
7.475196000000004,2.351607750477432,0.12457362139801885
7.479776000000001,2.526679619730067,0.13196456555501937
7.484360000000002,2.697488446541015,0.13927689488428682
7.488948000000001,2.8592485477951177,0.14060899463553994
7.493548000000004,3.0111826737588725,0.14159474966460758
7.498139999999999,3.1548453238992837,0.1423375593600149
7.502732000000002,3.2832853920634606,0.14310452447778862
7.507328000000001,3.4052528532995896,0.14360589478298216
7.511915999999999,3.5162505353694318,0.1439605378548886
7.516516000000003,3.618321676596574,0.14412608020946585
7.521104000000001,3.70889015835222,0.14420623351462966
7.5256960000000035,3.787955980636367,0.14416272724678877
7.530292000000003,3.857073642916021,0.1440325514842557
7.534880000000001,3.9186970791058346,0.14375809943672527
7.539484000000002,3.976013331405332,0.1432305602378654
7.544076000000004,4.022359804538543,0.14267385472585956
7.5486840000000015,4.0606791712767025,0.14198433192503337
7.553272,4.0850860860773395,0.14138203542167838
7.557864000000002,4.09995553646455,0.14074699400521845
7.562456000000004,4.105820402743543,0.1401048137139552
7.567048,4.106566933581829,0.13941231387670056
7.571640000000002,4.106736442666275,0.13863514999561855
7.576219999999999,4.103552583388422,0.1379166889155598
7.580820000000003,4.097303866625188,0.13729193098119047
7.5854,4.091588030167165,0.13668722008339007
7.590000000000003,4.08088628261432,0.1362336041602675
7.594591999999999,4.073293533995484,0.1357515851792478
7.599188000000005,4.060181993976615,0.13539975630443052
7.60378,4.049646572586544,0.135001005746683
7.608376,4.038255858197453,0.13469199341477858
7.612964000000005,4.026009850809343,0.13447337764036735
7.617560000000003,4.0243126873647155,0.1340476745447524
7.622156000000004,4.022415295940425,0.13371804587655345
7.626752000000003,4.024404153183644,0.13335939495454308
7.631340000000002,4.0245160982660515,0.1331238062098033
7.635928,4.028269922587678,0.13288445984358552
7.640516000000005,4.0357878108626695,0.13263134477192925
7.645096000000002,4.044004905605646,0.1324532696236737
7.649684000000001,4.056108249016133,0.13224751028954104
7.654276000000003,4.070176787484689,0.13206413482769616
7.658872000000002,4.086699259867898,0.13185585060115546
7.663460000000001,4.103510243128027,0.1316954265895132
7.668056,4.121264802284431,0.13158535947974107
7.672644000000005,4.151733628422052,0.13122797939750921
7.677232000000004,4.180692096541296,0.13094961114249742
7.681828000000003,4.2140255521846335,0.1305938681323113
7.686416000000001,4.246093019237887,0.13029688295770037
7.691023999999999,4.286133211605823,0.12986792140069425
7.695616000000001,4.3269506537072635,0.12944265258203214
7.700220000000002,4.373653441351173,0.12888020258663938
7.704816000000001,4.423543271194609,0.12822337987803034
7.709403999999999,4.465993256028571,0.12774557417161303
7.714008,4.512119021918641,0.12713578488101532
7.718600000000002,4.55411416971291,0.12657678497006936
7.7231960000000015,4.595942991344404,0.1259674826302905
7.727775999999999,4.6369504217937685,0.12531123189950133
7.732376000000002,4.674315973003913,0.12466295160064514
7.736964,4.716256739717814,0.12387691699965574
7.741568000000001,4.757131745821294,0.1230677663132765
7.746155999999999,4.796041556866704,0.12224140249513632
7.7507480000000015,4.8331083575681895,0.12139751652273639
7.755336,4.868332147925752,0.12052594525830344
7.759928000000002,4.902079482081827,0.11958784922967962
7.764516,4.922824038379769,0.11882825531345062
7.769112,4.945567691552668,0.11796466146926991
7.773716,4.970432626314673,0.11700115989031627
7.778316000000004,4.993821104875189,0.11597451909714016
7.782907999999999,5.00870397781581,0.11504130152521988
7.787500000000001,5.022765459574301,0.11405951442363807
7.792080000000006,5.027177531836958,0.11319116254348129
7.796664,5.02860278987975,0.11232230949974055
7.801256000000002,5.028185037578619,0.11141470604805581
7.805840000000003,5.0215934288580995,0.11057855329725358
7.810424000000005,5.016756547584246,0.10965965711437355
7.815012000000003,5.011508970719328,0.10871154578523155
7.819608000000002,5.003685275225613,0.10778643373297969
7.824196000000001,4.995861579731897,0.10685898986937807
7.828783999999999,4.981086778085289,0.10599800403803723
7.833376000000001,4.961814804200442,0.10518572917532883
7.837968000000004,4.941643395867949,0.10437926941210587
7.842556000000002,4.918162760621784,0.10364940184795021
7.847148000000004,4.893660506213823,0.10293475788139951
7.851739999999999,4.871612185720516,0.10220533819148833
7.856344,4.855982091074889,0.10138922320409964
7.860936000000002,4.841373615591055,0.1005555007301222
7.865528000000005,4.822312109317611,0.09982983123918863
7.870111999999999,4.80341692920694,0.0991487977367399
7.874704000000001,4.787752932744423,0.0984548007172324
7.879291999999999,4.771600197425325,0.09779832463445769
7.883896,4.762520752973264,0.09707377396682584
7.888484000000005,4.753607634683976,0.09639581971231442
7.893076000000001,4.746904080881048,0.09572701467860249
7.897668000000003,4.7452305796215715,0.09503223861697796
7.902264000000002,4.742168905057864,0.09438603888851005
7.906860000000002,4.73927355665693,0.09378989826488013
7.911456000000001,4.737688338294709,0.09321470651696245
7.916043999999999,4.7366360002376995,0.09266033069791822
7.920639999999999,4.7407358994382855,0.09207515000667098
7.925228000000004,4.752275643648346,0.09140797943848691
7.929812000000005,4.763571018430114,0.09075711598363809
7.934404000000001,4.776787446821324,0.0900764048852423
7.938991999999999,4.793479428288979,0.08937661436061461
7.943580000000004,4.809149790594842,0.08869970948832434
7.948176000000004,4.821510925987032,0.08809944973455415
7.952767999999999,4.831340084199052,0.08757778807295927
7.957356000000004,4.842068676858721,0.08704895580010458
7.961956000000001,4.853696703966039,0.08651305341672624
7.966543999999999,4.867367969396942,0.0859481828365121
7.971136000000001,4.87977324623776,0.08541997388266152
7.975732000000001,4.88960240444978,0.08490674289060808
7.980319999999999,4.903395854594829,0.08434178160689199
7.984916000000005,4.917966554473379,0.08378284415099575
7.989504000000004,4.92893951656134,0.08325188836275618
7.994092000000002,4.9403231742403655,0.08275230189182724
7.998688000000001,4.953872254957123,0.08221572048050203
8.003276,4.969220204569177,0.0816704334232002
8.00788,4.987633011666611,0.08108566277499105
8.012464000000001,5.00477983017396,0.08054044625923237
8.017056000000004,5.019516856215285,0.08006160074388605
8.021640000000005,5.038995423923141,0.07954027731579115
8.026240000000001,5.0609279255456485,0.07902332851803592
8.030828,5.083759861615805,0.07850970524588423
8.035428000000003,5.108390666581257,0.0779910145454705
8.040028,5.134820340442004,0.07746309818627173
8.044623999999999,5.161372199016896,0.07692813240141984
8.049212000000004,5.1907445456488785,0.07637588764237667
8.053800000000003,5.222815195623804,0.07581509112017393
8.058392000000005,5.25067718423741,0.07531865269424433
8.062980000000003,5.282381280069898,0.07479062195030692
8.067568000000001,5.316417125102893,0.07427860789193026
8.072156,5.350208600707597,0.07379424574832463
8.076736000000004,5.384899510759948,0.07331130894386421
8.081332000000003,5.426130831374126,0.0727891013557689
8.085920000000002,5.471326443921332,0.07223234192338206
8.090520000000005,5.513335014269012,0.07172526328005137
8.095112,5.553666900435542,0.07122394235147794
8.099700000000006,5.589012875507251,0.070779811294189
8.104292000000001,5.624358850578959,0.07033883270189101
8.10888,5.657006522307723,0.06991129575762516
8.113476000000006,5.688632574874694,0.06950370928654265
8.118068000000001,5.7185819432605145,0.06909854619045383
8.122656,5.743911954693951,0.068721794631512
8.127252000000006,5.768220346965594,0.06836058182502193
8.131840000000004,5.790974239770233,0.06799193423380161
8.136444000000004,5.8100082100701345,0.06764250278194697
8.141036,5.822623954522355,0.06732429651164445
8.145631999999999,5.829965277002834,0.06701817630599714
8.150232000000003,5.841515260844633,0.0666612336844391
8.154824000000005,5.847302083858106,0.06634658924582791
8.159428000000005,5.85063497295693,0.06602642395748257
8.164004000000006,5.848693440084011,0.06571644183737617
8.168604000000002,5.845197407744088,0.06539783929937906
8.173192,5.835283149556484,0.06510717743439047
8.177792000000004,5.820993903844786,0.0648224426091826
8.182380000000002,5.8061717778278785,0.06451588731792629
8.186980000000005,5.79302633599212,0.06421215812218972
8.191572,5.783723001375244,0.06388323239297734
8.196168,5.772087917557862,0.06353800209507549
8.200748000000004,5.762618256778212,0.06316517785445415
8.20534,5.747385435170238,0.06282742161148362
8.209940000000003,5.7304759293811145,0.06248497140221235
8.21454,5.715487477201433,0.06212892033185362
8.219132000000002,5.69996614471654,0.061752002785283526
8.223728000000001,5.685344246679295,0.06137180504305662
8.228308000000006,5.677384943918022,0.060954203454174224
8.232892,5.675966051718575,0.06050748917439285
8.237480000000005,5.68006595091916,0.06004277774505242
8.242076000000004,5.683388600386245,0.05957590270628211
8.246668,5.693740399271737,0.059054608169791356
8.251248000000004,5.70793430537611,0.05851589675329058
8.255844000000003,5.725603764556931,0.05797815763604618
8.260432000000002,5.742906669595317,0.05746415744639036
8.265028000000001,5.766627800481383,0.05693785836561032
8.269612000000002,5.789205127491508,0.05642739135209727
8.2742,5.81832286506346,0.0558992224538421
8.278808000000005,5.845641733740117,0.0553770377432825
8.283396000000003,5.872960602416772,0.054860826673899514
8.287996,5.904654458617523,0.054350397499660155
8.292588000000002,5.9352045109423335,0.053858878994783
8.297176,5.9772808849237915,0.0533198187980452
8.301772,6.022954996695842,0.05278084566399098
8.306352000000004,6.072226846258484,0.05224585789468762
8.310948000000003,6.120765587536251,0.05175558002528094
8.315528,6.172002632156962,0.05126943017498278
8.320124,6.22389474179703,0.05080570357789378
8.324712000000005,6.2699015058946275,0.05037547630515145
8.329300000000003,6.31296559722099,0.04996581065663696
8.33388,6.352842646347827,0.049587222814722345
8.338476,6.387489414951551,0.04925547434022071
8.343084000000005,6.416905903032161,0.04896763358297096
8.347680000000004,6.445422956665124,0.04868193026327733
8.352268000000002,6.473162760564584,0.04839041648752896
8.356864000000002,6.489498427521541,0.04813467945263162
8.361452,6.505467540336062,0.04789782915464607
8.366036000000001,6.509788146779788,0.04770951373225949
8.370624,6.5105110154329235,0.047520756397832736
8.375212000000005,6.50726959215303,0.04735254418333646
8.379804,6.496343954435372,0.04721104881442444
8.384392000000005,6.48157620949883,0.04708212966094967
8.388984,6.454260523743848,0.046999710016350886
8.393564000000005,6.4219589268940425,0.046943317184525185
8.398156,6.382217485034762,0.04689821730845072
8.402748000000003,6.340266478689122,0.04682447386396474
8.407336,6.2897318234580695,0.046775384651955
8.411948000000002,6.23098007348404,0.04672973119962461
8.416536,6.173249942671803,0.04667629578908628
8.421140000000001,6.108735031869449,0.04664867220317665
8.425728,6.0422990674576535,0.04662654286112052
8.430316000000005,5.972265365255267,0.0466032058973366
8.434904000000003,5.901454413319377,0.04657301184310596
8.439496000000005,5.825901919716958,0.04655403139668338
8.444092000000005,5.744708450000359,0.046545791126310875
8.448680000000003,5.6663354683408516,0.046531340851635794
8.45328,5.589350659985573,0.04648485801135088
8.457868000000005,5.520949500515709,0.046410330666329234
8.462468000000001,5.450382918008112,0.04635560821162301
8.467048000000005,5.375319163262275,0.04629798550880692
8.471648000000002,5.298578724335289,0.046231046810775965
8.476244000000001,5.221960470122447,0.0461535190310369
8.480832,5.146486019785544,0.046058219688054736
8.485412000000004,5.068313266105698,0.04596215406067515
8.490003999999999,4.985276786045177,0.0458882337214043
8.494596000000001,4.901751567128074,0.045845039070586395
8.499188000000004,4.81847071763926,0.04578219580300828
8.503776000000002,4.7302039570556245,0.045754403705370796
8.508364,4.638994523700754,0.04574324114389695
8.512944000000005,4.548928894221822,0.045715683238505535
8.517540000000004,4.458985449457037,0.04567520426043829
8.522132,4.367243135796957,0.04563164747695312
8.526724000000002,4.274723572403374,0.04557374586502002
8.531320000000001,4.1813045745621436,0.045512609890627935
8.535908,4.091483314511504,0.04545112087893934
8.540504000000006,4.003705292784451,0.045362697591438565
8.545092000000004,3.9100419255149292,0.045306686043685776
8.549688000000003,3.8071398443406372,0.045258303757418315
8.554284000000003,3.7107781737281713,0.04519087714509809
8.558872000000001,3.61429431840156,0.04513309829600321
8.563468,3.522429820027333,0.04506113145120891
8.568056000000006,3.4275004641677262,0.04502268295795164
8.572644000000004,3.3296284355368844,0.04500360245342865
8.577240000000003,3.2339218299437746,0.04493889799178805
8.581832000000006,3.1439783851789898,0.04483733461985221
8.586428000000005,3.049659952890111,0.044712032443410155
8.591016000000003,2.954197716725293,0.04460532043058317
8.595616,2.8656424452647387,0.044424865706316374
8.600204000000005,2.7784753471084147,0.044161970135234235
8.604800000000004,2.6949059867426826,0.043895305165538044
8.609383999999999,2.609171203339217,0.043665717331835274
8.613984000000002,2.5280557768881367,0.04341033779658715
8.618568000000003,2.4442420470941126,0.04311632584396798
8.623164000000003,2.365047674252474,0.042797230020451694
8.627756000000005,2.2840544325155387,0.04245359779585227
8.632352000000004,2.1979530949696358,0.042180903076502296
8.636940000000003,2.1127511918713813,0.0418959513934361
8.641536000000002,2.0292259729542765,0.041612605029612455
8.646124,1.9364620401324022,0.04130961946046442
8.650711999999999,1.8484396489770587,0.040941373047897404
8.655300000000004,1.758618388926419,0.04050375777892218
8.659880000000001,1.6749268438465408,0.039854912224128555
8.664468,1.5931563523761039,0.039107967689243676
8.669060000000002,1.50934262258208,0.03692007973867866
8.673656000000001,1.424385088912117,0.034754726488050544
8.678232000000001,1.3420036738709515,0.032604685134065794
8.682828,1.2660404846774669,0.030449859101500342
8.687415999999999,1.1927755988269257,0.02834243545730185
8.692004000000004,1.1187776046915103,0.026308910022545425
8.696612000000002,1.0459234144320344,0.02428223970568106
8.7012,0.9779329505532348,0.022232470599071012
8.705788000000005,0.9089208675126417,0.020212933508689093
8.710384000000005,0.8442837719961419,0.018247213902492072
8.714972000000003,0.776826188422553,0.016311252557275033
8.719568000000002,0.7129663426395556,0.01440228444092389
8.724156,0.6540924079513801,0.012450563933266443
8.728752,0.6035577527203267,0.010504627215519032
8.733340000000005,0.5577646391558038,0.00856554807727707
8.737940000000002,0.5191670011724635,0.006659389471161422
8.742528,0.4813466129226256,0.004812138481125909
8.747120000000002,0.44663522360679647,0.003051921016034042
8.751716000000002,0.4092696723966519,0.0014807495747978633
8.756316000000005,0.3782001623200422,0.0
8.760908,0.3563693661482024,0.0
8.765504,0.33850286190939105,0.0
8.770084000000004,0.3280762026800539,0.0
8.774680000000004,0.3185489778983645,0.0
8.779268000000002,0.30763357981244466,0.0
8.783864000000001,0.30080465837369896,0.0
8.788452,0.2927097483448683,0.0
8.793040000000005,0.28347103444009836,0.0
8.797628000000003,0.27693062387827205,0.0
8.802228,0.27296633194524367,0.0
8.806816000000005,0.27247759308866093,0.0
8.811416000000001,0.2739099078415196,0.0
8.816008000000004,0.27804052593732187,0.0
8.820588,0.28037227513782836,0.0
8.825172000000002,0.284380708519485,0.0
8.829764000000004,0.29325286828181785,0.0
8.834352000000003,0.3039238969394464,0.0
8.83896,0.3134069802725075,0.0
8.843552000000003,0.3278759747003906,0.0
8.848156000000003,0.3377256121758888,0.0
8.852744000000001,0.34258933855656515,0.0
8.857344000000005,0.34684214136651315,0.0
8.861940000000004,0.34455453361463473,0.0
8.866528000000002,0.3395686225198128,0.0
8.871127999999999,0.332006592796193,0.0
8.875720000000001,0.3243223783584275,0.0
8.880324000000002,0.3194586519777512,0.0
