Time,Force,Position
4.554632,1.1719138964652283,0.03339659368554007
4.55922,1.1230220235984356,0.031278961968621115
4.563808,1.0688557287599012,0.029161330251702155
4.568396,1.0177542914067474,0.02705010874796999
4.572996,0.9708615154149135,0.02489497201266681
4.577584,0.9269114121943144,0.02269238380076718
4.582175999999999,0.878464136735476,0.02051266658013657
4.58676,0.8312828498667225,0.018283821511438966
4.591348,0.7841015629979692,0.016031684315402646
4.595939999999999,0.735654287539131,0.013814167532995938
4.600527999999999,0.689128065689734,0.011574447598788057
4.605115999999999,0.6463217663450742,0.00931181791914884
4.609724,0.6022494784103295,0.007053461244276676
4.614312,0.5639403513039088,0.004765881987101641
4.618907999999999,0.5360137419781973,0.0024057616225367034
4.6235,0.5080871326524856,0.0
4.628088,0.4818372075079241,0.0
4.632683999999999,0.4598400851733105,0.0
4.637279999999999,0.4337564861915229,0.0
4.641876,0.41049337526682445,0.0
4.646455999999999,0.3882518835039194,0.0
4.651052,0.3652331420075124,0.0
4.655643999999999,0.34892113723570534,0.0
4.66024,0.3292218622847089,0.0
4.664823999999999,0.3110431849838275,0.0
4.669423999999999,0.29749410426706974,0.0
4.674016,0.2919721299453639,0.0
4.678607999999999,0.30036260756117983,0.0
4.683192,0.32188828738101527,0.0083594946102518
4.687783999999999,0.35679353883316167,0.016536024019278256
4.692371999999999,0.40009245082279693,0.02501620857811175
4.696968,0.45370607695936255,0.03345585544039914
4.701556,0.5200442097088825,0.041793622487938865
4.706147999999999,0.5918333302246566,0.05026905633638862
4.710728,0.6707501226878346,0.0587178715977555
4.715323999999999,0.7647231709644736,0.06696850777786467
4.719911999999999,0.8729752253210715,0.07503791983742543
4.724504,0.9928079824146843,0.08295948099951575
4.729099999999999,1.1298624183594907,0.09075812301458451
4.733675999999999,1.2782531876130212,0.09854861383119015
4.73826,1.4328721943663079,0.10650118491068651
4.742844,1.5942523189245617,0.11460633935346475
4.747432,1.769500753971709,0.1224891061222767
4.752035999999999,1.9552199896968214,0.13035161623813762
4.756623999999999,2.146335832107821,0.13813788041271075
4.761211999999999,2.3386293802116493,0.14581392145861188
4.765803999999999,2.5329117855586976,0.1532881908458865
4.770399999999999,2.713814619273435,0.16080910800730436
4.775003999999999,2.885546542717181,0.1599238827843271
4.779591999999999,3.047618817033354,0.15921305367739005
4.784196,3.2048951686026284,0.158156741432515
4.788775999999999,3.355454543815565,0.1570795039866945
4.793372,3.4998298229773734,0.15603650077229464
4.79796,3.634545453011608,0.15493189931908302
4.802564,3.759190738327203,0.15385391645295426
4.807155999999999,3.8733991247817228,0.15293413337324083
4.811755999999999,3.9733285051562843,0.15224772957155144
4.81634,4.062820986669768,0.15165702150985683
4.820931999999999,4.141754384608031,0.15114989113753904
4.825528,4.213437925884745,0.15055783939081727
4.830119999999999,4.281058652699435,0.14971988535660027
4.834707999999999,4.344983119194538,0.14861801845509856
4.8393,4.393973514590325,0.14770457156150926
4.843888,4.438700867544426,0.146698028818196
4.84848,4.474589962553084,0.1457624105816614
4.853067999999999,4.500951832780052,0.14501664411123646
4.857668,4.518197173816397,0.14449631768129073
4.862256,4.536053438423469,0.14391274418569872
4.866847999999999,4.551988649421101,0.14338202128699887
4.871444,4.566613730380018,0.1428431499139832
4.876031999999999,4.581605365481373,0.1422770464811226
4.880623999999999,4.593121447506283,0.14177831944883237
4.885199999999999,4.601772900025475,0.14129055161395004
4.889787999999999,4.614877383334278,0.14064818523502906
4.894392,4.6312910935567535,0.13990179194305963
4.89898,4.644473620131072,0.13919442081346878
4.90358,4.662397688371923,0.13837645728205397
4.908171999999999,4.677623453269832,0.1376154414102918
4.912759999999999,4.691416903414881,0.13686113969325991
4.917351999999999,4.700590996607546,0.13620936144775306
4.921951999999999,4.708499101210125,0.13561489287079573
4.926544,4.714241782774972,0.13509465797679937
4.931139999999999,4.7148763685308515,0.13470853378506936
4.935732,4.711546662353702,0.13442469410973684
4.94032,4.707850402034116,0.13417330823399645
4.94492,4.713637225047591,0.13371528793181933
4.949508,4.7203234825087135,0.13323808384855515
4.954108,4.730240923617989,0.13273200372988064
4.9587,4.73979181058483,0.13225625586348752
4.963296,4.754739304237558,0.13169111611120998
4.967879999999999,4.768542994014344,0.13117014215639972
4.972476,4.787088225457662,0.13055592768545884
4.977063999999999,4.804778163901961,0.13001887296748757
4.98166,4.822101548203823,0.1295225843384615
4.986239999999999,4.835993520877866,0.12914047791784763
4.990827999999999,4.854915546095361,0.12870527630494397
4.995415999999999,4.874204125455292,0.12824956045507768
5.000012,4.895169388996375,0.12777621178632828
5.004588,4.914746479233225,0.12735816668581476
5.009167999999999,4.9366553186705815,0.12692759534758924
5.013752,4.960485211717381,0.12646594225388788
5.01834,4.982149681726447,0.12606367893660134
5.022931999999999,5.01059893172563,0.12551685746839678
5.027524,5.0391703664389595,0.12496187137483354
5.032112,5.068108355294725,0.12437285414782277
5.036719999999999,5.090628118302811,0.12390390951652604
5.041307999999999,5.117889422977428,0.12335330952216374
5.045895999999999,5.143718412899185,0.12280806222023212
5.050488,5.175022052772348,0.12212463352851395
5.055076,5.198641478207744,0.12159054329476976
5.059683999999999,5.22340470751908,0.12103086750803552
5.064283999999999,5.243548579878031,0.12055123286433364
5.068876,5.263403941360062,0.1200345391522841
5.073464,5.2808053689274415,0.11953895809971744
5.078059999999999,5.296774481741961,0.11903695927432939
5.082647999999999,5.30861297646068,0.1185722059670471
5.087244,5.312889441455779,0.11823369947008304
5.091828,5.314956341964518,0.11789293842937566
5.096423999999999,5.318533600491631,0.11749135206754106
5.101016,5.3246428361989135,0.1170121428261763
5.105608,5.325233280506166,0.11661426799385696
5.110199999999999,5.32541302922235,0.11618795896919508
5.114792,5.323016659309739,0.11578866950882595
5.11938,5.320742474111273,0.11538007244897286
5.123972,5.323332015293483,0.11488818300578964
5.128551999999999,5.327842610085133,0.11436492908171195
5.133135999999999,5.3297770862479865,0.11387172817048448
5.137723999999999,5.330812127963191,0.11339115559835446
5.142308,5.3249402049741335,0.11303345789689866
5.146899999999999,5.322255324184602,0.11260481763656513
5.151475999999999,5.314706717014393,0.11225732946637836
5.15606,5.308956978739481,0.11188825632420098
5.160644,5.3048839246457185,0.11150714614888817
5.165232,5.305308042790195,0.11107581939011289
5.169839999999999,5.310351517887057,0.11058517461894452
5.174427999999999,5.314251189107979,0.1101212305960568
5.17902,5.329310627843114,0.10951018325718306
5.183615999999999,5.348622869388196,0.10887046661551222
5.1882,5.367568556790841,0.10826028165080075
5.192796,5.378585660327429,0.10778355821574886
5.197388,5.39536592469234,0.107221760043419
5.201988,5.416643361295493,0.10661468274684774
5.206567999999999,5.44139635097509,0.10598311202124455
5.211167999999999,5.466926590388189,0.10535511896839655
5.215755999999999,5.486449299544672,0.10483359288595072
5.22036,5.503928770377569,0.10435010504772593
5.224943999999999,5.518099014296794,0.10393879659934661
5.229543999999999,5.530103835178286,0.10357178204811479
5.234128,5.547749632173957,0.1031329265080172
5.238719999999999,5.568093732512571,0.10267225324274555
5.243307999999999,5.594323178393656,0.1021241607672132
5.247904,5.617854320931795,0.1016038065196935
5.252492,5.6433065170793775,0.10106447026058513
5.257088,5.665160975436368,0.1005674450793506
5.261676,5.685460934326353,0.1000779518150331
5.266259999999999,5.708703565987573,0.09954712534738412
5.270847999999999,5.72450635263932,0.0991070642005795
5.27544,5.737610835948124,0.09869462149242872
5.280035999999999,5.751081873399364,0.0982585849975376
5.284611999999999,5.773503113878454,0.0976949232983898
5.289199999999999,5.791182812691014,0.09719000922403473
5.29378,5.80538695842713,0.09671138168538959
5.298371999999999,5.8161155510867975,0.09625737791188943
5.302968,5.826189078727109,0.0957966271935299
5.307556,5.840471267728741,0.09526761379377431
5.312159999999999,5.857041064482251,0.09469372929501882
5.316747999999999,5.877042272863578,0.09405010311313307
5.321351999999999,5.902151577053873,0.09333406492385762
5.325944,5.92276370900593,0.09265706604146776
5.330532,5.942065710919273,0.09197080637428723
5.335123999999999,5.958913778917965,0.0912959622741697
5.33972,5.979726138849683,0.09057434849217953
5.344311999999999,5.996285695971455,0.08987316871811687
5.348891999999999,6.011290753626222,0.08916916468249539
5.353491999999999,6.022209334633815,0.0885207634413396
5.358072,6.033250100355554,0.08786865352694787
5.362672,6.041714747448495,0.08722275020315225
5.367263999999999,6.047847645340929,0.08656980279207205
5.37186,6.053081108785715,0.08592343039410524
5.376439999999999,6.055494084173413,0.08530908201503097
5.381031999999999,6.060849732332344,0.08466243812403737
5.385624,6.067104814938924,0.08401084881297512
5.390215999999999,6.078101439212035,0.08332175019565394
5.394803999999999,6.0892202481992905,0.08262751913354788
5.399391999999999,6.100339057186547,0.08194053251215971
5.403976,6.109414627850215,0.08128080811582195
5.408567999999999,6.112971407113851,0.0806562770393438
5.41316,6.110887210263308,0.08007708787372725
5.417743999999999,6.109702447860414,0.07949113253202919
5.422331999999999,6.104186839382054,0.07896836681232154
5.426919999999999,6.097405242313609,0.07847237847248915
5.431512,6.086781538026282,0.07800956507467184
5.4361,6.072970791539429,0.077586086637955
5.440688,6.062635598129021,0.07715167759515658
5.445295999999999,6.057286315813435,0.07666448769172211
5.44988,6.0484614804214045,0.07618582510287038
5.454492,6.045155436429405,0.07567286306385469
5.459083999999999,6.047123814409148,0.07514317280017938
5.463687999999999,6.051668311017689,0.07461053421966092
5.46828,6.05506900375029,0.0740988342322614
5.472868,6.058591881197037,0.07358259745350934
5.477464,6.063913627539079,0.073061684619354
5.482056,6.062694963319296,0.07258264643769477
5.486651999999999,6.0584114416141315,0.07213462693936624
5.49124,6.05040799740423,0.07170792919745513
5.495839999999999,6.045225041251416,0.07126448828039843
5.500416,6.04801481041329,0.07079840181179498
5.505004,6.053625067632252,0.07031412970391884
5.509587999999999,6.063077432070097,0.06980564027271667
5.51418,6.077393522888617,0.06926024612103442
5.518768,6.096206785945378,0.06870397161330748
5.52336,6.11976159066867,0.06812220303548337
5.52796,6.153698913172671,0.0674833128231742
5.532551999999999,6.181750890134199,0.06689015936204368
5.537139999999999,6.208659063219791,0.06632034100554215
5.541732,6.240597288848832,0.06575855201825158
5.54632,6.271636080030224,0.06520587766391901
5.550915999999999,6.300998187030467,0.06465881391579786
5.555496,6.328805794563706,0.0641078012416898
5.560087999999999,6.355713967649298,0.06356064187017318
5.564684,6.380456717697157,0.0630413022808622
5.569272,6.402623349116218,0.06252554633651826
5.573863999999999,6.427610468592368,0.0619967236297459
5.578451999999999,6.456195325859109,0.06145957282766189
5.583043999999999,6.486456867307,0.060926500218668994
5.587627999999999,6.514919539859594,0.060402315273094156
5.592215999999999,6.540151028764036,0.05987181794975169
5.596807999999999,6.566404136830271,0.05933699492419689
5.6014,6.587915703229974,0.058827338041004124
5.605988,6.607628400734383,0.058324731313208096
5.610583999999999,6.618468938476458,0.05783037792538225
5.615164,6.621625261780768,0.0573733243165177
5.619755999999999,6.617586109503894,0.05692990451267838
5.624336,6.618777237750134,0.05643939467612769
5.628936,6.61841386652937,0.0559388062510645
5.633519999999999,6.612653888622719,0.055445035145190266
5.638119999999999,6.60431779208727,0.05494731450943939
5.642712,6.591117969171145,0.05447193714484287
5.647307999999999,6.575752723217287,0.054016379709947986
5.651888,6.561409096425223,0.05355237350201861
5.65648,6.54730983906145,0.053073649203678755
5.661083999999999,6.532721842841093,0.05261956380888026
5.665676,6.513270120240062,0.05218512116698628
5.670264,6.491120094296086,0.051751452491003706
5.674852,6.466926830028524,0.051330389981165465
5.67944,6.443510815494464,0.0509147964209623
5.68402,6.4166633893325855,0.05053747798252191
5.688616,6.38777272484712,0.05017244326943257
5.693208,6.358637690933364,0.04981772046088923
5.697804,6.327337233981875,0.049481297853017525
5.702392,6.301189014287982,0.04915231734826012
5.706992,6.280803955422413,0.04879912806457858
5.71158,6.2578869193766735,0.048483033348301494
5.716172,6.2305168525413235,0.0482127699650122
5.72076,6.199959743506446,0.04796640464979049
5.725347999999999,6.172100937814514,0.04771771499028116
5.729948,6.140688535780618,0.047513682322145534
5.734539999999999,6.111730067661374,0.047321326211883605
5.739127999999999,6.082527230113838,0.04714110297336437
5.743724,6.048216296757334,0.04699323836392503
5.748308,6.012517190096601,0.04687113111356602
5.752912,5.975019214540572,0.04674723649037519
5.757491999999999,5.940219542327487,0.04662153213303824
5.7621,5.907096554295552,0.04650170470601525
5.766675999999999,5.874095750977761,0.046372803281562604
5.771272,5.830468060450971,0.046283228071889754
5.775855999999999,5.787861989085974,0.04618522731509395
5.780455999999999,5.740925071645513,0.04612968630613377
5.785039999999999,5.696930826976286,0.04605764374871068
5.789636,5.646273987031087,0.04600538683938231
5.794224,5.591408485724568,0.045990404606650125
5.798815999999999,5.529513834999639,0.04601784063145289
5.803407999999999,5.471583476207741,0.04602237941438572
5.808,5.411199183501189,0.046010086947928235
5.812591999999999,5.349548902204553,0.046021859913367894
5.817176,5.282257644793738,0.0460458510458485
5.821759999999999,5.218930679315951,0.046047667921070345
5.826359999999999,5.152783225781075,0.04605762398373511
5.830952,5.0839374689032555,0.04606645735550112
5.835543999999999,5.016235515901375,0.04605835272198793
5.840135999999999,4.944036390661255,0.04604792779108298
5.844723999999999,4.868772407935756,0.04606364653101589
5.849307999999999,4.7935084252102556,0.04607646450868511
5.853892,4.709905163027634,0.04610369125397192
5.858476,4.6175960672454535,0.046176201240398985
5.863087999999999,4.533992805062832,0.046206544868676494
5.867676,4.445403631785387,0.04627815643463309
5.872264,4.355504328469229,0.04631382767755916
5.876856,4.257021376267659,0.04638325331489056
5.881447999999999,4.164301584894414,0.04642617712410603
5.88604,4.071171097930102,0.0464303387565616
5.89062,3.9811054684511706,0.046404220347060494
5.895216,3.88347780924862,0.04640487573304818
5.899804,3.7893257031225156,0.04641514526658323
5.904399999999999,3.6955401511388475,0.04639176569711206
5.908987999999999,3.603553468050475,0.04636754709841348
5.913587999999999,3.505925808847925,0.04636373604148719
5.918172,3.4048225965689287,0.04634651238626592
5.922768,3.3028199498422843,0.04632637252557321
5.927351999999999,3.20249398729679,0.0463156708162774
5.931948,3.1028230897706526,0.046340564069756306
5.936544,3.005317615282248,0.04632549632079654
5.941144,2.9039700335749603,0.04633700809677556
5.945732,2.8092850471436446,0.046298090427891694
5.950327999999999,2.7260041976548313,0.046189335383362846
5.954908,2.6350391337282524,0.04613433881277442
5.959491999999999,2.5463616775535516,0.04601606571867601
5.964084,2.462059208902945,0.04590832510554305
5.968675999999999,2.3785339899858413,0.045829452480766614
5.973272,2.295008771068736,0.04573279159239384
5.97786,2.2107063024181297,0.04558118163122127
5.98246,2.1243605954439353,0.045459965770376955
5.987039999999999,2.0445552990315683,0.04529486697289123
5.991636,1.961152264828609,0.04510863193068968
5.996227999999999,1.8773826764832136,0.0449919352128168
6.000815999999999,1.7934909034236723,0.04490242901953993
6.005424,1.709354760935839,0.044911452665605554
6.010007999999999,1.6277947370768042,0.04496756751856746
6.014604,1.5481557668272108,0.04267332132973317
6.0192,1.4638974396252324,0.04038071111731428
6.023783999999999,1.386668261841663,0.03805538630687936
6.028388,1.3082952801821541,0.035752197953341815
6.03298,1.2320877215603783,0.033433464448861624
6.037583999999999,1.154736359062663,0.03115825206539159
6.042159999999999,1.0688013476795342,0.028923404120173673
6.046759999999999,0.9894067468582319,0.026657892710385576
6.051347999999999,0.9127104493798732,0.024422984963977826
6.055947999999999,0.8371579557774537,0.02219152342269932
6.060532,0.7672464382892126,0.01992101962568357
6.065132,0.6961911169250323,0.017682177070960592
6.069716,0.6301658481043022,0.015513509978835664
6.074308,0.5690043056642483,0.013329440994719288
6.078904,0.502989812592653,0.011179607432673948
6.083496,0.4423719262069446,0.009051960772473742
6.088096,0.386495581487767,0.006872431513973844
6.092687999999999,0.3343391592733264,0.00466843086930413
6.097268,0.28884533233485776,0.0023549805320254697
6.10186,0.24797086234877405,0.0
6.106447999999999,0.21057194543913613,0.0
6.111048,0.1795912543771788,0.0
6.115636,0.14722239001099094,0.0
6.120215999999999,0.11947288259718807,0.0
6.124808,0.09507674354568521,0.0
6.129387999999999,0.0733789078371259,0.0
6.133984,0.059120917138040754,0.0
6.138563999999999,0.04666179533425131,0.0
6.143151999999999,0.03587935771161189,0.0
6.147748,0.025751985108328983,0.0
6.152336,0.01652404695269393,0.0
6.156931999999999,0.011016031301795955,0.0
6.161524,0.005630200365043648,0.0
6.166115999999999,0.0,0.0
6.170715999999999,0.0,0.0
6.175307999999999,0.0,0.0
6.179903999999999,0.0,0.0
6.184479999999999,0.0,0.0
6.189079999999999,0.0012552128409500632,0.0
6.19366,0.00533091373898935,0.0
6.198259999999999,0.00875154961767213,0.0
6.202843999999999,0.012949435229857087,0.0
6.207436,0.01816894000383557,0.0
6.212024,0.025431683101401096,0.0
6.216619999999999,0.0316728070371731,0.0
6.221216,0.03587069264935806,0.0
6.225816,0.04276688160448658,0.0
6.230404,0.05260574333084999,0.0
6.234999999999999,0.0635884089331526,0.0
6.239588,0.07726937787839874,0.0
6.244183999999999,0.09184978127129274,0.0
6.248771999999999,0.10450913105474538,0.0
6.253368,0.12023333832357859,0.0
