Time,Force,Position
6.853816000000009,1.0962707861706105,0.027532679944202484
6.858452,1.0253376495205757,0.025324811475652645
6.863095999999999,0.9522390898328086,0.023167966240723106
6.867736000000008,0.8841264412398631,0.021001936882206633
6.872376000000003,0.8197337151516547,0.01882282895110133
6.877004,0.7600825307299771,0.01660065636564481
6.881636,0.7001869768800081,0.014390098455253004
6.886268000000001,0.6422124766394806,0.01218462503592629
6.890916000000004,0.5846486719900182,0.009993149704672868
6.895539999999997,0.520170626514136,0.007924148789379665
6.900188,0.46223299160008025,0.005820158118721292
6.904831999999999,0.40843325090398297,0.0038109809014364323
6.909468000000004,0.3582239718763207,0.0018774595933726134
6.914112000000003,0.3134112995345457,0.0
6.91874,0.27718955220034025,0.0
6.923376000000005,0.2450984229619371,0.0
6.92801200000001,0.21456179319053834,0.0
6.932659999999999,0.18929958539088096,0.0
6.937291999999999,0.16174976983934514,0.0
6.941928000000004,0.14188416872557494,0.0
6.946551999999997,0.12508342509718526,0.0
6.951195999999996,0.11008155036409129,0.0
6.955848000000003,0.09675635981214732,0.0
6.960480000000004,0.0847412992989164,0.0
6.965116000000009,0.07362567323333334,0.0
6.969763999999998,0.0634094816153981,0.0
6.974400000000003,0.05985588527343484,0.0
6.979048000000006,0.05659079980839108,0.0
6.983680000000007,0.061542809086323653,0.0
6.988320000000002,0.07775014489788006,0.0
6.992972000000009,0.09960869645535371,0.0
6.99760400000001,0.1289541979805121,0.0
7.002232000000007,0.17185287342291156,0.006928138788210604
7.006872000000001,0.22800893578347622,0.013681526717117296
7.011508000000006,0.2897308945022843,0.020639564002947582
7.016140000000007,0.3617234259193945,0.027574351972765213
7.020784000000006,0.4418211069970742,0.03465186442398337
7.025416000000007,0.5278585146975906,0.041829508500322944
7.030060000000006,0.6257209945634135,0.04908993175114461
7.034695999999997,0.7338981885761666,0.05632557100426483
7.039344,0.8532895311834983,0.06357622162633847
7.043971999999997,0.9805416540231077,0.0709193738774406
7.048612000000006,1.119863218456315,0.07822260863757732
7.053235999999998,1.2672899325500921,0.08555642737088177
7.057879999999997,1.4264195340950296,0.09281769191074171
7.062516000000002,1.5926326661387433,0.10013401324274171
7.067155999999997,1.766950947843026,0.10742050657055814
7.071799999999996,1.949574607187542,0.11466967725524238
7.076436000000001,2.134329787752901,0.12192410677748632
7.081072000000006,2.3169975885460445,0.1291413309409561
7.085707999999997,2.497367541955571,0.13629935854054795
7.090344000000002,2.667500824483685,0.1434413806056456
7.094980000000007,2.823144633320438,0.14361204042380196
7.099620000000002,2.9635658601809562,0.14394055333116576
7.104256000000007,3.095549285055358,0.14395649286932385
7.108888000000007,3.217628691373894,0.14398226626863295
7.113532000000006,3.330415002707294,0.14385311563420894
7.118164000000007,3.4291666773890257,0.14373844834704594
7.122808000000006,3.5206684954092076,0.1434500950888666
7.127448000000001,3.5967033620248645,0.14325343534019272
7.132080000000002,3.6613577538831685,0.1429869861406075
7.136724000000001,3.7205611579752187,0.14251476717452627
7.14136400000001,3.7670400554543146,0.14214690969756996
7.145995999999997,3.802060434910541,0.14180041762872836
7.15064000000001,3.821247308819805,0.1415966806370671
7.155276000000001,3.830241653296283,0.1413486618966954
7.1599080000000015,3.8295763486451877,0.1410857549452944
7.1645520000000005,3.8194177210292932,0.1408686100377319
7.169184000000001,3.8041407579726916,0.14059323375723753
7.173816000000002,3.787265154000457,0.1402580113169349
7.178452000000007,3.7720220927607446,0.13981767661248112
7.183080000000004,3.761686899350337,0.13930439677339845
7.187716000000009,3.753849781303209,0.13882807634771172
7.192363999999998,3.7429919472193287,0.13852711526948142
7.196995999999999,3.730012831546345,0.1383839109014971
7.201636000000008,3.717933150321008,0.13821845081356943
7.2062719999999985,3.708718098601388,0.13805104251339004
7.210903999999999,3.7104184449676882,0.1376190961038714
7.215544000000008,3.713428921372702,0.13720633746695804
7.220172000000005,3.722002330626377,0.13672829339233822
7.224820000000008,3.734994868852773,0.136243328588444
7.229460000000003,3.748153733241943,0.13582992959338755
7.234104000000002,3.769651877088235,0.13522235618394782
7.238736000000003,3.7936039548491793,0.1345751669324451
7.243368000000004,3.824262769334724,0.13381961359204592
7.247996,3.862405570278371,0.1329678552474006
7.252628000000001,3.9016141318324395,0.13216453487645488
7.257272,3.9422550081393664,0.13136047450987598
7.261896000000007,3.981385526427917,0.1306445964380849
7.266536000000002,4.016307383355148,0.1300772666906359
7.271160000000009,4.046121144473411,0.12968610637397712
7.275804000000008,4.072747863392149,0.1294076580839471
7.280444000000003,4.100274016758535,0.1291147066828124
7.285088000000002,4.135484384562685,0.1286152892362364
7.289727999999997,4.173637425138071,0.1280346822933408
7.294376,4.210768846551663,0.12748974652525033
7.299000000000007,4.251087310164781,0.12686028141347386
7.30364800000001,4.287685851273162,0.1263401904903715
7.308288000000005,4.322607708200393,0.1258552447503008
7.3129320000000035,4.3586292275549345,0.12527486736385124
7.317580000000007,4.389376324937736,0.12478404676235333
7.322212000000007,4.415992804224734,0.12434113132962661
7.326836,4.437334861539991,0.12399489644509368
7.331479999999999,4.460187276873625,0.12357867472596826
7.336116000000004,4.481729562168545,0.12315446377684053
7.340744000000001,4.49476624184357,0.12283730139957517
7.34538400000001,4.505182661441168,0.12248879538319295
7.350020000000001,4.5154327548759925,0.12208858283091666
7.354656000000006,4.5255165221480445,0.12163365857098844
7.359304000000009,4.537599386295054,0.12106148783575052
7.36393600000001,4.549271554850998,0.12045777280214007
7.368567999999996,4.558978528348874,0.11982575440872972
7.373208000000005,4.56582087234103,0.11918552760831261
7.377836000000002,4.568776967665678,0.11856402222213207
7.382480000000001,4.566703010446874,0.11799317058130494
7.387116000000006,4.566261595960593,0.11734173487946534
7.391751999999997,4.556170771978476,0.1168227046194245
7.39639600000001,4.544769817957646,0.11628715625541662
7.401024000000007,4.5269506380891364,0.11585710193237618
7.4056520000000035,4.505044981573453,0.11552492257608707
7.410284000000004,4.485304748095501,0.11512957135673196
7.414912000000001,4.465686699331695,0.11472004312228994
7.419544000000002,4.444025412244302,0.11435931465402768
7.424176000000003,4.424162994052205,0.11396815246123652
7.428803999999999,4.401480087803018,0.11362640599951056
7.4334479999999985,4.385093222687367,0.11318846581702632
7.438072000000005,4.372059725934014,0.11271817870039001
7.442716000000004,4.359026229180663,0.11224629859878646
7.447360000000003,4.347913786036753,0.11173646779595815
7.451999999999998,4.33798928821741,0.11125740951258084
7.456640000000007,4.328064790398068,0.11077628928474777
7.461280000000002,4.322393095388674,0.11025440492126243
7.465907999999999,4.319175334293931,0.10971723219432543
7.470556000000002,4.320987625742638,0.10914392995905535
7.475200000000001,4.328074339163088,0.10850883776653152
7.479836000000006,4.334550129012809,0.10793336778034329
7.484480000000005,4.346955405853627,0.10730339399811305
7.48911600000001,4.3559292710666275,0.10677206164723427
7.493744000000007,4.378106142117427,0.10602906816614804
7.498379999999997,4.404002935672962,0.10523266376062286
7.503016000000002,4.429777544514353,0.10445140785052359
7.507655999999997,4.459927140879837,0.1036309048127566
7.512299999999996,4.492119975568909,0.10276492245822832
7.516931999999997,4.519449083877303,0.10199479913389117
7.521575999999996,4.5494764955286415,0.10119271631523886
7.526223999999999,4.578482288018186,0.10042821651671427
7.530864000000008,4.604667592450642,0.09971258417938143
7.535496000000009,4.632529581064249,0.09899645511778504
7.540132,4.66194606914486,0.09829406178303024
7.544759999999997,4.692750730529699,0.09755567280488575
7.549408,4.726253695257484,0.09679585340976983
7.554044000000005,4.76000102941356,0.09602969044948599
7.558683999999999,4.790683506084255,0.0953222597928949
7.563339999999997,4.819933668002091,0.09461985973120457
7.567971999999997,4.851227068243514,0.09389631453210473
7.572596000000004,4.8816210340372885,0.09318474924553204
7.577232000000009,4.913158803707003,0.09245408338099642
7.581876000000008,4.9526251572427755,0.09160666038802111
7.586508000000009,4.986328349950224,0.09086410972389622
7.591148000000004,5.016311620152935,0.09016547122061809
7.595784000000009,5.047438694231583,0.08944673797934022
7.60041600000001,5.075090215233788,0.08875519799102914
7.605063999999999,5.104662789845433,0.08804805925472306
7.609696,5.1392212755519,0.08727493682950033
7.614336000000009,5.171081457915424,0.0865242095064455
7.6189760000000035,5.202408759973737,0.08576345518539272
7.623599999999996,5.23847760369858,0.08496100459738422
7.628247999999999,5.274424262709277,0.08417883082754811
7.632891999999998,5.312780714185999,0.08336155767995967
7.637532000000007,5.346151254567899,0.08261603537807313
7.642176000000006,5.375679687730916,0.08191447645140762
7.646811999999997,5.404308686446285,0.08122820531553222
7.651452000000006,5.4372685312371205,0.08047155335894368
7.656096000000005,5.467041333828427,0.07977145130705691
7.660736,5.492072594753206,0.07912321544188974
7.665372000000005,5.519513648144008,0.07842889542700199
7.670004000000006,5.544256398191866,0.07775477202627873
7.674632000000003,5.563480356839692,0.07712824741651993
7.679271999999997,5.5759195354974,0.07656628731927205
7.6839120000000065,5.592200821373992,0.07597053915587923
7.688544000000007,5.610158791431732,0.07538072850595486
7.693176000000008,5.629793445670623,0.07479191577112149
7.697816000000003,5.6493059151953675,0.0742184964170058
7.702444,5.668574015291821,0.07367058532290868
7.707092000000003,5.690662603445364,0.07310313193454208
7.711731999999998,5.711485203008821,0.07256762881828929
7.716380000000001,5.729365129801043,0.07206687570161896
7.721035999999998,5.7437695035168215,0.07157537700526877
7.725667999999999,5.750245293366542,0.07116406115407628
7.73029600000001,5.758642136825704,0.07073680353646994
7.7349279999999965,5.770103837770246,0.07027567437524454
7.739559999999997,5.781321169286497,0.06983310077505314
7.744191999999998,5.790905958070226,0.06944368924267388
7.748832000000007,5.8043328540728405,0.06902780297162642
7.753467999999998,5.818781369237245,0.06860158771041722
7.758099999999999,5.8300428422021255,0.06821824848325478
7.762736000000004,5.8450242376717405,0.06781794022431747
7.767372000000009,5.859761263713067,0.06743302211264485
7.77200400000001,5.885369546391684,0.06695760281722515
7.77664,5.910855644356155,0.06649600541141427
7.781276000000005,5.93286618924418,0.06604251279572547
7.785911999999996,5.955243288274642,0.06557101444561146
7.790540000000007,5.974922083962162,0.06511024723238783
7.795187999999996,5.990103707411441,0.06466465200600954
7.799828000000005,6.007450753898453,0.06419799197605607
7.804472000000004,6.0223438664708135,0.0637232532501816
7.809108000000009,6.032984176233226,0.06324456081777607
7.81374000000001,6.0455455396050795,0.06275431894893944
7.818368000000007,6.059372891567016,0.06223732968805809
7.823000000000007,6.074588416833187,0.06169218063706961
7.8276440000000065,6.089803942099356,0.06115111960796149
7.832284000000001,6.101666099003224,0.06060324718342043
7.836916000000002,6.109519822525437,0.06003412759470263
7.841555999999997,6.1123434935041985,0.05945574891557729
7.846192000000002,6.114267730035314,0.0588790883161387
7.850824000000003,6.115292532118779,0.05830201970772838
7.855456000000004,6.111820161964006,0.05773460173590294
7.860092000000009,6.109369410971027,0.05715801942328694
7.864727999999999,6.0935934694261045,0.056643142952291614
7.86936,6.075363593966529,0.05611785673798167
7.8740080000000034,6.0561120993451585,0.0555979236546549
7.878652000000002,6.032774128076616,0.055109078554263814
7.883291999999997,6.008292352932134,0.05463294315192356
7.887935999999996,5.985609446682948,0.05415215057167612
7.892576000000005,5.958840063786588,0.053703825878916714
7.897204000000002,5.935424049252528,0.053263592743337765
7.901848000000001,5.914339783918974,0.0528382529307333
7.906484000000006,5.890967910833541,0.052441533530037915
7.911124000000001,5.869927786948615,0.05206254271851104
7.915768,5.845578436150018,0.05171989696949754
7.920404000000005,5.819185847027831,0.05139154871904116
7.925048000000004,5.797823310449098,0.051079963788145534
7.929680000000005,5.780835761394457,0.05077022876841142
7.93432,5.762870734626651,0.05051506591813793
7.938947999999996,5.744783523144698,0.050265543784959406
7.943588000000005,5.7295167997198355,0.05000638768550794
7.948216000000002,5.717481259943128,0.049766907951022225
7.952864000000005,5.706345154614067,0.04952693183551215
7.957499999999996,5.704203393761485,0.04928200863498328
7.962140000000005,5.701328524624028,0.049080034325438344
7.966784000000004,5.700008154953577,0.04889166604569866
7.971412000000001,5.704328761397303,0.048688056812409
7.976039999999998,5.712491475059912,0.04846995048767428
7.980683999999997,5.718366580970644,0.048280695370838705
7.98532800000001,5.7220762638436415,0.04811242469705343
7.989968000000005,5.725785946716639,0.04794501190504004
7.994612000000004,5.734114986542023,0.04777149328627124
7.999244000000004,5.74820718719573,0.04757760044042366
8.00388000000001,5.757557846182907,0.04739704718771446
8.008520000000004,5.769728993227173,0.047209687738756514
8.013152000000005,5.781533586129003,0.047043729724430904
8.017787999999996,5.786020518735502,0.046883834121705936
8.022424,5.790140897199566,0.04674644899649155
8.027051999999998,5.796548883415508,0.046579330290888905
8.0317,5.798870392984276,0.046439469558903754
8.036344,5.800947533124752,0.046314940131281325
8.040976,5.799304750760491,0.04619693524257434
8.04562,5.793575491749057,0.04610696103297766
8.050247999999996,5.785147929394679,0.046016232671616586
8.054876000000007,5.774022063697358,0.04592420583655031
8.059520000000006,5.760975144390593,0.045838636711973246
8.064160000000001,5.741143445093713,0.045780287718783313
8.068796000000006,5.716570204130301,0.0457340106040838
8.073436000000001,5.692363517309327,0.04566465526869022
8.078068000000002,5.669300634364292,0.04557996496745744
8.082712,5.640352405876787,0.045522787965461504
8.087360000000004,5.600244409875071,0.04548310467558639
8.091999999999999,5.5497538960926445,0.04546829545721008
8.096632,5.500407186186159,0.04543787117557246
8.101280000000003,5.444275696289554,0.04543550150537656
8.105916000000008,5.3855680877641525,0.04542452580923075
8.110556000000003,5.329803152009986,0.04539656765721039
8.115200000000002,5.267742175122284,0.04536481526611742
8.119836000000006,5.204537394358643,0.04534660999785414
8.124480000000005,5.145419090242177,0.045296896320470605
8.129108000000002,5.076939887506795,0.04526688185342665
8.133735999999999,5.004862946980819,0.04523369534297906
8.138368,4.931109322273697,0.04519086738036776
8.143016000000003,4.85351359034769,0.045162445728018155
8.147644,4.776162227849976,0.045114943511294255
8.152287999999999,4.695090942847523,0.0450742078096028
8.156912000000005,4.609400300892685,0.04504264945466046
8.161556000000004,4.51974536700482,0.04503797991188987
8.166200000000003,4.426126141183926,0.04505764017220935
8.170844000000002,4.330708046467736,0.04507125496871113
8.175480000000007,4.235534321179838,0.045067811059370674
8.180120000000002,4.143058899234883,0.04506904644400537
8.184747999999999,4.05442558450881,0.045049885012899964
8.189396000000002,3.9666917042303855,0.0450256910057399
8.194035999999997,3.8829221158849903,0.04497194261699963
8.198672000000002,3.7982530930919465,0.04491476976495564
8.203316000000001,3.712195896994672,0.0449011172897702
8.207943999999998,3.6307580578497824,0.04487577564211259
8.212572000000009,3.5484207842572455,0.044848355514449094
8.217208,3.463140837893474,0.04483538808315394
8.221848000000008,3.3842791173773814,0.04482222878906196
8.226484,3.307094081042441,0.044823916001420105
8.231127999999998,3.2317079136027953,0.04482583582614061
8.235759999999999,3.157343365324943,0.04481662829611495
8.240403999999998,3.0827344476187997,0.0448325032399774
8.245044000000007,3.0109460179697454,0.04483900489259447
8.249676000000008,2.9476190524919588,0.044813306109184874
8.254308000000009,2.8881341942330554,0.044765695161683106
8.258955999999998,2.8286493359741516,0.04471991175182342
8.263587999999999,2.7689201082869563,0.04470227790260535
8.268231999999998,2.709190880599761,0.04468177591325987
8.272875999999997,2.6534259448455937,0.044611420881025
8.277507999999997,2.5966393899296336,0.04454925993825546
8.282151999999996,2.5357663583664993,0.044555084420001285
8.286788000000001,2.472072838746276,0.044568445497115985
8.291424000000006,2.408379319126052,0.0445785818024716
8.296064000000001,2.3423540503053215,0.044527000104011144
8.300703999999996,2.2715872398180608,0.04450284469536173
8.305344000000005,2.197222691540209,0.044464021621035875
8.309988000000004,2.121958708814709,0.04441480809630702
8.314616000000001,2.044240792174557,0.04430182152718815
8.319248000000002,1.967544494696198,0.04416482725258303
8.323892,1.885207221103661,0.04406585105856598
8.328536,1.799805090025743,0.04407724588110737
8.333168,1.7155467628237646,0.041832170303809174
8.33780800000001,1.6314106203359315,0.039590502459776175
8.342436000000006,1.5435545553433616,0.03736582641322855
8.34708400000001,1.454799055903144,0.03514509288250359
8.351724000000004,1.3725839670247526,0.032914617633512125
8.35636000000001,1.2915126820223,0.03067082911708733
8.361007999999998,1.2121180812009977,0.02843365221983273
8.36563600000001,1.128759188446667,0.02623736919064727
8.370264000000006,1.0452781109781906,0.024048283669397846
8.374912000000009,0.9670273140328276,0.021806173027900888
8.379552000000004,0.8887765170874645,0.019571810199216878
8.384184000000005,0.8160445115421342,0.017345999901912226
8.38882000000001,0.750385796863841,0.015157161703001479
8.393460000000005,0.6902458735855805,0.012956017777435222
8.39809600000001,0.6355025569932072,0.01077280017730035
8.402740000000009,0.5864002165150124,0.008604512921028823
8.40737200000001,0.5388523755038221,0.0064873920903100145
8.412003999999996,0.49220396894027946,0.004383401419651642
8.416652,0.45377265711971326,0.002244625362020029
8.421284,0.4251909827746453,0.0
8.425936000000007,0.39816380789658157,0.0
8.430576000000002,0.37281331719966787,0.0
8.435208000000003,0.3502833145598434,0.0
8.439864,0.3293078113870234,0.0
8.444491999999997,0.3052674507288228,0.0
8.449123999999998,0.2827815895376265,0.0
8.453760000000003,0.26618107388889994,0.0
8.458388,0.2562431535161454,0.0
8.463024000000004,0.25296782841936283,0.0
8.467668000000003,0.25022538362779106,0.0
8.472296,0.2528795455221065,0.0
8.476932000000005,0.25349046909283485,0.0
8.481580000000008,0.24678373236823475,0.0
8.486224000000007,0.24122079951957381,0.0
