Time,Force,Position
5.925876,1.3634530362011201,0.04684039563707554
5.930424,1.3080987960380188,0.044392877611997804
5.934952,1.2489024486560345,0.04196791467891867
5.939484,1.1906055357216982,0.039542160998077384
5.944008,1.1309204494831309,0.03716411539568302
5.9485280000000005,1.073278601568151,0.03473599621500993
5.95306,1.0175578072626121,0.03230687821342841
5.9576,0.9569732865763972,0.029904377509691608
5.962144,0.8948342664231781,0.027474554600614993
5.966676,0.8344941151652544,0.025043610100253227
5.971204,0.7664697494695655,0.022668831428253707
5.975744,0.703186925440407,0.020235379186106035
5.980268,0.6367170592117223,0.017863169514106454
5.9848040000000005,0.5772763424014465,0.01539252965189323
5.989344,0.5197566792006122,0.012879811770000329
5.993884,0.4657557171951301,0.010359520926088323
5.99842,0.41457524324673733,0.007791655328363978
6.002948,0.364416388460138,0.005178625116038858
6.007488,0.31875470591177807,0.0025445202122723544
6.012012,0.27374808838277453,0.0
6.01654,0.23450463168209523,0.0
6.021064,0.19795947832435942,0.0
6.025604,0.16603368191900852,0.0
6.030132,0.1359067544089533,0.0
6.034688,0.10872249967013303,0.0
6.0392280000000005,0.08513598272190415,0.0
6.043764,0.062326715507177416,0.0
6.048292,0.04515842440662915,0.0
6.052832,0.030566251934878774,0.0
6.057388,0.016873513910776246,0.0
6.061916,0.009721186448500022,0.0
6.066448,0.0043677278815195016,0.0
6.070972,0.002856376533421725,0.0
6.075496,0.0008336174733122464,0.0
6.080028,0.008959246397359264,0.0
6.084552,0.026657234881445342,0.0
6.089084,0.053726361616185714,0.0
6.0936200000000005,0.0891450074397869,0.0
6.0981760000000005,0.1270278268097791,0.0
6.102716,0.17415959971627987,0.010264629332474384
6.107244,0.22964089171164154,0.020100014824209284
6.111772,0.2991126789100424,0.02898011908629581
6.1163,0.3777112349308062,0.037666843943813325
6.120852,0.46555874448807866,0.046168069966181016
6.125384,0.5635546420295076,0.05446450733504458
6.129928,0.6706773083932994,0.06266878541125162
6.134464,0.7864380047228716,0.07089187616208653
6.138988,0.9098151118564305,0.07919649059123728
6.14352,1.043873487279357,0.08738965136583511
6.148064,1.1904119998869462,0.09541784748577417
6.152608,1.3473432699069836,0.10331331398250593
6.15714,1.509759429510164,0.1112035711684875
6.161668,1.6801924558766577,0.11893377278193798
6.166208,1.8508144772613542,0.1267201094475589
6.170744,2.016973228224701,0.13447417945969364
6.175276,2.175603851281317,0.1422397846486404
6.179808,2.3271950852877854,0.14997049323009118
6.18434,2.4695815072063736,0.15780924547515895
6.188872,2.6137565583885185,0.1655439203697446
6.193416,2.748971166911074,0.1630629129665699
6.197948,2.8770242016693364,0.16103331486769015
6.202472,2.9877775143108876,0.1601163391312966
6.207004,3.0898147537211407,0.15942643832393816
6.211528,3.1860785926713313,0.15882773243800435
6.216068,3.2736263583902243,0.15842517098052966
6.2206,3.3529467897344016,0.15808826080458482
6.225156,3.425672429436386,0.15765105216987327
6.229696,3.4929470813721166,0.15703820275695823
6.23422,3.550806453608564,0.1564691773120932
6.238752,3.5976960466787244,0.15597021588715662
6.243296,3.63468162119302,0.15554788230112257
6.247828,3.6640949263519573,0.1551314192253653
6.25236,3.6890449610895444,0.15470772919215692
6.2569040000000005,3.7130072784822277,0.15415401223600872
6.261436,3.7349602593682136,0.15352320668987107
6.26596,3.7538822845857083,0.1528423372378647
6.270492,3.770428419154068,0.15212237224626152
6.275016,3.7889295091487574,0.15117257542451143
6.279548,3.7996581018084257,0.15032197788652527
6.284076,3.808499542675542,0.1493614121018976
6.288632,3.813654962854812,0.1483374228615246
6.293168,3.8215425881939127,0.14705827635219118
6.297696,3.8246003889692273,0.1457573680302817
6.302236,3.8157992157623464,0.14469654941834423
6.30676,3.8033120218676175,0.14356919777287414
6.311288,3.787305133447815,0.1424372597934356
6.31582,3.766634746626999,0.14135474224555958
6.320376,3.73823600391979,0.14043652214048952
6.324916,3.704929393383276,0.1395940068265564
6.329436,3.66749216475096,0.1388126719220611
6.33398,3.626701567756344,0.1380867870706969
6.338504,3.5875876549428773,0.13731711525738605
6.343036,3.537191789901055,0.13690089627924887
6.347564,3.4865515554309408,0.1364952035087743
6.35212,3.4297816059900654,0.13633235266396734
6.35666,3.3709684182256026,0.13625061060446642
6.361184,3.3061477002045243,0.13642444242578755
6.365724,3.235852332232042,0.13686960257531455
6.370248,3.1700982779464266,0.13726347640240863
6.374776,3.105287799557088,0.13771053868705602
6.379308,3.042075962083381,0.1382337751237262
6.383864,2.9803405808111614,0.13881991153668607
6.388404,2.9266220663022544,0.13925928203192187
6.392928,2.8869279488132764,0.13932499640273532
6.397468,2.850142602278644,0.13947493328965077
6.401992,2.8147115272313523,0.13974483381786326
6.40652,2.7833330270143457,0.1400444629270554
6.411052,2.7589497743988587,0.14027162347469063
6.415608,2.7423390191183934,0.1404010692923881
6.420148,2.7283926653639825,0.14066597395521854
6.424672,2.7205421247634427,0.1408721324785077
6.429212,2.7182545170115646,0.1409932541041427
6.4337480000000005,2.7278258832418816,0.1408505384467978
6.438288,2.73875152095954,0.14082210049314542
6.442816,2.7610032523541843,0.14050523860998126
6.447376,2.7915162199404318,0.14003988019449537
6.451908,2.8332330964895194,0.13929336521243113
6.456432,2.885376632267944,0.1382836059255125
6.460964,2.939607547818584,0.13730887044298282
6.4655000000000005,2.9985019617702373,0.13630268580902066
6.470044,3.064469666588928,0.13514788015122825
6.47458,3.130070817265181,0.1340502842488242
6.47912,3.1927292951701993,0.13309641832863994
6.483656,3.2541217844851325,0.1322970508804175
6.48818,3.3203780001807424,0.1313772352944844
6.49272,3.393052441724033,0.13029945461575138
6.497268,3.4678923063050564,0.12916392561593323
6.501812,3.5448975939238117,0.12797261179891337
6.506344,3.619571132342061,0.12684262428968152
6.510872,3.6970210173687716,0.1255579040516371
6.5154,3.7723835226232665,0.12429635204688119
6.51992,3.8427159753343116,0.12315165963101078
6.524452,3.9158247746538177,0.12193911524226289
6.528988,3.988356552219485,0.12063224802140725
6.533548,4.054059408346406,0.11947082338950837
6.538088,4.1121560933010795,0.11843033336658627
6.542616,4.167143779321743,0.1174431104950826
6.547152,4.217467966941395,0.11651440858902061
6.551676,4.2652940791977665,0.11555317654024341
6.556204,4.307024378300266,0.11461218833057016
6.560756,4.340249071782868,0.113787303926313
6.5653,4.375472862140431,0.11285224410108148
6.569832000000001,4.406688219116337,0.11193210775910162
6.57436,4.431196839367644,0.11108712729517099
6.578884,4.450675407075499,0.11030953503891956
6.583416000000001,4.460993304144102,0.10961448843712536
6.587955999999999,4.466525518097547,0.10894678522557931
6.592508,4.4672720489358335,0.10830405257323593
6.597052000000001,4.464909580840111,0.10766748867887678
6.601579999999999,4.458783048791022,0.10702739667083166
6.60612,4.4490587789513425,0.10643497311861623
6.610639999999999,4.438024379072949,0.10581925132173998
6.615163999999999,4.41685183084214,0.10536035531409968
6.619696,4.396700901773123,0.10487512154550246
6.624244,4.375772722970604,0.10438706575605157
6.628787999999999,4.3588088361011135,0.10381486510593169
6.633316,4.339391015316972,0.10325365505896565
6.637848000000001,4.3191959447993264,0.10269008039413244
6.64238,4.297857070405742,0.10215619429945204
6.646904,4.284613106040989,0.10152468576861942
6.651432000000001,4.274189629733325,0.10084647360842046
6.655983999999999,4.2616007303879275,0.10022304718239777
6.66054,4.255796611032648,0.09948334982358184
6.665068000000001,4.253712414182106,0.09869028909728832
6.669595999999999,4.247663925398536,0.09796488095244586
6.674119999999999,4.249710346643796,0.09714907796254964
6.678643999999999,4.253189082641914,0.0963447766319848
6.683176,4.260021187002332,0.09552591890150045
6.687724,4.265709487486812,0.09473191585456717
6.692267999999999,4.272463548581714,0.09398384372405964
6.696796,4.282038097733704,0.09319262928710635
6.701327999999999,4.292800592210263,0.09243601616600255
6.705863999999999,4.303973782277885,0.09170244999990301
6.710387999999999,4.312981549307775,0.09102521038483002
6.714916,4.328407542185347,0.09027922820315877
6.719456,4.342445361758686,0.08959193310574014
6.723999999999999,4.358159865513177,0.08890142793244037
6.728532,4.3735078151252305,0.08824778578954726
6.733059999999999,4.394374556137317,0.08754270006686986
6.7376,4.40551384438805,0.08699176548407211
6.742124,4.41845200153408,0.08643075030331884
6.746652,4.432167408413611,0.08587604723220073
6.751188,4.445638445864852,0.0853547777715208
6.755736,4.457965679440153,0.08486533801505793
6.760264,4.476833323577281,0.08430488062807644
6.764808,4.489038372438436,0.08382937334896585
6.769343999999999,4.503408844337324,0.08331467390789149
6.773867999999999,4.51585826262677,0.08282827231794312
6.778412,4.534848091478043,0.08227912611182063
6.782944,4.557802212262345,0.08168255526123223
6.787472,4.5816557674942935,0.08108502594845746
6.792008,4.607796930478121,0.08044138591146012
6.796551999999999,4.640067808432711,0.07970476728861274
6.801084,4.676958043339684,0.07893799763482554
6.805608,4.708984551865981,0.07824348857343971
6.81014,4.744975352325307,0.07750870578714222
6.814676,4.78186558723228,0.07677914317118964
6.8192200000000005,4.8195330718727565,0.07605807011554905
6.823764,4.850660145951406,0.07540264113835378
6.828288,4.887672565572526,0.07467707922713565
6.832828,4.9225195621559115,0.07399744154928134
6.837352,4.958388177901091,0.07331256508865322
6.841883999999999,4.990170316999097,0.07269003671192538
6.846407999999999,5.022851890544752,0.07206719546822522
6.8509400000000005,5.055900018232844,0.07143257441067835
6.855467999999999,5.095610741196906,0.07074564896323224
6.860024,5.135976529180326,0.07008679518882892
6.86456,5.179162805220834,0.0694156552066905
6.869084,5.219406408490108,0.0687863181125285
6.873615999999999,5.254009035645203,0.06820424970493522
6.878139999999999,5.29053271640974,0.06761638707043667
6.88268,5.328078016336071,0.0670293819286495
6.887212000000001,5.362436274062874,0.06649334816044032
6.891768,5.390376305941998,0.06599187668947443
6.896308,5.418682891963559,0.06546840595505754
6.900844,5.442247936318589,0.06498225560023947
6.905372000000001,5.46209305816888,0.06451789684019646
6.909911999999999,5.48230473416161,0.06403300554935878
6.914456,5.505459082925574,0.06352548936901652
6.918996000000001,5.528080551384328,0.06300337683429127
6.923524,5.551968008433167,0.06245804786355598
6.928064,5.573157162139061,0.06192360339487028
6.932583999999999,5.599698781082217,0.06132850485626581
6.937112,5.626484769453662,0.060722893721130364
6.941636,5.64816266201614,0.060171258368062516
6.946172,5.66534338234038,0.059635462451449406
6.9507,5.6771274959787315,0.05911273193881017
6.955255999999999,5.683637187645341,0.0585945627954842
6.959791999999999,5.685771891787857,0.05807544546944348
6.964315999999999,5.6879065959303725,0.05755352618535872
6.968848,5.682479270349268,0.05706628154277869
6.97338,5.670511534206339,0.056604031490304824
6.977932,5.659276906348283,0.05609510460086871
6.982484,5.651884385709109,0.055563865650973064
6.987024000000001,5.642570811460495,0.05504111207624599
6.991548000000001,5.629781684135436,0.05451006418588553
6.996072000000001,5.614294253467433,0.05397610611841209
7.0006,5.593043661971104,0.053468047624974736
7.005128,5.568850397703542,0.05297660834100846
7.009659999999999,5.538405233751073,0.052541546168684644
7.014188,5.49937642091319,0.0521398727223645
7.018744000000001,5.455606066408777,0.05175199439638646
7.023280000000001,5.400964455267071,0.051431785337495324
7.027804000000001,5.338638629687601,0.05114389608364116
7.032331999999999,5.2743917504986895,0.05086223133462049
7.036855999999999,5.206180579376747,0.050600864332552564
7.041384,5.134660181341136,0.05037975674552184
7.045928000000001,5.060729990839498,0.050197402413412875
7.050484,4.990153168700163,0.050024246322978444
7.055024,4.921253030741976,0.04985466947436988
7.05956,4.85517338084088,0.0496694055548921
7.064092,4.792324914587937,0.04950440027681935
7.068612000000001,4.725556297850593,0.04942492318941585
7.073148000000001,4.651758531694841,0.049399948514262285
7.077675999999999,4.575673157787211,0.04940990958904253
7.082232,4.503840586689529,0.049430863550153956
7.086768,4.43805968729709,0.049465269958272794
7.091296000000001,4.374977091247594,0.04949679648305219
7.095824,4.308707452998574,0.04956824979226714
7.1003560000000006,4.244236683644847,0.04964340276815524
7.104907999999999,4.1887602587676005,0.04971558643656038
7.109436,4.136637202252653,0.049807502573234415
7.1139920000000005,4.093875044356621,0.04986510210837252
7.118524,4.058552731470063,0.049898618251912705
7.123048,4.025029287478802,0.04993201935722247
7.127588,3.9969024501734274,0.049962199330480496
7.132124,3.9753160234298788,0.04997100530889211
7.136672,3.96129162640995,0.049945543110686656
7.141203999999999,3.9481666638376693,0.049919137093402746
7.145732,3.9311995940465065,0.04991453385895769
7.150272,3.9166864581699943,0.0499290939590393
7.154796,3.900252268684042,0.04995515801531124
7.159328,3.8814863299975824,0.04995224951318568
7.163851999999999,3.8686057368535933,0.0499037655428443
7.16838,3.857768382033191,0.04983192677815614
7.1729080000000005,3.8456650386227027,0.04979370182978526
7.177464,3.8291867076881223,0.0497459535770528
7.182,3.814507245648837,0.049696405671097746
7.186524,3.802892641094932,0.04961158267803542
7.191056000000001,3.793687829007052,0.04946760003602945
7.1955800000000005,3.781906898290374,0.04931318052018497
7.2001040000000005,3.769226533126048,0.049157860828864836
7.204636,3.7460414654668672,0.04906314718499401
7.209188,3.7179926714270097,0.049004007455735785
7.213731999999999,3.6891666276536506,0.04893172359581846
7.218255999999999,3.6575200958232026,0.04887112806239447
7.222784,3.6214985764686602,0.048798278134419525
7.227312,3.5780372121046438,0.04874846862641816
7.231856,3.5271360027311536,0.048724519075037276
7.236400000000001,3.476479162785954,0.04867486646276234
7.240956,3.42426782337375,0.04859624785908427
7.245496,3.3687031155992466,0.04849039717586417
7.25002,3.316736145615334,0.04838194265370699
7.254548000000001,3.2579843956413037,0.04832686252117995
7.259075999999999,3.1991104609531287,0.04828254337853766
7.263604,3.1361059081691502,0.048198233389918764
7.268132,3.070280867328084,0.04812372702048418
7.272688,2.9970159814775426,0.04807883990404911
7.277228,2.92183004201756,0.04804517208368711
7.281768,2.8423132564821123,0.04809943315627682
7.286295999999999,2.7535577570418943,0.04819328507431314
7.290847999999999,2.664269377296466,0.048230582777840744
7.295392,2.5762469861411224,0.04823333489964464
7.299924,2.4865479108046284,0.048224920521753756
7.304464,2.3928845435351063,0.04829207352213907
7.308988,2.2926807657037576,0.04844052377315998
7.313528000000001,2.190555934262968,0.048618743272684305
7.318055999999999,2.0845889956032955,0.04891929846157806
7.322591999999999,1.9768231880483271,0.04648989936402966
7.327139999999999,1.8680357613315652,0.04407437052488409
7.331668,1.7505425010152444,0.04168811294911367
7.336196,1.6329270559847777,0.039317583496694966
7.340736000000001,1.5144121765066632,0.036947432506601485
7.345260000000001,1.3997394042474316,0.0345463029784522
7.349787999999999,1.2826126980735477,0.032145144046527324
7.354311999999999,1.1652416224713726,0.02976105656238877
7.35884,1.053511522983376,0.027377661882570993
7.363371999999999,0.9473002148954117,0.02497615564795959
7.367928,0.841664935231565,0.02257456575864388
7.372468,0.740771197234249,0.020131368498385618
7.376988,0.6498934228752051,0.017660275336547848
7.381532000000001,0.5623690168784614,0.015234247238415127
7.386056000000001,0.4811406520152526,0.01280612805774204
7.390588,0.4053088938379308,0.010375940153640347
7.395116000000001,0.3360175462224353,0.007882403288672221
7.399672,0.2750654780640618,0.005307264064442232
7.404208,0.21951001659157535,0.0027150196941184983
7.408732,0.17229383457621097,0.0
7.41326,0.13329474730382293,0.0
7.417788000000001,0.09879283226967416,0.0
7.422312000000001,0.0736518158544409,0.0
7.426844,0.05390740612509476,0.0
7.431392,0.03686129973869217,0.0
7.435939999999999,0.022513496695233136,0.0
7.440460000000001,0.01241849646172201,0.0
7.444992,0.007842287628243669,0.0
7.449516,0.0030217093664739823,0.0
7.45404,0.0,0.0
7.458564,0.0031438940806196524,0.0
7.463092,0.005266168999445782,0.0
7.467628,0.008942943385276273,0.0
7.47216,0.010698664161665388,0.0
7.476688,0.013353819385702357,0.0
7.481216000000001,0.018829462666828545,0.0
7.485740000000001,0.019563564281424143,0.0
7.490264000000001,0.019563564281424143,0.0
7.494788000000001,0.019563564281424143,0.0
7.49932,0.019563564281424143,0.0
7.503868,0.019563564281424143,0.0
