Time,Force,Position
5.060751999999999,0.531245919725813,0.009895676968687367
5.065344,0.4865185667717118,0.00742917454301076
5.069923999999999,0.443345713284615,0.004957702465162063
5.074508,0.4028711631404617,0.002480470199083854
5.079099999999999,0.3614971785486605,0.0
5.083675999999999,0.32257712787151155,0.0
5.088259999999998,0.2862331958231605,0.0
5.092844,0.25001144848895507,0.0
5.097432,0.21340536173987434,0.0
5.102032,0.18321750083847416,0.0
5.10662,0.1547063241182241,0.0
5.111211999999998,0.12968848574685804,0.0
5.115803999999999,0.1076133201467269,0.0
5.120387999999998,0.08768579231189015,0.0
5.124984,0.072499806143584,0.0
5.12956,0.06078937305172359,0.0
5.13416,0.0518994280169524,0.0
5.138736,0.0426429288397442,0.0
5.143339999999999,0.036084733005479555,0.0
5.147927999999999,0.029404352457069235,0.0
5.152524,0.02452284080395462,0.0
5.157107999999999,0.016820841093750784,0.0
5.161703999999999,0.011162079707133987,0.0
5.166288,0.006402752768165039,0.0
5.170888,0.004341729172139646,0.0
5.175479999999999,0.0034245094520534486,0.0
5.180071999999999,0.002507289731967251,0.0
5.184659999999999,0.0014678852977353819,0.0
5.18924,0.0014678852977353819,0.0
5.193827999999998,0.0014678852977353819,0.0
5.198407999999999,0.0028738438744042648,0.0
5.203003999999998,0.0027075177116304408,0.0
5.207579999999998,0.0024190068347109458,0.0
5.212164,0.002419006834710946,0.0
5.216755999999998,0.0028033462495863064,0.0
5.221343999999998,0.0031876856644616667,0.0
5.225935999999999,0.0059037742798435655,0.0
5.230523999999999,0.01177300327786234,0.0
5.235116,0.01699740688826339,0.0
5.239711999999999,0.03098202517859039,0.0
5.244292,0.0516836198252563,0.0
5.248887999999999,0.08241141774193304,0.0
5.253463999999999,0.12292104950032925,0.00904783616492709
5.258063999999999,0.1729240042235254,0.017586779349352114
5.262643999999998,0.22845598997849317,0.026305872440673457
5.267244,0.2917265712515934,0.0350789439400572
5.271835999999999,0.36003744469988247,0.044147672202235325
5.276432,0.4371085328280975,0.05311004085119922
5.28102,0.5190977284173557,0.06234241258917065
5.285615999999999,0.6063715856100942,0.07171257850259771
5.29022,0.6956030922202026,0.08137823437738274
5.294811999999999,0.7949829868144674,0.09079010501778002
5.299411999999999,0.900669162174006,0.10021911305275996
5.304008,1.0148448266089896,0.10957820876094077
5.308584,1.1368634860038127,0.11882855810324844
5.313167999999999,1.2700521525445858,0.127803678176519
5.317755999999999,1.4069268397732067,0.13675019109564382
5.322348,1.547521449506565,0.14553235134146503
5.326935999999998,1.6963670557997885,0.15405372580046797
5.331519999999999,1.8319552751748471,0.1627591787861625
5.336107999999999,1.962336876211943,0.17133232303490495
5.340691999999999,2.0817928395313805,0.17994244327229386
5.345284,2.190689719275596,0.1795230305134962
5.349867999999999,2.2887051027507805,0.1797274911521871
5.354455999999999,2.3855664427182877,0.1795833986510508
5.359048,2.4769767949195405,0.17923986758510768
5.363636,2.5655122779833377,0.17847739105760246
5.368212,2.6446324813478514,0.1778192491970425
5.372807999999999,2.7236983036319993,0.17667378730275718
5.3774,2.80017776765561,0.17529680750810836
5.381995999999999,2.874970307866332,0.17358029096975255
5.386583999999999,2.942068394007549,0.17209096000776655
5.391179999999999,3.004414698850497,0.170558382670746
5.395759999999999,3.060576907642317,0.16903766206222556
5.400364,3.111210085402366,0.16754086770051
5.404943999999999,3.1523499401976145,0.16627989581388716
5.409535999999999,3.1887821551432216,0.1650555316873757
5.414128,3.2257811522109288,0.16375684023127762
5.418716,3.2577500967351867,0.16265977960760206
5.423303999999998,3.3025554929548058,0.16114151020484538
5.427895999999999,3.3474050306230523,0.15973892510444385
5.432483999999999,3.394830686920097,0.15826946982367582
5.437067999999998,3.4447102771317937,0.15675232020918045
5.441655999999998,3.498676343990665,0.1550572397276078
5.446255999999998,3.5519873458301796,0.15343631129397897
5.45084,3.601744751327731,0.1520197626230051
5.455423999999999,3.6488479949309673,0.15077860754827624
5.460016,3.698160803020564,0.14952455077426266
5.464604,3.7424877000153387,0.1485007684435225
5.469187999999999,3.7860373472766113,0.14751739230385094
5.473771999999999,3.8316302328614706,0.1464868661582727
5.478359999999999,3.8773453031604768,0.14545715240711404
5.482951999999999,3.924204177335421,0.1443972538108087
5.487532,3.9711852362245113,0.14334655367458324
5.492115999999999,4.017389045380099,0.142332672724168
5.496723999999999,4.061793985640392,0.1413701706575504
5.501323999999999,4.109996891670939,0.14025384103570926
5.505915999999999,4.149738333530218,0.13940482283976224
5.510503999999999,4.186248591741343,0.13860861755187015
5.515099999999999,4.21376450547599,0.13804316302467043
5.519679999999999,4.237927050848336,0.13752884546705796
5.524279999999999,4.2615567159154715,0.13700349229650682
5.528867999999999,4.287596173448631,0.1363939106208266
5.533467999999999,4.311303881781285,0.13581279586529418
5.538055999999999,4.32961498342805,0.13534703832779515
5.542648,4.3486591933596905,0.13480401643340068
5.547227999999999,4.3721564340809405,0.1341103297538734
5.551819999999999,4.396631152515357,0.13333323211823842
5.556407999999999,4.421716794520501,0.13249863646046942
5.560999999999998,4.445125752344497,0.1316951588405477
5.565583999999999,4.461461419301454,0.1310206216508884
5.570167999999999,4.474155207019193,0.13034968200985436
5.574755999999999,4.483984365231213,0.12968210381534864
5.579351999999998,4.4918483283851645,0.12899906094796867
5.583943999999999,4.496481107890961,0.1283483093496335
5.588531999999999,4.499026507624542,0.12768459880707372
5.593127999999998,4.490289955129766,0.12726269077057623
5.597715999999998,4.479710392291067,0.12680408350157296
5.602307999999999,4.471418437204247,0.12626443072768656
5.606891999999998,4.463615220974009,0.1256753680863119
5.611483999999999,4.459365601085734,0.1249543779920978
5.616076,4.454583100892247,0.12421599169007504
5.620667999999998,4.442605125117579,0.12360266625074956
5.625255999999999,4.4290726498759065,0.12299403741722695
5.629847999999999,4.41819433652855,0.12226987913727823
5.634435999999999,4.41128031511422,0.12145276270629471
5.63904,4.399458425870587,0.12068050008632447
5.643616,4.3836722446939245,0.1199986603532407
5.648216,4.365309944888465,0.11934343889584874
5.652804,4.350256871996676,0.11859017786056571
5.657399999999999,4.340966959933212,0.11771743626972352
5.661987999999999,4.333764427641965,0.11685562769800607
5.666583999999999,4.327994210103574,0.11600105938411892
5.671175999999999,4.322390318727957,0.11519965903920697
5.675768,4.319240361266994,0.11437995422734144
5.680351999999999,4.321487010491917,0.11348299448767388
5.684947999999999,4.336159415821137,0.11235056850265578
5.689535999999999,4.35381863537022,0.11121571447065295
5.694132,4.369190247167424,0.11015755578821576
5.698715999999999,4.38562761957505,0.10914492033176018
5.703303999999999,4.398633580354858,0.1082397570399378
5.707883999999998,4.412416790868168,0.10734069552415129
5.712475999999999,4.432373857800868,0.106369403124893
5.717067999999999,4.458504781152956,0.10534007878933375
5.721655999999999,4.486356530134823,0.10437796735099703
5.726239999999999,4.507056944984135,0.10357365413259753
5.730827999999999,4.528945305158015,0.102802903022149
5.735431999999999,4.552265980084754,0.1020400666264754
5.74002,4.579350718964858,0.10128687325980122
5.744596,4.603248415645434,0.10062400422481618
5.749191999999999,4.62690174289772,0.09999547601277464
5.753772,4.653742112349533,0.09930384367409652
5.758355999999999,4.679316493211261,0.09865790345665836
5.762951999999999,4.707955731558369,0.09796025135852733
5.767548,4.736717154619622,0.09726024932309442
5.772139999999999,4.7645791432332265,0.09658551949201265
5.776727999999999,4.785411982428424,0.09604849803988273
5.781327999999999,4.805345387175974,0.09552017906187413
5.785919999999999,4.828221464694757,0.09495024877716249
5.790515999999998,4.851586281070124,0.09434634071176749
5.795103999999999,4.8805920735596695,0.0936770150127491
5.799703999999998,4.908454062173275,0.09304183826711929
5.804283999999999,4.928754021063262,0.09250191774429
5.808876,4.939570896620186,0.09208552707228547
5.813479999999998,4.944213915757722,0.09171632062610811
5.818071999999999,4.954986649866018,0.09123867077008573
5.822676,4.966781003136108,0.09074596681659504
5.827271999999999,4.9800857144245745,0.0901998786463834
5.831864,4.994001349283769,0.08961197236563614
5.836455999999998,5.006773180267025,0.08905133302191598
5.841035999999999,5.018645576802633,0.0885041922150009
5.845628,5.0255320622434185,0.08803506190093345
5.850216,5.031474971787929,0.08751432509258326
5.854799999999999,5.031654720504115,0.0870661634729137
5.859392,5.031057219486798,0.08661727618546133
5.863971999999999,5.0266176112505985,0.08621525270468246
5.868563999999999,5.020501318833249,0.08581510562039571
5.873151999999999,5.016794818881923,0.0853544508583262
5.877739999999999,5.009246211711714,0.084939501097623
5.882344,4.9987549317702715,0.08456211246034384
5.886932,4.983888664304735,0.08420840260562054
5.891539999999999,4.969144581553345,0.08384454521479554
5.896127999999999,4.9651495707251,0.08334795902228416
5.900732,4.964219417382236,0.08279891243845877
5.905323999999999,4.96839735984834,0.08217005087529167
5.90992,4.97155368315265,0.08156204614377725
5.914523999999998,4.972911137561664,0.08096709016960618
5.919108,4.975168026418325,0.08037139259633774
5.923711999999998,4.974726611932044,0.07979475129304113
5.928308,4.972852882692904,0.07919841682581531
5.932903999999999,4.9693024692726135,0.07860452588790146
5.937491999999999,4.967140229156554,0.0779664748459988
5.942091999999999,4.967065368812709,0.07735804846659243
5.946679999999999,4.970954800401895,0.07670045524303407
5.951275999999998,4.97394479754343,0.0760485090848706
5.955863999999998,4.976035360237318,0.07539640700151763
5.960459999999999,4.980824226274151,0.07472640447634232
5.965055999999999,4.986268157330339,0.0740759853655905
5.969647999999999,4.995432010891264,0.07339891373466884
5.974247999999999,5.006516918061631,0.0727024562694009
5.978831999999999,5.020055759146649,0.07201385037817873
5.983431999999999,5.032817350498165,0.0713222546310098
5.988023999999999,5.039449226878921,0.07072032979417549
5.9926,5.052499329107357,0.07008631824001885
5.997183999999999,5.0669817460886515,0.06947875699869674
6.001767999999998,5.082241412803449,0.06888224301725789
6.006359999999999,5.098278329251748,0.06829148030654066
6.010955999999998,5.112027637948168,0.06774665565613117
6.015535999999999,5.12745363082574,0.06720594413136907
6.020128,5.149952914570348,0.06665181547556077
6.024719999999999,5.174906132229609,0.06610886651207191
6.029299999999999,5.2041121526988166,0.06557454414150246
6.033883999999999,5.2333181731680245,0.06504469566686813
6.038471999999999,5.264323062532529,0.06451788607766608
6.043063999999999,5.301501808316422,0.06398935364242987
6.047655999999998,5.347142018271583,0.06342060614798321
6.052235999999999,5.393803847388538,0.06284636446178606
6.056827999999999,5.439077503201261,0.062313415073882446
6.061416,5.484228974299839,0.06179652370925504
6.066019999999998,5.53040206456021,0.061275767554723644
6.070604,5.572077982582344,0.06076828105878136
6.075203999999999,5.617107268966778,0.06027408253985793
6.079791999999999,5.663402543941293,0.059758995720027394
6.084395999999998,5.705078461963426,0.059271575122469264
6.088979999999999,5.744056076642616,0.05879642676073909
6.093563999999999,5.784055310483598,0.05832065355014544
6.098151999999999,5.8269972170958155,0.05783124085297642
6.102747999999998,5.872226731459911,0.05731446149787233
6.107335999999998,5.9164346266622125,0.05681102979224477
6.111927999999999,5.954102111302689,0.05633776464625445
6.116515999999999,5.990992346209661,0.055863802779603754
6.121111999999998,6.02019836667887,0.055430759296558246
6.125687999999999,6.047605518252783,0.05500202674757516
6.130279999999999,6.0683500745507235,0.05460490537369495
6.134872,6.081899155267481,0.054221037310600115
6.139455999999999,6.087764021546473,0.053877565425336504
6.144048,6.094650506987259,0.053528646054063225
6.148627999999999,6.097406374332243,0.053161536726677644
6.153203999999999,6.097708307762574,0.05278381531893011
6.157787999999998,6.096866437316966,0.052422005049695186
6.162375999999998,6.098845054928447,0.052049764544174065
6.166972,6.096326500301689,0.051681638291454675
6.171567999999999,6.087922600132462,0.05134338707751476
6.176143999999999,6.079152145820798,0.05102630575955499
6.180739999999998,6.070259506794987,0.05071610192461532
6.185331999999999,6.055481522226707,0.05043667807463451
6.189935999999999,6.033019323220661,0.05018748161642657
6.194524,6.0046717786721455,0.04996661329103054
6.199119999999999,5.975546984390127,0.04973716175970819
6.203707999999999,5.946544374822255,0.049498343876875704
6.208311999999999,5.912678038873707,0.049280082520462835
6.212899999999999,5.885596482915276,0.04903080269402206
6.217499999999999,5.8592921766903485,0.04878730084670611
6.222083999999999,5.836463423541866,0.04854860631713744
6.226675999999999,5.8103254434797105,0.04834390386074055
6.231264,5.784065278703411,0.04814496911879682
6.235859999999999,5.756783494765317,0.04795224820275508
6.240455999999998,5.732855079189523,0.04777159226498851
6.245051999999999,5.7047180022524095,0.047625121736496315
6.249639999999999,5.674537686991709,0.04749219455630136
6.254231999999998,5.640393079797979,0.04737928069817593
6.258823999999999,5.603838680138225,0.04730302740484862
6.263411999999999,5.570882018269065,0.047226205187093806
6.267995999999998,5.533428184161664,0.0471484969955671
6.272595999999998,5.490988438959441,0.04710067642927125
6.277187999999999,5.445728205700129,0.047060436222454684
6.281775999999999,5.404065710231409,0.04701990314986898
6.286368,5.362936095067899,0.04700350995327656
6.290944,5.321562110476099,0.047000588217231645
6.295539999999999,5.278922137294212,0.04702114621000842
6.300135999999998,5.237303783274119,0.04703314039926021
6.304723999999998,5.186446715349258,0.04705747933610808
6.309327999999999,5.131092475186156,0.04707938758466839
6.313915999999999,5.074305920270196,0.047073063116099115
6.318515999999999,5.015842681173084,0.04706025213485878
6.323108,4.953781704285382,0.047046216266245174
6.327696,4.881993274636328,0.04708289648756672
6.332299999999998,4.80444168415895,0.04714724971609181
6.336891999999999,4.729832766452806,0.04719447156930972
6.341484,4.651503926241926,0.0472524037938602
6.346072,4.576895008535783,0.04730038932296271
6.350671999999999,4.5048180680098096,0.04729228766765791
6.35526,4.431308812730977,0.04725017549963799
6.359863999999998,4.35600068855685,0.04720573205722264
6.364451999999998,4.279138064915716,0.04714219358206433
6.369051999999998,4.205095929331673,0.047069408501488566
6.373643999999999,4.129377109566479,0.04698286972741235
6.378235999999999,4.052225975048427,0.046863730519026404
6.382823999999999,3.9712327333114925,0.046762551470026816
6.387419999999999,3.8895844265552006,0.046636870888159855
6.392015999999998,3.804871262313529,0.04654266318196888
6.396615999999998,3.723633651148303,0.04645601808483069
6.401207999999999,3.644072724164227,0.04637706952546816
6.405799999999999,3.561202570266479,0.04635194264548856
6.410391999999998,3.4848728269305576,0.04630452990561802
6.414975999999999,3.412263006099373,0.046242411608730695
6.419563999999999,3.3434952924870704,0.04616333220456317
6.424155999999998,3.277670251646004,0.04606183168564324
6.428751999999999,3.2090247227478477,0.045967036458853146
6.433343999999998,3.1423002474591333,0.04585856288249117
6.437935999999999,3.067236492713296,0.04577032702338917
6.442516,2.9891078804820785,0.04571076575770751
6.447111999999999,2.905748987727748,0.0457370247477503
6.451699999999999,2.826110017478154,0.0457442459485588
6.456283999999998,2.7501909697332976,0.04573150436288406
6.460875999999999,2.6705519994837044,0.045735128920361585
6.465468,2.5879703564628755,0.045770451433929285
6.470051999999999,2.505921593747258,0.04586800477176388
6.474647999999998,2.421052342974551,0.04600819070977164
6.479235999999998,2.334139853878257,0.046195567825692764
6.483832,2.2504144069814895,0.046300674132666975
6.488415999999999,2.1629690375799853,0.04644086676239422
6.493015999999999,2.0734804298548934,0.046658859815712314
6.497599999999999,1.983336757110445,0.04686166729944289
6.502199999999998,1.8895953465754052,0.04704344289497553
6.506787999999999,1.7912345790879804,0.04725261865823295
6.511387999999998,1.6959386690859362,0.0449665857269264
6.515979999999999,1.6007649437980378,0.04268285122843693
6.520572,1.506490652957787,0.04040316248810108
6.525151999999999,1.4151590348887715,0.038126920653908034
6.529743999999999,1.3311450771150846,0.03584136508376826
6.534336,1.2461095001796036,0.033560371985088114
6.538927999999999,1.162217727120062,0.031227742689395478
6.543515999999999,1.0800026382416705,0.028917368431104467
6.548107999999999,0.9984426143826354,0.02663040560479801
6.552695999999999,0.9198252632948354,0.02432863174557377
6.557288,0.8451722041400636,0.02200901662242589
6.561883999999999,0.7730511221654618,0.01964285751396132
6.566476,0.7065710163050383,0.017224797675643146
6.571067999999999,0.6448324521111454,0.01477552635547234
6.575655999999999,0.5827273337748154,0.012386031298510751
6.580247999999999,0.5270404412861662,0.009963526489276626
6.584827999999998,0.47454059099704327,0.007465374429627676
6.589415999999998,0.42551629378436595,0.004956818977312901
6.594007999999999,0.3775841133583001,0.0024839879186916137
6.598595999999999,0.33594797406576926,0.0
6.603191999999998,0.2958663342402428,0.0
6.607787999999999,0.25836081304351416,0.0
6.612383999999999,0.22445302963737698,0.0
6.616987999999999,0.19120031125059628,0.0
6.621571999999999,0.15884702731146347,0.0
6.626167999999998,0.13201253477236338,0.0
6.630747999999999,0.11159626808094394,0.0
6.635347999999999,0.09207943583717237,0.0
6.639935999999999,0.07448365720284217,0.0
6.644535999999999,0.06148087934470707,0.0
6.649119999999998,0.04891515325382695,0.0
6.653719999999998,0.03765955720165985,0.0
6.658303999999999,0.02820283004478846,0.0
6.662895999999998,0.019523352621419247,0.0
6.667503999999999,0.01366436325513926,0.0
6.672099999999999,0.008800636874462989,0.0
6.676687999999999,0.004591975513143225,0.0
6.681287999999999,0.004225421370706211,0.0
6.685879999999999,0.007508292108188316,0.0
6.690472,0.012956585883403138,0.0
6.69506,0.016483826049176586,0.0
6.699643999999999,0.020910500662597885,0.0
6.704231999999999,0.025337175276019183,0.0
6.708827999999999,0.027720611565853436,0.0
6.713411999999998,0.02920461340803984,0.0
6.717999999999998,0.03248748414552194,0.0
