Time,Force,Position
4.501752,0.7533973653992674,0.022561441377418875
4.506343999999999,0.6974661034823266,0.01992392902787668
4.510931999999999,0.6457435029267059,0.017175788633319967
4.515523999999999,0.5997840631994095,0.014321073073760066
4.520116,0.5506375812725864,0.011525154365290023
4.524704,0.5040672179745613,0.00869657594729822
4.529299999999999,0.460072973305334,0.005829480432245491
4.533887999999999,0.42159752003613965,0.002905946463007633
4.538483999999999,0.3865976198433909,0.0
4.543075999999999,0.3564614460313185,0.0
4.547663999999999,0.3233825994480112,0.0
4.552259999999999,0.2909588178840604,0.0
4.556847999999999,0.2639316430059967,0.0
4.561451999999999,0.2371929790048525,0.0
4.566044,0.2171169102796803,0.0
4.570632,0.1971803261722256,0.0
4.575223999999999,0.17687718792233387,0.0
4.57982,0.15747348412008996,0.0
4.584415999999999,0.14166751810843747,0.0
4.589003999999999,0.1257393673826393,0.0
4.593591999999999,0.10674635917146058,0.0
4.598167999999999,0.09057383901737107,0.0
4.602767999999999,0.07505638388263808,0.0
4.607363999999999,0.06031617848140728,0.0
4.611955999999999,0.05031751474670707,0.0
4.616551999999999,0.042239904621448235,0.0
4.621143999999999,0.03786491709735466,0.0
4.625731999999999,0.033245560144969724,0.0
4.630331999999999,0.02606738446735874,0.0
4.634919999999999,0.017623220199662892,0.0
4.639515999999999,0.013021163150849793,0.0
4.644095999999999,0.011239594159125918,0.0
4.648679999999999,0.006515352396167144,0.0
4.65326,0.004978152832734611,0.0
4.657855999999999,0.0034409532693020785,0.0
4.662448,0.0034409532693020785,0.0
4.667036,0.0034409532693020785,0.0
4.671627999999998,0.0034409532693020785,0.0
4.676215999999998,0.0034409532693020785,0.0
4.680807999999999,0.0034409532693020785,0.0
4.685403999999998,0.0034409532693020785,0.0
4.689991999999998,0.004353806708594449,0.0
4.694599999999999,0.013127440380164935,0.0
4.699188,0.03372614621704194,0.0
4.703783999999999,0.06512830505743195,0.0
4.708376,0.10745610161548062,0.010123269025074553
4.712975999999999,0.1589279668994641,0.01948714520989646
4.717579999999998,0.21940441629166485,0.02863010626620756
4.722167999999998,0.28940103019372193,0.037733324822628804
4.726763999999999,0.3728994004422356,0.046303917794691604
4.731343999999998,0.46797847342776433,0.05462910258541743
4.735939999999999,0.5718177610932191,0.06293807337152718
4.740531999999998,0.6872377514956892,0.07107113517039085
4.745131999999998,0.8142384446351744,0.07906036890439878
4.749719999999998,0.9510209716163788,0.08700175569207814
4.754319999999998,1.0974631477251573,0.09492056383128145
4.758903999999999,1.2561410915903073,0.1027434860779857
4.763499999999999,1.4235792501353832,0.11058263089334083
4.768091999999999,1.5996112971976113,0.11837020187999339
4.772687999999999,1.7845596454708006,0.1259885247726545
4.777284,1.9760925457544443,0.1334820551450538
4.781884,2.1694108959417395,0.14090481185615286
4.786475999999999,2.356789519506197,0.14826769798420883
4.791067999999999,2.52837877897232,0.15576564416020192
4.795651999999999,2.6881429662731375,0.16330178780285473
4.800235999999998,2.8378809503039433,0.1606906056677474
4.804815999999999,2.9756716774552965,0.1588771138874721
4.809403999999999,3.1054794396602263,0.15726039843809006
4.813987999999998,3.2257497374517285,0.155717607720359
4.818563999999999,3.3319853985915624,0.15468884590370502
4.823143999999999,3.423164803917936,0.1539902189821107
4.827739999999999,3.506849983154468,0.15323903218288987
4.832327999999999,3.574457287415746,0.1527905098655692
4.836911999999998,3.6270083358635627,0.15257646947693418
4.841503999999999,3.669366854878595,0.1523758684984873
4.846091999999999,3.700633410013195,0.15220556794284018
4.850695999999999,3.7188428062092926,0.1520613375230988
4.855288,3.7290250960103384,0.15180839411543146
4.859891999999999,3.7293033672555196,0.15159808621950485
4.864467999999999,3.71755633835573,0.15160164096567977
4.869067999999999,3.6970151929591264,0.1517485178629049
4.873643999999999,3.672587798895011,0.15194120870688013
4.878247999999999,3.6441519714492396,0.1521962976278463
4.88284,3.619636294487868,0.15223032415724824
4.88744,3.593932672201929,0.15224410145188605
4.892028,3.5612779437630984,0.15245121798842834
4.896619999999999,3.527190900571409,0.15267654559587346
4.901211999999999,3.4901170431598576,0.1529309092459005
4.905804,3.4553307935001834,0.15306263965233968
4.910404,3.418745674945214,0.15325255814704755
4.914995999999999,3.388945336380362,0.15317807366619562
4.919583999999999,3.3564466944725675,0.15317947111641284
4.924175999999999,3.3355965589355656,0.15273623597372804
4.928763999999999,3.319610149779241,0.15211006794717646
4.933359999999999,3.306199859251713,0.1514183590420935
4.937943999999998,3.2963873065147773,0.1506215580960305
4.942535999999999,3.289195013855268,0.14984631202598983
4.947115999999999,3.281025243482593,0.14919475493323983
4.951703999999999,3.27416560314863,0.14855213615745158
4.956295999999998,3.2750343187010618,0.1477325166406194
4.960883999999998,3.281055271511089,0.1467975208820331
4.965468,3.2881419849315376,0.14590229123690332
4.970075999999999,3.300136566181291,0.14492506905839464
4.974663999999999,3.31475140750847,0.14398538617676487
4.979263999999999,3.3334968669314513,0.142972663164422
4.983855999999999,3.3657338430691506,0.141608171781362
4.988459999999998,3.4072095331116206,0.1400097311094961
4.993051999999999,3.451549852659807,0.13840215805794254
4.997651999999999,3.4979775519802088,0.13683260046653295
5.002255999999999,3.5494353038440605,0.13517434618223445
5.006851999999999,3.6002821321371843,0.13364794119109116
5.011448,3.655381763240256,0.13205578806913695
5.016027999999999,3.701286821887186,0.13083666385198892
5.020624,3.748502010572829,0.12966343721475443
5.025203999999999,3.7925301570589456,0.12861755718617676
5.029803999999999,3.833615630773827,0.12767243710988188
5.034391999999999,3.875844908364648,0.12670573373840324
5.038991999999999,3.918562924812052,0.12568402818382143
5.043583999999999,3.966266852354277,0.12454309100033645
5.048179999999999,4.00677530431532,0.12356554078472524
5.052764,4.045362702666921,0.1226588972213421
5.057359999999999,4.085460459036899,0.1216771160830134
5.061964,4.12208266233043,0.12076556254576125
5.066555999999999,4.161114658089986,0.11978962329515579
5.071147999999999,4.200513207991978,0.11879842170183498
5.07574,4.229895794255699,0.11801691474109492
5.080328,4.249140232167003,0.11744251732207495
5.084911999999999,4.268995593649033,0.11681383725230757
5.089499999999999,4.2866413906447045,0.11619046039064976
5.094095999999999,4.299257135096925,0.11562056224907016
5.098679999999998,4.305166142824545,0.11511759212398445
5.103259999999999,4.30592291329457,0.11467802656051686
5.10784,4.30765716147776,0.11413934933515316
5.112423999999999,4.306526780155233,0.11358960252520954
5.1170079999999984,4.307273310993519,0.11293056151531687
5.121611999999999,4.3083863959742414,0.11223404039714194
5.126195999999998,4.3042250589832225,0.11160981306160024
5.130795999999998,4.302473514458227,0.11090301309522971
5.135387999999999,4.289684387133168,0.11037808596189524
5.139975999999999,4.280859551741136,0.10976210836377484
5.144575999999999,4.269825151862744,0.10913723128807239
5.149168,4.256991883089056,0.10853726061264346
5.153763999999999,4.243503549296012,0.10792294891968515
5.158339999999999,4.220654316884051,0.10747080740051593
5.162939999999999,4.194085161967354,0.10707725464037193
5.167527999999999,4.17160248369783,0.10658284184466825
5.172127999999999,4.152839727933045,0.10602225663102544
5.17672,4.133177537720611,0.10547172652809304
5.181311999999998,4.1123715436322374,0.10495381980700948
5.185903999999999,4.097084340943897,0.10434932736991918
5.190496,4.085927756351358,0.10371386394766204
5.195091999999999,4.080289963158854,0.10299421021077189
5.199684,4.076861734452709,0.10228488540053199
5.204267999999999,4.076664689394718,0.10156827994130985
5.208867999999999,4.075490166623563,0.10094491728447459
5.213443999999999,4.077791196928854,0.10029258055283655
5.218027999999999,4.083689965024735,0.09959502436195326
5.222607999999999,4.088200559816386,0.09896157842902129
5.227187999999998,4.103504367979811,0.09819951803449294
5.231779999999999,4.117542187553151,0.09748681326105356
5.236355999999999,4.134811190774646,0.09677076408430278
5.240948,4.156332996806089,0.09603654100708862
5.245531999999999,4.1810859864856855,0.0952997756519536
5.250119999999999,4.212501571441255,0.09445757789431132
5.254712,4.2463710903114755,0.09360957372877604
5.2593,4.278852435877467,0.09282515394391644
5.263888,4.310067792853372,0.09208464537549274
5.268483999999999,4.3438592684580755,0.0913406668403799
5.273071999999999,4.381370666567517,0.09055861200926937
5.277671999999999,4.416961011067516,0.08982274020783845
5.282259999999999,4.4554940283387525,0.08905016704039147
5.2868559999999984,4.4890411345151655,0.08836994378598095
5.291447999999999,4.524387109586873,0.08768499364892995
5.296047999999999,4.556013162153843,0.08705200467523559
5.300631999999999,4.5881279535773976,0.08637911722293325
5.305231999999998,4.617422256943861,0.0857503079269726
5.309811999999999,4.647615994757973,0.08512404721581256
5.314395999999999,4.674744875086705,0.08455186613757788
5.31898,4.69762095260549,0.08400791503927027
5.32358,4.721763018714358,0.0834314393822625
5.328171999999999,4.742307347032636,0.082885629324203
5.332768,4.759498306988612,0.08235590282436309
5.337356,4.777955255534674,0.08179916201098658
5.341947999999999,4.792447912147709,0.08129972648551796
5.346523999999999,4.809228176512621,0.08075659420040446
5.351115999999999,4.8253533758581755,0.08020106149310967
5.355699999999999,4.845687236565052,0.07957863800447962
5.36028,4.864100043662485,0.07898569035600467
5.364871999999998,4.882635035474065,0.0783947375196171
5.369456,4.9010478425715,0.07781805465195457
5.374044,4.914719108002403,0.07728954240819282
5.378635999999998,4.934397903689921,0.07668828955075944
5.383223999999999,4.951500580748642,0.07609954026679337
5.387815999999999,4.967703823359716,0.07551394672737441
5.392411999999998,4.985050869846728,0.07491009625416037
5.397008,5.00239791633374,0.07430808690526762
5.401611999999998,5.017946093925456,0.07372064156699434
5.406208,5.038602367326141,0.07306892526459079
5.410803999999999,5.059913705746181,0.07243497092900669
5.415387999999998,5.080980674737931,0.0718244263981402
5.419991999999999,5.103724327910831,0.07121308651275862
5.424579999999999,5.127000861388941,0.07062793678192603
5.429179999999999,5.146435287648169,0.07008235218976627
5.433763999999998,5.169834005840425,0.06949681933889161
5.438367999999999,5.189390616813798,0.06895073137039984
5.442955999999999,5.210379542540029,0.0684243730486052
5.447555999999999,5.230224664390322,0.06792775321385439
5.452143999999999,5.246472048450023,0.06744514245526892
5.456739999999998,5.256056837233752,0.06701339707236191
5.461331999999999,5.265641626017482,0.06658429699629774
5.465923999999999,5.281111760343682,0.06610496749596045
5.470507999999999,5.294538656346294,0.06565672514118089
5.475095999999999,5.307598998206469,0.06523433702426205
5.479676,5.325156512304884,0.0647990630309948
5.484271999999999,5.3442685258703015,0.06438076361456348
5.488859999999999,5.364279973883368,0.06396204004027548
5.493447999999999,5.384169237182289,0.06355345333559938
5.498031999999999,5.402015262157623,0.06317226565355964
5.502619999999999,5.4210050910088965,0.0627768626542243
5.5072199999999984,5.44305977734555,0.06235697857791016
5.511795999999999,5.467279886719935,0.061912599776654254
5.516375999999999,5.485981204694288,0.061486765253618535
5.52098,5.5046825226686416,0.06106084214874209
5.525568,5.526082143985939,0.06063694965773325
5.530175999999999,5.550057883932034,0.060217601932164994
5.534768,5.575543981896506,0.05976209607475425
5.539359999999999,5.597187972642093,0.05933122167914242
5.543951999999999,5.622551885892419,0.0588858582918716
5.548551999999999,5.651880091075773,0.05840916732163404
5.553156,5.680431046525624,0.05792986421342257
5.557751999999999,5.705017710042448,0.057486737196180665
5.562344,5.725884451054534,0.05705944695493151
5.56692,5.746584865903847,0.05658938204314229
5.57152,5.7648313468385055,0.05611290515477416
5.576108,5.7753936133354005,0.055676401126158966
5.580703999999999,5.784279195651146,0.055236012033660895
5.585296,5.7903442899098,0.05480533228900718
5.589887999999998,5.793466711397221,0.054393296092529325
5.594472,5.791847591218111,0.05400193797510292
5.599067999999999,5.783565875763029,0.0536411132114327
5.603663999999998,5.774384725860299,0.0532825744714955
5.608255999999999,5.771988355947688,0.052886376957653775
5.612839999999999,5.769591986035076,0.052489142282880596
5.617424,5.7568130983417545,0.05212967727014968
5.622012,5.737493800086607,0.05178839491724644
5.626607999999999,5.714210209898431,0.05147084430415373
5.631183999999999,5.68912775081496,0.05115109017071023
5.635783999999999,5.661224803674398,0.050838689475055904
5.640371999999999,5.632055867943752,0.05054748111419639
5.644951999999998,5.599822074727725,0.05027809795069901
5.649543999999999,5.564889978168756,0.0500071230719038
5.654131999999999,5.5249719705149625,0.04976543207764288
5.658712,5.481500366519208,0.04957506708778274
5.663303999999998,5.433042851428631,0.04941395684829803
5.667891999999998,5.389449062718731,0.04922559480483649
5.672479999999998,5.344833654847036,0.049041495674774505
5.677071999999999,5.302139300584783,0.0488459164236012
5.681655999999999,5.2602221960560325,0.048656630489581215
5.686252,5.217938537384846,0.04848923548785172
5.690828,5.173367270961779,0.04835297613682991
5.695423999999999,5.12188903983445,0.0482562219707832
5.700011999999999,5.0662021473458,0.04819915361589938
5.704616,5.011414689304798,0.04813832938442037
5.709204,4.9594477193208855,0.04806705023329325
5.713804,4.9113228565558575,0.047976112994534914
5.718387999999999,4.8593558865719455,0.04789946506339596
5.72298,4.809187785483328,0.04782019505783134
5.727568,4.756609891928687,0.04778516153117569
5.732156,4.698146652831578,0.04778788920251571
5.736747999999999,4.637884544839172,0.047790793148828295
5.741339999999999,4.576234263542534,0.04783115701588131
5.745927999999999,4.519692078054866,0.04782339269987899
5.750515999999999,4.465193130890785,0.047796343230493234
5.755099999999999,4.4123708679078515,0.04777973925834733
5.759691999999999,4.3567281168678305,0.047769219976443206
5.764275999999999,4.29994156195187,0.04777576666552959
5.768863999999999,4.238169095941088,0.04782247025420006
5.773447999999998,4.170877838530274,0.04788180830925966
5.778032,4.101909896938308,0.047933477061084445
5.78262,4.032286890326986,0.04796866112358222
5.78722,3.9666281756486925,0.04796945456523549
5.791803999999999,3.892097301208067,0.04796119758605222
5.796415999999999,3.809882212329676,0.048000453879207254
5.800999999999998,3.7258682545559885,0.048035211252703276
5.805587999999998,3.635968951239831,0.04812087477011526
5.810184,3.547746332104825,0.0482249298588164
5.814775999999998,3.4555594210367895,0.048375611887246
5.819379999999999,3.363083999091835,0.048466528880284666
5.823963999999998,3.2764939226893497,0.04851050589078851
5.82856,3.1928465190581,0.04851945553969849
5.833139999999998,3.1087884198357845,0.04847097559602089
5.837739999999998,3.020643843966295,0.04847284590849548
5.842327999999998,2.926736107268481,0.0485273175575219
5.846927999999998,2.8311516863895174,0.04857315303102812
5.851519999999999,2.731969527719962,0.04861007797946525
5.856112,2.627146392936228,0.048701240321321525
5.8607,2.526165365371378,0.048771390880526476
5.865291999999998,2.4271053914159686,0.04883405026067174
5.869888,2.326124363851118,0.0489346422108873
5.874479999999998,2.227841639629211,0.049039544074563166
5.879059999999999,2.1253502540459834,0.04928624811215505
5.883643999999999,2.036594754605766,0.04945524689029065
5.888231999999999,1.9498824934891357,0.04961116189542399
5.892831999999999,1.865624166287157,0.04982468186765373
5.897419999999999,1.7872511846276482,0.04993336710432836
5.902007999999999,1.7101441915582245,0.04995298277731511
5.906599999999999,1.6334037526312377,0.04990175080119701
5.911179999999998,1.558339997885401,0.049838359773197866
5.915775999999999,1.4796785053489727,0.049741808394999434
5.920359999999999,1.3941100481082809,0.04732119102949507
5.924947999999999,1.3109955247822414,0.04493658906390932
5.929551999999999,1.2316009239609393,0.04253337375477645
5.934139999999999,1.156825680092022,0.04008829092861446
5.938747999999999,1.0829498706707525,0.03764105664906651
5.943327999999999,1.0124274296117828,0.035213761187714
5.947915999999999,0.9465243455051984,0.032732353887087486
5.952507999999998,0.8770235236080225,0.03024909263012987
5.957103999999999,0.811120439501438,0.027760809527047355
5.961695999999998,0.7526572004043277,0.02523389077379999
5.966283999999998,0.6941939613072174,0.022701767691673973
5.970883999999998,0.636996710800192,0.020053250167907908
5.975467999999999,0.574158484178988,0.017482241972416636
5.980075999999999,0.516716864243671,0.014895255805625137
5.984663999999999,0.4605585328020109,0.012264572194761304
5.98926,0.4050552663797073,0.009706571605562143
5.993843999999999,0.35200593387205587,0.00722012377245995
5.998439999999999,0.304231023336146,0.004767835439109928
6.003023999999998,0.2590322314290339,0.0023588179931216414
6.007619999999999,0.21820842704601545,0.0
6.012203999999999,0.18584608683426462,0.0
6.016795999999999,0.15528261551780947,0.0
6.021383999999999,0.12651801309665006,0.0
6.025979999999999,0.10057389873257988,0.0
6.030563999999998,0.07822752215910109,0.0
6.035163999999998,0.05870163364271151,0.0
6.039755999999999,0.04289566763105904,0.0
6.044331999999999,0.032486308305293664,0.0
6.048927999999998,0.022976383427176138,0.0
6.053515999999998,0.012444839387265089,0.0
6.058107999999999,0.004611598690297597,0.0
6.062695999999999,0.002157664775645385,0.0
6.067283999999999,0.0015198996598607042,0.0
6.071888,0.0008821345440760234,0.0
6.076471999999999,0.0008821345440760235,0.0
6.081059999999999,0.0015198996598607042,0.0
6.085643999999999,0.004078718385086759,0.0
6.090231999999999,0.00407871838508676,0.0
6.094835999999999,0.00407871838508676,0.0
6.099411999999999,0.00407871838508676,0.0
6.104011999999999,0.00407871838508676,0.0
6.108587999999999,0.00407871838508676,0.0
6.113195999999999,0.00407871838508676,0.0
6.117783999999999,0.004183603195660603,0.0
6.122383999999999,0.004288488006234447,0.0
6.126968,0.004288488006234447,0.0
6.131563999999999,0.004288488006234447,0.0
6.136156,0.004288488006234447,0.0
6.140747999999999,0.004288488006234447,0.0
6.145347999999999,0.004288488006234447,0.0
6.149947999999998,0.004288488006234447,0.0
6.154535999999999,0.0034063534621584244,0.0
6.159132,0.0034063534621584244,0.0
6.16372,0.0034063534621584244,0.0
6.168311999999999,0.0034063534621584244,0.0
