Time,Force,Position
5.6397200000000005,0.6698298300426941,0.016205026708438278
5.64432,0.614719959307884,0.013934887716602536
5.648904,0.5661504991349,0.011603378252733804
5.6534960000000005,0.5156599853524747,0.009275265118257162
5.658100000000001,0.4669683404653451,0.006910526410453027
5.662692,0.4169067203469366,0.004587511238072615
5.667288000000001,0.36864396912382386,0.0022673300667157203
5.671884,0.32385677097715687,0.0
5.676476000000001,0.28458836423052264,0.0
5.68106,0.24597502250324493,0.0
5.685644,0.21108160328070427,0.0
5.6902360000000005,0.17876430268696153,0.0
5.694815999999999,0.15016692459795583,0.0
5.699404,0.12439003456603938,0.0
5.703988000000001,0.10028982871527295,0.0
5.708576000000001,0.07888792620745011,0.0
5.713168,0.06132813091850999,0.0
5.717756,0.04364615091542421,0.0
5.722336,0.03340401592181258,0.0
5.726928000000001,0.025860184271144497,0.0
5.731503999999999,0.019093602353978598,0.0
5.736084,0.012204835722667031,0.0
5.740684,0.004416634643707611,0.0
5.7452760000000005,0.001247790517133118,0.0
5.749872,0.0,0.0
5.754448,0.0,0.0
5.759048,0.0,0.0
5.763631999999999,0.0,0.0
5.768231999999999,0.0,0.0
5.772816000000001,0.001991138433745929,0.0
5.777407999999999,0.007956808432259063,0.0
5.781996,0.020228759196045935,0.0
5.786588,0.04203817437326095,0.0
5.791188,0.07134181564031705,0.0
5.795780000000001,0.10826186771135991,0.0
5.800364,0.1524317764439525,0.010178591301034243
5.80496,0.20613914958997326,0.019949908988877045
5.809548,0.2672185641116894,0.029790868147393075
5.814136,0.34233261528507297,0.03893793597898586
5.818724,0.42571814228179977,0.048118417958494655
5.8233,0.5190518292830198,0.0572263912026182
5.827892,0.622455861002879,0.0662477252033044
5.832472000000001,0.7349086182795835,0.07527592459631569
5.837064,0.8603743930461621,0.08405027950813296
5.841647999999999,0.9941116436360837,0.09286852004053989
5.8462320000000005,1.1408619117158794,0.10148835142140647
5.850816,1.298948513104399,0.10999307280168373
5.8554,1.4662060247639095,0.11851338545965057
5.859988,1.64631022775052,0.12682948761407037
5.864592,1.83236211580118,0.13507386474150873
5.869184000000001,2.017959166812147,0.14329824713771205
5.873787999999999,2.2004811207059944,0.15145823378950898
5.878364,2.374365044634062,0.15959174235626208
5.882960000000001,2.5418985463482273,0.1676706627697635
5.88754,2.705002679457932,0.17561723045274397
5.892144,2.863266748372111,0.17326747429258596
5.896736000000001,3.015302579786534,0.17118679475552473
5.901328,3.1614767278436378,0.1689474190997405
5.905912000000001,3.2905072403150655,0.1674401572471071
5.910508,3.4130210044098175,0.1657836640482477
5.915104,3.5248874020320904,0.16412534691309455
5.919696,3.622019956534712,0.16260850117517978
5.924284,3.7085051445648562,0.16103113161217233
5.928876000000001,3.781400293351287,0.15961679018519426
5.93346,3.8434037062369493,0.1581394332024608
5.938048,3.8925943296124004,0.1567593020293807
5.942632,3.9241084370969643,0.15557887983101004
5.947228000000001,3.9432984939279008,0.15434268165839118
5.951808,3.945589284601452,0.1532930112031226
5.956396,3.9373209916997824,0.15229287291859211
5.960979999999999,3.923157113623904,0.1512596412958528
5.96556,3.8995440540318533,0.15036706249886123
5.970136,3.8688135621241373,0.14958296763383766
5.974728000000001,3.835584994853141,0.14875372162313344
5.979308,3.795649690857545,0.14805888467181452
5.983896,3.7488854654232027,0.14751197945790506
5.988488,3.6950479491218235,0.1471415965385182
5.993080000000001,3.6377348797439986,0.14684101721422838
5.997676,3.580543995080318,0.14653063611059453
6.002256000000001,3.5213098720930516,0.14627441998193028
6.006844000000001,3.461997705840268,0.1461041294882749
6.011428,3.406693972969141,0.14587219738878482
6.016019999999999,3.353233250441937,0.1456569638736148
6.020612,3.298428496059132,0.14561184810122227
6.025204,3.250330478400926,0.14539309778796178
6.029804,3.2002333638677607,0.1453337863534592
6.034396000000001,3.1621174080309378,0.1449841965125438
6.038992,3.1305079609390516,0.14460272906868124
6.043584000000001,3.106060087611459,0.14420330008900378
6.048172000000001,3.086564223561798,0.1438002381976056
6.0527560000000005,3.073574868257075,0.14337685067029643
6.0573440000000005,3.0736324322591146,0.1427396505950468
6.06194,3.084038612224974,0.1419565880341943
6.066523999999999,3.097519889307953,0.14132731824854777
6.071108000000001,3.118407109583517,0.14066316717411675
6.075704,3.1493985763946095,0.13989730990840435
6.080292,3.187140921378929,0.13908346690932227
6.084884000000001,3.23073471008883,0.1382604689853527
6.089464,3.2813237464002505,0.13736866181350854
6.09404,3.333389238913158,0.13656702336487525
6.098652,3.3886859150742197,0.1357249901667603
6.103236000000001,3.4496677087980885,0.13482171134963808
6.107828,3.5136363167418194,0.1339241207468119
6.112424000000001,3.584556030838442,0.1328841245236316
6.11702,3.6488572911077206,0.13214244527154115
6.121624000000001,3.7181886039204497,0.13131190365364093
6.126224000000001,3.780246397886479,0.1307760517660999
6.130815999999999,3.841649126833151,0.13026185252633096
6.135396,3.9007201065793162,0.1297786536720447
6.139996,3.9604020098962103,0.12924894174691678
6.144584,4.01799653344089,0.12873778020982388
6.149184,4.069661569994471,0.1283486085886
6.153772,4.121038095671133,0.12793973208650977
6.158372,4.172981403469894,0.1274027099475265
6.1629640000000006,4.220383397581789,0.12689075194157212
6.16756,4.259401970787932,0.12649425925625912
6.172148,4.292857611145415,0.1261410059471248
6.176743999999999,4.320217438349027,0.12581581087170585
6.181343999999999,4.342258702132268,0.12551527530766887
6.185936,4.363722944161671,0.12512832747838296
6.190516000000001,4.3851430447424455,0.12468333211979553
6.1951,4.399323528293409,0.12430443098625397
6.199684,4.411005936481092,0.12388810618295426
6.204280000000001,4.414793662619608,0.1235235845516034
6.208868000000001,4.422745908670816,0.12297033463317794
6.21346,4.428322264072889,0.12236804243049126
6.218044000000001,4.4384296935300895,0.12154911994156106
6.222624,4.442852005424485,0.12077677993422022
6.227216,4.4462085567084575,0.119965809629032
6.2318,4.4424918171253935,0.11925876686091075
6.236388,4.437220578075324,0.11856073209133
6.240984000000001,4.429984143967187,0.11783564925341758
6.245571999999999,4.4187392764773925,0.11713826167185823
6.250176,4.4049182903588,0.11647044480125213
6.254768,4.393507096706232,0.11571846808565572
6.259364,4.387448368290923,0.1148204803154966
6.263968,4.385598301236933,0.11381133040473235
6.268556,4.387468156687681,0.11273694055939416
6.273152,4.389215827424282,0.11166725052580805
6.27774,4.39084131344674,0.11061183590822188
6.282336000000001,4.388624692250311,0.10963183898663381
6.286924000000001,4.392171231882208,0.10854691276007207
6.291524000000001,4.394573967638167,0.10749783451963577
6.296104,4.400330071756425,0.10641729019340666
6.300704,4.40506455671289,0.10536672444259945
6.305300000000001,4.4084108683651255,0.10437344323351144
6.309892,4.407426333941894,0.10349473374365228
6.31448,4.411716221490403,0.10255881762524803
6.319076000000001,4.416783358772416,0.10162409550838188
6.323664000000001,4.429290341063902,0.10057964618609028
6.328256,4.437833031422361,0.09960510035099628
6.332844,4.4489518404096176,0.09861247303032249
6.337428000000001,4.455739803321408,0.0977186886840992
6.342016000000001,4.4631828312525545,0.09683765812314464
6.346612,4.470914370060621,0.09601050086244504
6.3512,4.475458866669161,0.09526237255827971
6.3558,4.480780613011204,0.09452357815525637
6.360392000000001,4.48573580521081,0.0938219129598058
6.364967999999999,4.495310354362801,0.09306772394179631
6.36956,4.502719480477059,0.09236202589424546
6.374148,4.51000642187717,0.09166247667806147
6.378736,4.512185267468315,0.09106446219011674
6.383331999999999,4.513997558917022,0.09049658960085726
6.387919999999999,4.514910415918082,0.08993774467702004
6.392507999999999,4.517377772386147,0.08938659959024359
6.3971,4.518945694406564,0.08884158807905367
6.401688,4.524111354217571,0.08826486055539473
6.406295999999999,4.527233775704992,0.08772892220844872
6.410895999999999,4.532277250801854,0.08717141456605938
6.4155,4.532334814803893,0.08669522055024212
6.4200800000000005,4.536478855453107,0.0861448782614829
6.424671999999999,4.539234722798091,0.08564524305831774
6.429252,4.547753750971397,0.08506651624023215
6.433852,4.5543517255352635,0.08451206965469935
6.438435999999999,4.558129212042041,0.08399188851775312
6.443035999999999,4.564727186605907,0.08344281695261735
6.447620000000001,4.569159738132041,0.0829422610379613
6.452216,4.573836659086465,0.08242514645695385
6.456811999999999,4.575570907269656,0.08195205777976715
6.461396000000001,4.58306831628117,0.08141385760895452
6.465987999999999,4.598127755016304,0.08080365395990002
6.47058,4.615885497094382,0.08017552825396795
6.475168,4.635442108067755,0.07953622115725978
6.479756,4.660028771584578,0.07889882124044265
6.484344,4.684248880958965,0.07829808218552442
6.488936000000001,4.712599608429153,0.07770055401604009
6.493528,4.734942805642726,0.07718314604749489
6.498108,4.759084871751595,0.07665927590098276
6.502700000000001,4.783637633451528,0.07617734206668875
6.50728,4.813831371265641,0.0756496293859045
6.511864000000001,4.8470119232996165,0.07515616517150901
6.5164480000000005,4.881991344228887,0.07465648921618026
6.5210360000000005,4.918769634053454,0.07415657843609573
6.525644,4.963887203335143,0.07360672267338361
6.530232,5.01296906454986,0.07301864610979776
6.53482,5.062705990783933,0.0724571835641665
6.539424,5.114119601199157,0.07190148757689764
6.544008,5.167087711081386,0.0713663446816714
6.548612,5.219933636249469,0.0708430017138455
6.5532,5.271880126969903,0.0703407668935518
6.557792000000001,5.317041837700221,0.06991092054162665
6.562384,5.362081363716392,0.06949401821236359
6.566980000000001,5.408386878322648,0.0690554718137299
6.571568000000001,5.447619102061867,0.06864129645066021
6.576164,5.483742326867077,0.06821057164148424
6.580756000000001,5.517533802471781,0.06777003843917281
6.585352,5.560397665818481,0.06723751435196257
6.589944000000001,5.59966379137459,0.06672115235326037
6.59454,5.631856626063661,0.06622236830201006
6.599136,5.661228972695643,0.06574889277250567
6.603728,5.684671832336527,0.06527489030805793
6.608328,5.706804561938698,0.06477915932879272
6.612924,5.72636117291207,0.06428955166044521
6.617512,5.738722308304261,0.06382903721170892
6.622104,5.746341902029922,0.06339895803130277
6.626692,5.751507561840928,0.06296391638159503
6.63128,5.753319853289635,0.06252341640740633
6.635868,5.7506349725001025,0.06209537394585188
6.640452,5.751381503338388,0.06161769925479081
6.645044,5.7445660044530555,0.06117856216248479
6.649632,5.737095440548363,0.06072417710675711
6.654228,5.728070377176668,0.06025849086010577
6.658816,5.7153253913002375,0.059807832649860504
6.663404,5.704623643747392,0.0593350839328398
6.6679960000000005,5.693799711480402,0.05886682255213755
6.6725840000000005,5.682320714194054,0.05838386034181585
6.6771720000000006,5.662135883308149,0.05795354615785695
6.681768,5.643872106031684,0.05751041322428585
6.686363999999999,5.629861131565168,0.05707141555932632
6.6909600000000005,5.616993960974591,0.05661715230259752
6.6955480000000005,5.608746147336399,0.05614724308998683
6.700156,5.598332910660474,0.05570121913821387
6.704739999999999,5.586775870108609,0.05527066805106141
6.709344,5.5729312218048666,0.05487012185176196
6.713924,5.562273615700648,0.05443438737964113
6.71852,5.550350021006346,0.05402162018807997
6.723108,5.54022529520734,0.053605216904327915
6.727712,5.530100569408334,0.05318599267538317
6.732304000000001,5.515522812819716,0.052824386751116975
6.7369,5.505564413183486,0.05244791050177735
6.741492000000001,5.494340024957169,0.05209221123931358
6.746084,5.484792320912003,0.051742394036696476
6.750680000000001,5.477820735495633,0.051397459822695904
6.755264,5.471259845670329,0.051082077371178536
6.759852,5.465354020864382,0.05077995484106802
6.764436,5.460636141383002,0.05051528019681751
6.769024,5.462458672463447,0.0502314599448689
6.773624,5.465058453277396,0.04995582127675206
6.778212,5.467125353786134,0.04965734760683327
6.7828040000000005,5.464450712628341,0.049375762936965474
6.787395999999999,5.4566679756615795,0.04913340768173588
6.791988,5.449540303714175,0.04890494469858205
6.7965800000000005,5.446010369557363,0.048676338625237445
6.8011680000000005,5.443379869848198,0.04844566649347165
6.805759999999999,5.435929785206985,0.048292374249200895
6.810347999999999,5.42463759334689,0.048153825268629394
6.814935999999999,5.407337871230179,0.048054143606801936
6.8195440000000005,5.389016529951674,0.04796098945201016
6.824128,5.366975266168432,0.04787568407617904
6.828716,5.342113514328101,0.04779730042155889
6.833308000000001,5.32031661997315,0.047692929588234255
6.837904,5.294799803113463,0.04759533380849989
6.842499999999999,5.262742575691949,0.04751223674127096
6.847084000000001,5.229908098536933,0.047420204268767925
6.85168,5.1969514366677725,0.047335584283345965
6.856268,5.157454364236785,0.047267620722902345
6.860863999999999,5.108474208472735,0.04723082739437176
6.865448000000001,5.051932022985066,0.047217724152441784
6.870048000000001,4.991303360850223,0.047236627065265296
6.874632,4.925566602906412,0.04730087267050179
6.879224000000001,4.858153160781451,0.04735817839141761
6.88382,4.785220927256458,0.0474267025293247
6.888412000000001,4.700229491769606,0.04752244577416762
6.893008,4.610618699330368,0.04763143986636755
6.897600000000001,4.518021092671268,0.04769952819063802
6.902188000000001,4.425667855440459,0.04774884579620729
6.906784,4.33637947569503,0.04777027671904116
6.911376000000001,4.244026238464221,0.04782637982471274
6.915968,4.150118501766407,0.04786256456264842
6.920556,4.052368657849711,0.04792257305933051
6.925148,3.948611283676399,0.04803882900492948
6.929740000000001,3.84113398699835,0.04816752295683104
6.93432,3.7354555592155965,0.048299461732997456
6.938916000000001,3.623358905585163,0.04844494550736582
6.943504000000001,3.5086861333259307,0.04857607064069318
6.948088,3.3963009688185775,0.04865765082815434
6.952684,3.2839158043112238,0.04875182398897901
6.957272,3.175372747022754,0.04881995542217874
6.961868000000001,3.0670740591625747,0.04886093357342837
6.966456000000001,2.9629840326637154,0.0488323603730489
6.971048,2.8600378100407955,0.04876095771629231
6.97564,2.7627325635320537,0.048656854585627296
6.98024,2.667104001204462,0.04857963146766351
6.984832000000001,2.574418111648105,0.0484641187519368
6.989420000000001,2.4870066440634897,0.04835819474962144
6.994016,2.39832918788879,0.0483103100495952
6.998604,2.309773916428235,0.04822084338083426
7.0032,2.2245278718813526,0.04802079874231044
7.007784000000001,2.1427573804109157,0.047826765234029546
7.012384000000001,2.0647068114452156,0.047611212743955286
7.016968,1.9907427191266893,0.04730088467060174
7.021560000000001,1.9202541798846093,0.04700849212259543
7.026148000000001,1.8487440214807354,0.046731760747430746
7.03074,1.7817310353151012,0.04644155353469394
7.03534,1.7136964299876736,0.04614922253901397
7.039932,1.6443958360701612,0.04591109959824607
7.04452,1.580858402980973,0.045565614665020605
7.049108,1.5171987851776385,0.04522122840031372
7.053692,1.4580363396125435,0.04485126431013553
7.058292,1.3976079054573634,0.044532720158123186
7.06288,1.3368129171597465,0.04219286942501953
7.067472,1.2713985719097447,0.0398746514907177
7.072063999999999,1.2144456908310104,0.037517231079849014
7.076651999999999,1.1582700594857787,0.03518524978481558
7.081251999999999,1.0995183095117491,0.032853961385210136
7.085832,1.0438314170230996,0.030475956510657667
7.0904240000000005,0.9877779703920133,0.02815161446888716
7.09502,0.9302141657425507,0.025911478184999306
7.0996120000000005,0.8753486644360318,0.023677141503666736
7.10422,0.8213825975771607,0.021449043775502108
7.108808,0.7642294885187635,0.01928483013491181
7.113396,0.7071985641745119,0.01709922049710339
7.117984,0.6510670742779082,0.014895826003906234
7.122572,0.5937917805053652,0.01270129775535335
7.127176,0.5390926053616201,0.010523478149721457
7.1317520000000005,0.48866443110077445,0.008324420457420687
7.1363520000000005,0.43889132185928553,0.006212094099013207
7.1409400000000005,0.39181651596074013,0.004116202590327198
7.14554,0.3446195253480491,0.0020638710361111133
7.1501280000000005,0.3020418916877429,0.0
7.154724,0.26353253660165915,0.0
7.159307999999999,0.2323408418109039,0.0
7.1639040000000005,0.20012752785835505,0.0
7.1684920000000005,0.16971308280110195,0.0
7.173083999999999,0.1416303869443554,0.0
7.177671999999999,0.11589763836106708,0.0
7.182264,0.09298537783486799,0.0
7.186852,0.07479646090224776,0.0
7.191444000000001,0.05583029423612536,0.0
7.196032000000001,0.0425051036841814,0.0
7.200628,0.035842508408209434,0.0
7.205216,0.03187821647518102,0.0
7.209796000000001,0.03727482316106812,0.0
7.214384000000001,0.04843459067527935,0.0
7.218960000000001,0.060493792637138444,0.0
7.223556,0.07302353538262846,0.0
7.228148000000001,0.08351003980453142,0.0
7.232736000000001,0.09591759783587578,0.0
7.23734,0.10754790613371794,0.0
7.241928,0.11905602971741444,0.0
7.24652,0.12943854749812347,0.0
7.251112000000001,0.13687839250759765,0.0
7.255700000000001,0.1435409877835696,0.0
7.260304,0.15302407111663083,0.0
7.264896,0.16185208943033552,0.0
7.269488000000001,0.17115064852767115,0.0
7.274068,0.18044920762500677,0.0
