Time,Force,Position
8.884920000000001,0.31945865197775114,0.0
8.889516,0.31765978308245546,0.0
8.894103999999999,0.31508366445365754,0.0
8.898704000000002,0.31250754582485973,0.0
8.903296000000005,0.30878762332012266,0.0
8.907888,0.3021250280441507,0.0
8.912480000000002,0.2923975752827982,0.0
8.917076000000002,0.28062688419785853,0.0
8.921660000000003,0.2614163481034448,0.0
8.926256000000002,0.2404069431137353,0.0
8.930860000000003,0.22172928732453245,0.0
8.935456000000002,0.1998645893358033,0.0
8.940048000000004,0.17990954907835244,0.0
8.94464,0.16109831269684075,0.0
8.949228000000005,0.14278721105007483,0.0
8.953816000000003,0.1335926385939331,0.0
8.958404000000002,0.127096369480735,0.0
8.962988000000003,0.12714051092936315,0.0
8.967580000000005,0.1301273251492262,0.0
8.972176000000005,0.13413575853088278,0.0
8.976772000000004,0.13597876887480664,0.0
8.981360000000002,0.1432183859046176,0.0
8.985956000000002,0.147759699591485,0.0
8.990544,0.15356700186843725,0.0
8.995128000000001,0.15655381608830027,0.0
8.999716,0.16620322558413528,0.0
9.004296000000004,0.17609700450826163,0.0
9.008904,0.18815620647012074,0.0
9.013484000000004,0.20381314622257118,0.0
9.018076,0.22216838931796523,0.0
9.022672,0.24166743628929852,0.0
9.027256,0.26459789488844937,0.0
9.031864,0.2912596718705004,0.0
9.036444000000005,0.31804363356669707,0.0
9.041044,0.3455934491182328,0.0
9.045624000000004,0.36606997380273143,0.0
9.050232,0.38486981430607997,0.0
9.054824000000004,0.4007269820381936,0.0
9.059412000000002,0.41249767312313323,0.0
9.064008,0.4194046378273965,0.0
9.068600000000004,0.4256565375123033,0.0
9.073196000000005,0.426511830511323,0.0
9.077792000000002,0.42982105742499493,0.0
9.082388000000002,0.43108704601507974,0.0
9.086980000000004,0.4372167609858409,0.0
9.091568000000002,0.4377054998424236,0.0
9.096156,0.4411369114702412,0.0
9.100732,0.4446905078122044,0.0
9.105332000000004,0.4500429730494634,0.0
9.109920000000002,0.4507760813343375,0.0
9.114516000000002,0.44856651684797666,0.0
9.119112,0.44509096377153096,0.0
9.1237,0.43789548819034807,0.0
9.128292000000002,0.4333983159521088,0.0
9.132872,0.42890114371386956,0.0
9.137464,0.4272244595327195,0.0
9.14206,0.42722445953271954,0.0
9.146648,0.4274688289610108,0.0
9.151256000000004,0.4269359486557999,0.0
9.155848,0.43138897944541105,0.0
9.160436000000004,0.4364970752543787,0.0
9.165028,0.4432818552444964,0.0
9.169628000000005,0.4513326238246989,0.0
9.174232000000003,0.4591390229766101,0.0
9.178824,0.4641249340714321,0.0
9.183428,0.46718979155681273,0.0
9.188008000000004,0.46886647573796264,0.0
9.192608,0.47221984410026274,0.0
9.197188000000004,0.4743072238724779,0.0
9.201788,0.4824462753499367,0.0
9.206372000000002,0.49463790165768023,0.0
9.210972000000003,0.5092495600631866,0.0
9.215560000000004,0.5324551069858452,0.004161519359605977
9.220152,0.5572253930072467,0.009181757483497446
9.224748000000004,0.5866252756127721,0.014762202732223909
9.229344000000005,0.6200438312316929,0.020928059446675393
9.233932000000005,0.6579697987205915,0.02750050253397182
9.238524000000004,0.7020798622606184,0.03435693076096852
9.243116,0.756216129070656,0.04134120952188923
9.247708000000005,0.8126943847129391,0.04866752170073824
9.252300000000004,0.8739244216534913,0.05618483231264477
9.256888000000004,0.9406834896258153,0.06389991917721259
9.26148,1.0155477072587087,0.07157024292427083
9.266072,1.097862009532815,0.07935875749476642
9.270656000000002,1.1882814614674908,0.08720967957300504
9.275248000000005,1.2893821816915338,0.09512036940291382
9.279844000000004,1.3985880515761464,0.10308366771161896
9.284424,1.508214856683563,0.11130191056275734
9.289016000000004,1.6225934430892488,0.11964453356015001
9.293612000000005,1.7400471266120543,0.12804577377831244
9.2982,1.8591774943160093,0.1364400643283473
9.302812000000005,1.9785080899996277,0.1448061133428936
9.3074,2.0912099922241634,0.14905053550246133
9.312000000000005,2.203535100674524,0.15233769297676952
9.316596000000004,2.3133179923129754,0.15502040809506326
9.321184000000002,2.4188819829583683,0.1571735393379354
9.325776000000005,2.520637768201768,0.158976918461642
9.330368,2.6184631633290287,0.16053653816254018
9.334972,2.713379787501944,0.16189624165264757
9.339556000000002,2.808985378511105,0.16286189291808534
9.344156000000003,2.9023372635852764,0.16364554960280545
9.348744000000003,2.9972775499433424,0.164111911741791
9.353344,3.086244207861682,0.16464811601364157
9.357928,3.176022017330413,0.16494199540361945
9.362528000000005,3.262524501702361,0.16518721540756548
9.367108000000002,3.347017649567612,0.16532305326672686
9.371704,3.4287242111926624,0.16536999797761215
9.376292,3.512918608549255,0.16512983898733533
9.380884000000002,3.597801972742093,0.16471011513099418
9.385488000000002,3.6836186731994682,0.164122501692715
9.390084000000002,3.7690246780657786,0.16352308355914555
9.394672,3.8532868790561503,0.16298589912455694
9.399268,3.945521805361207,0.16226978536957273
9.403856000000005,4.036490743076178,0.16165278040401299
9.40844,4.126071507486919,0.16112119946506132
9.413028000000004,4.219494379116543,0.16047515043322055
9.417624000000004,4.320312954307013,0.1595937580926963
9.422216,4.423374995800734,0.15857733552489028
9.426804000000004,4.521240658588231,0.15763297863395104
9.431404,4.61685261544074,0.1566813477108256
9.435992,4.711887550539411,0.15567238155180926
9.440584,4.800049422750707,0.15477318411982918
9.445176000000004,4.884525274274156,0.15383556019865463
9.449760000000005,4.963149682072024,0.15297710121661548
9.45436,5.040497861648069,0.15200661627373527
9.458948,5.1147709441069935,0.15097989484825006
9.463536000000005,5.18482512557286,0.14992372633465514
9.468128,5.250249710454604,0.14881578624992994
9.472728000000004,5.309001460428637,0.14770759786746682
9.47732,5.356993898847785,0.1467043882142005
9.481904,5.400112371254518,0.14565411442996284
9.486496000000002,5.441177365705923,0.14448999279108166
9.491084,5.466741506935914,0.14351985060131323
9.495684000000004,5.488863996906349,0.14249110159370396
9.500272000000002,5.509832443369106,0.141329863623005
9.50488,5.525682554391155,0.14014021938824228
9.509472000000002,5.527219757516356,0.13914771274762494
9.514068000000002,5.51971847471645,0.13825528973655146
9.518652000000005,5.507920247657969,0.13735828751449464
9.523244000000004,5.491947261055053,0.13645267293487576
9.527832000000004,5.468856842136472,0.13559970426946744
9.532428000000005,5.4478877048069965,0.13463066844374263
9.537020000000004,5.425730622152952,0.13363546995486536
9.541620000000002,5.400464540564897,0.13265537645015835
9.546208,5.369679667576812,0.13176735087338468
9.550800000000002,5.331210580150962,0.1310281312393273
9.555388,5.288244320486872,0.1303525000240028
9.559980000000005,5.241191584175608,0.12976553397579924
9.564564000000004,5.193650109007761,0.129209196525882
9.569156,5.149217632773922,0.12862832899853702
9.573748000000002,5.1039298635410635,0.12810989426239197
9.578336,5.057786801309186,0.12765315860205176
9.582932,5.019738649106139,0.12706162511311667
9.587520000000003,4.980835203904072,0.12653503288857348
9.592108000000003,4.939810477112901,0.1261177281893334
9.596704000000004,4.89629791459019,0.1258428282222649
9.601292,4.859003349935495,0.12553440116544215
9.60588,4.828948402310612,0.12516573141758094
9.610468000000004,4.808587005630191,0.1247169162609044
9.615056000000004,4.788313891847029,0.12438203677296111
9.619660000000003,4.776057644827179,0.12398748604377527
9.62424,4.760291942913995,0.1237642845579222
9.628832000000004,4.752543107764125,0.12348595530477324
9.633412,4.745126924939801,0.1233026285978026
9.638012000000003,4.743684370555203,0.12311332596311478
9.642600000000002,4.750503052362211,0.12284892698742314
9.647200000000003,4.7622737434471505,0.12260109806004557
9.651784,4.781939116581257,0.12231171859819148
9.65638,4.807944672297527,0.12199240295774785
9.660972,4.8345272497676355,0.1217475866848025
9.66556,4.866672760086406,0.12147410046761496
9.670148000000005,4.900661280749101,0.12123266363185131
9.67474,4.935104638451488,0.12108227742329285
9.679328000000003,4.97445586398318,0.12089635974851441
9.683916000000004,5.018837142058322,0.12066451567619614
9.688504000000002,5.074011633505237,0.12028588578983687
9.693096000000004,5.132539493314454,0.11988609115042764
9.697680000000004,5.1914780487147345,0.11952518392147347
9.702284,5.247351746629635,0.11924356312753374
9.706880000000004,5.308744235944569,0.11888185600683047
9.711468000000004,5.370014540545356,0.11854398644567052
9.71606,5.435126952365028,0.11813946605390742
9.720648000000004,5.495497822518168,0.11782656680248262
9.72524,5.564041645965656,0.11735845768722696
9.729836,5.631397524088577,0.11687637417364483
9.734424000000004,5.69924214106808,0.11637505863486633
9.739028000000005,5.771539788837194,0.11578454016533749
9.74362,5.837252884595854,0.11524016041240664
9.748220000000003,5.89805811252521,0.11473523888662165
9.752816000000005,5.96098462204367,0.11413751422517215
9.757396,6.02116868677056,0.11353348336284311
9.761996000000003,6.082330229210612,0.11286955443883463
9.766592000000005,6.144591434077978,0.11214131351694037
9.771184000000003,6.203865824725479,0.11141966048898547
9.775772000000003,6.25925396670547,0.11071155958485542
9.780372,6.305359253332063,0.11008070472086108
9.784964000000002,6.343980553500552,0.1094943749728095
9.789564,6.3790821591439695,0.10889458193698213
9.794148,6.40988682052881,0.10827838192475608
9.798740000000002,6.435250733779136,0.1076740256710185
9.803324000000003,6.454152279733152,0.10709402725253425
9.807916,6.465569839229066,0.10655102743967408
9.812524000000003,6.469625596981024,0.10603543402380848
9.817120000000005,6.46505356439894,0.10558680163005318
9.821708,6.456717467863491,0.10513300035826723
9.826304,6.440653015441649,0.10473083777857531
9.830892,6.414816968809826,0.10441185226682435
9.835480000000004,6.389714030462878,0.10404290898426538
9.840068000000002,6.362279342915422,0.10367276155319295
9.844664000000002,6.33161347171981,0.10330850481165617
9.849252,6.296328243571815,0.10299016427776866
9.853848,6.2605101351186105,0.10265202940157751
9.858440000000002,6.218518170246015,0.10235734305188914
9.863032000000004,6.173950086744622,0.1020752303646818
9.867632,6.128726938223872,0.10178153118663855
9.87222,6.078640063322446,0.10155006566129555
9.876812,6.031495861192255,0.10127540805182046
9.8814,5.9814089862908295,0.10103718398422064
9.885988000000005,5.932998795570555,0.10078560359103515
9.890584000000004,5.886265289031428,0.10052158517918404
9.895172000000002,5.840186847511658,0.10026284270689612
9.89976,5.799627197391922,0.09994471758900166
9.904356,5.769982945358104,0.09952068048845107
9.908948000000002,5.73972776975356,0.0991339566998148
9.913544000000002,5.711682158635376,0.0987528786936372
9.918136000000004,5.686989915879492,0.09835339360299697
9.922732000000003,5.667449910381202,0.09792099391458771
9.927320000000002,5.649097850207481,0.09751221950961794
9.931920000000003,5.63127867033897,0.09711757766925136
9.936508000000003,5.617223554423826,0.09673385531372858
9.941104000000005,5.60766561074692,0.09631020119373854
9.945696000000003,5.592755201832757,0.09598092527621056
9.950292000000005,5.581075976566747,0.09564430428417652
9.954884,5.574548988558332,0.09527903373399109
9.95948,5.570353749750424,0.09491606715485758
9.964068000000005,5.576296659294934,0.09445322891209748
9.968664000000004,5.5872696213828945,0.09397642032013867
9.973252000000002,5.606215308785539,0.09344557888363109
9.977848000000002,5.625327322350958,0.09295785076223191
9.982436,5.642151728164498,0.09251712745173322
9.987024000000003,5.664006186521488,0.09205981369606682
9.991612000000003,5.687048590203045,0.09163387079404453
9.996212,5.7049828980756345,0.09128945024163285
10.000800000000003,5.7284359973482575,0.09089739708511407
10.005400000000002,5.754343030535534,0.09050590527079268
10.009992000000004,5.782581812923316,0.09012113936782667
10.014580000000002,5.811720029758745,0.08973448634823546
10.019172000000005,5.842412746061179,0.0893537887270598
10.023760000000005,5.878379884335354,0.08894630948138806
10.028356000000002,5.914469207323675,0.0885385864223373
10.032940000000004,5.949170357007764,0.08817056752944068
10.037528000000002,5.992210786148977,0.08773375142080395
10.042140000000003,6.03692789947134,0.08729676030876563
10.046728000000002,6.079968328612551,0.08687156011817174
10.051316,6.1266064955443555,0.08643198754978168
10.055912,6.1714457935808635,0.08601403196517124
10.060504000000002,6.212931723255072,0.08561254693764307
10.0651,6.2479994270815995,0.08526026437697795
10.069680000000004,6.283433685050564,0.0848862003460244
10.074284,6.323731669400204,0.08446590802475991
10.078872000000004,6.36361895815878,0.0840282542372797
10.083468000000003,6.40477223550744,0.08357002198671862
10.088048,6.448213120607978,0.08307697269433384
10.092644,6.4889557023655735,0.08260403557272614
10.097244000000003,6.527366534922663,0.08212964235864588
10.101844,6.5654888566028315,0.08162980070192366
10.106428,6.601035059654204,0.08114029491788614
10.111024,6.637192186276304,0.08062173437094292
10.115612,6.672694247879046,0.08010224849879907
10.120208000000003,6.699079780291165,0.07963141604108447
10.124796000000003,6.727097855435806,0.07911688313254173
10.129388,6.7458772166756775,0.07866010903655438
10.133976000000004,6.759504340657953,0.07821475589409682
10.138564000000002,6.771454780459078,0.07777245838390691
10.143152,6.776331929393167,0.07735856714692396
10.147748,6.781209078327255,0.07694778241454225
10.152340000000002,6.7832657392042535,0.07655592397336224
10.15692,6.785811138937835,0.0761351083792474
10.161516,6.7887230928138536,0.07569456061478658
10.166096000000003,6.790202731937013,0.07524460918721852
10.170692000000004,6.788084633269583,0.07480999365627447
10.175276000000004,6.7796704934686165,0.07440024012370691
10.179864000000002,6.765859746981761,0.07401049943436573
10.18446,6.7513939354755514,0.07360991297919395
10.189048,6.734884885645754,0.07322827202619779
10.193636000000003,6.718131466387666,0.07286010844699892
10.198232000000004,6.70239966629137,0.07248087881714976
10.202824,6.681026890080895,0.07213270667722474
10.20742,6.655401311060475,0.07178599137686989
10.212008000000004,6.638359380925466,0.07138167750025876
10.216608,6.620295831628664,0.07098663605830331
10.221196,6.60848418201677,0.0705244008718117
10.225796000000004,6.600148085481322,0.07005452192380116
10.230376,6.592589238679374,0.06958783959450228
10.234976000000003,6.587728695220371,0.0691107585806691
10.239572000000004,6.578493164237275,0.06864074013772418
10.24416,6.570034882987681,0.06817280771716495
10.248748,6.566728838995682,0.0677031846119104
10.25334,6.564077860023039,0.06724527803291341
10.257940000000003,6.5581176541367245,0.06682808907663267
10.26254,6.553834132431561,0.06641154726117941
10.267128,6.555968836574077,0.06597080993013053
10.271724,6.563255777974188,0.06552817841551771
10.276312000000004,6.572463772983743,0.06507560636257136
10.280900000000004,6.583592821602736,0.06461134296738338
10.285488,6.58805927494576,0.06418056316007048
10.290080000000003,6.593180793308139,0.06376216964435855
10.294676000000004,6.602677299194612,0.06333818411996368
10.299268000000003,6.613606119833944,0.06292983785564046
10.30386,6.6262116246544265,0.06252914381333287
10.308452000000004,6.642537051979645,0.062118159062264526
10.313048000000002,6.659150990181784,0.06174160053320671
10.317636,6.677930351421655,0.06134479131728429
10.322216000000004,6.698386396842676,0.06095331425117563
10.326828,6.721785115034932,0.060547889713526065
10.331416000000004,6.7495588207512816,0.06014221096425692
10.336020000000005,6.7792535800770715,0.05972867189183354
10.340608000000003,6.806372220774065,0.05931878930137549
10.345212000000004,6.834512480632852,0.05890522560321942
10.349808000000005,6.8646959788152255,0.058476431510132654
10.354396,6.8966783458928935,0.058048266684413485
10.359000000000002,6.925840224913474,0.057634517085269135
10.363592000000004,6.954224854200552,0.05721923174040695
10.368196000000005,6.9794224412881025,0.05683346537893667
10.372776000000002,7.003720593928008,0.05645002210725628
10.377376000000003,7.039545068224559,0.056018356161936615
10.381964000000004,7.077534965558844,0.05557143733507474
10.386564,7.115524862893129,0.05512738857803813
10.391144000000004,7.152737510493911,0.054679624787975195
10.395744,7.1850864317140175,0.0542583627711154
10.400328000000002,7.211550007391654,0.053869434313102676
10.404924,7.235437464440492,0.05347887897155182
10.409516000000004,7.257159498451598,0.0531105561032122
10.414112000000005,7.2751616099579675,0.05275174224352953
10.4187,7.286256756760071,0.052427866206652206
10.423296,7.297474088276323,0.05210077438310848
10.427888000000005,7.307791985344927,0.05177553347448277
10.432472000000004,7.314267775194647,0.05146409102304229
10.437064,7.317923076987279,0.05116098785481194
10.441648,7.320556759618117,0.0508641758600344
10.446236,7.320369954191865,0.050575048347337774
10.450832000000004,7.318139910442027,0.05029776171960158
10.455424,7.310146705863864,0.050038704371867214
10.460016000000005,7.305873423790438,0.04977252927967555
10.464612000000002,7.3023773914505155,0.04951166643479586
10.469192,7.291197144672826,0.049277077907692715
10.473784000000002,7.267468957076696,0.049083599142696194
10.47838,7.242963519747063,0.048883848127145926
10.482968,7.215515409646195,0.04869426205276745
10.487564,7.18549118091653,0.04849725564459939
10.492148,7.154567517739218,0.04829864473346051
10.496736,7.1225000506859635,0.04811032412829962
10.501332000000003,7.086468291699683,0.04793888502602655
10.505920000000003,7.049537098265756,0.04776579921263946
10.510524000000004,7.01362752399362,0.0475847644267397
10.515104,6.970033735283719,0.04742583427681145
10.519704000000004,6.921454035478997,0.047289488498247094
10.524292000000004,6.874673204569569,0.04715089494559336
10.528888000000002,6.822906462565321,0.04703460447199448
10.533476,6.770240286113423,0.04691585776708344
10.538076000000004,6.713854187156789,0.046800339119565645
10.542664000000002,6.658611892076094,0.04666981766504673
10.54726,6.604391216157193,0.04653084624778199
10.551852000000004,6.540931826333521,0.04640016856438998
10.556448000000003,6.472608710129174,0.046286130205007096
10.561036,6.3994218675441505,0.04618821155749169
10.565632,6.335063043272832,0.046049374457191844
10.570224000000003,6.266862111782631,0.04591905483512142
10.574820000000004,6.200337864473579,0.045794129150112974
10.579408,6.131526009412649,0.045693765483029905
10.583996,6.055029939913954,0.0456177082770246
10.588584000000004,5.974813947910521,0.045545169014605716
10.593176,5.894964510049525,0.045448660175770136
10.597772,5.81535944161682,0.04533241944492698
10.602352000000003,5.732933885127027,0.04521892682292494
10.606948000000004,5.64666622141835,0.04511686593405366
10.611536,5.559621307976174,0.045005069044817596
10.616128000000003,5.464769995382084,0.04492764277316025
10.620724000000004,5.369019248340347,0.04484977812177464
10.625308000000004,5.269304209365582,0.044791479395154724
10.629904000000003,5.16832318180073,0.044757554873885434
10.634496,5.062356243141057,0.044750947679399404
10.639084000000004,4.954468250871944,0.04474895952669268
10.643680000000003,4.851077430841069,0.04474838099155906
10.648268000000002,4.748830414686134,0.0447290170504156
10.652860000000004,4.649403886588288,0.04470230657172495
10.65744,4.548222631043773,0.04473807890432018
10.662040000000005,4.4440987027280245,0.04479065546419466
10.666632,4.333434363850448,0.04486343636824563
10.671232000000003,4.225057632724752,0.04489673649730676
10.675824,4.130006092151,0.04487705224211434
10.680420000000003,4.035853986024895,0.04485585381621144
10.685020000000002,3.9414575104704985,0.04484933802324809
10.689608,3.8486155343831068,0.04485530823302856
10.694204,3.761414534409894,0.04483929541801021
10.6988,3.681653379446154,0.044810794648979926
10.703388000000004,3.6076553853107383,0.044747038003410455
10.70798,3.541463790327235,0.04463434266976607
