Time,Force,Position
6.846188,0.07842238708401124,0.0
6.850783999999999,0.07255706226901693,0.0
6.855371999999999,0.06644736802573126,0.0
6.859976,0.05649556656356285,0.0
6.864555999999999,0.04564433065374658,0.0
6.869152,0.03761358280101954,0.0
6.873743999999999,0.030604454110086027,0.0
6.878335999999999,0.02641581347624173,0.0
6.88294,0.023370976718336635,0.0
6.887535999999999,0.023268812731666436,0.0
6.892132,0.021245595135554858,0.0
6.896728,0.021245595135554858,0.0
6.901316,0.019877442558799793,0.0
6.905907999999998,0.019408724429692575,0.0
6.910483999999999,0.01497571436755694,0.0
6.915075999999999,0.009643269857773452,0.0
6.919668,0.003289206186196442,0.0
6.924256,0.0,0.0
6.928847999999999,0.0,0.0
6.933435999999999,0.0,0.0
6.938027999999999,0.0,0.0
6.942608,0.0,0.0
6.947196,0.0,0.0
6.951791999999999,0.0,0.0
6.956379999999999,0.0,0.0
6.960984,0.0,0.0
6.965575999999999,0.0,0.0
6.97016,0.0,0.0
6.974767999999999,0.0,0.0
6.979367999999999,0.0,0.0
6.98396,0.0,0.0
6.988539999999999,0.0,0.0
6.993139999999999,0.0,0.0
6.997727999999999,0.0,0.0
7.002327999999999,0.0,0.0
7.006915999999999,0.0,0.0
7.011512,0.0,0.0
7.016107999999999,0.0,0.0
7.0207,0.0,0.0
7.025291999999999,0.0,0.0
7.029888,0.0,0.0
7.034476,0.0,0.0
7.039076,0.0,0.0
7.043667999999999,0.0,0.0
7.048267999999998,0.0,0.0
7.052855999999999,0.0,0.0
7.057452,0.0,0.0
7.062035999999999,0.0,0.0
7.066635999999999,0.0,0.0
7.071223999999999,0.0003023919663333923,0.0
7.075816,0.0016264030944603074,0.0
7.080407999999999,0.0020509797749393714,0.0
7.084995999999999,0.0020509797749393714,0.0
7.089595999999999,0.0020509797749393714,0.0
7.094183999999999,0.0020509797749393714,0.0
7.098775999999999,0.0020509797749393714,0.0
7.103363999999999,0.0020509797749393714,0.0
7.107951999999999,0.0033749909030662863,0.0
7.112547999999999,0.0033749909030662863,0.0
7.117127999999999,0.0033749909030662863,0.0
7.121715999999999,0.0033749909030662863,0.0
7.126311999999999,0.0033749909030662863,0.0
7.130903999999999,0.0033749909030662863,0.0
7.135496,0.0033749909030662863,0.0
7.140075999999999,0.0033749909030662863,0.0
7.144675999999999,0.004885807457444589,0.0
7.149255999999999,0.01258072006295097,0.0
7.153855999999999,0.030057466510176826,0.0
7.158451999999999,0.05809329653262435,0.0
7.163051999999999,0.09152209178328387,0.0
7.167631999999999,0.13232292840963877,0.01074525985192652
7.172227999999999,0.18368284861121537,0.02090364721797123
7.176815999999999,0.2470480482302862,0.030403613912738978
7.181412,0.32019508169107647,0.039612080542231365
7.186003999999999,0.4037790140129428,0.04859627332208544
7.1906,0.4956344221581524,0.05762546588441582
7.195188,0.5940846219455552,0.06678452079195042
7.199771999999999,0.6970283525135221,0.07608829764697343
7.204359999999999,0.813776231394279,0.08506629285581707
7.208955999999999,0.9403059441167555,0.09391612428135503
7.213547999999999,1.0786607290045382,0.10253228678178966
7.21814,1.2275745974675427,0.11104492334237484
7.222731999999999,1.3884357228099997,0.11936371700206322
7.227319999999999,1.557768551955463,0.12762118496899222
7.231911999999999,1.7349960631500936,0.1357239710464506
7.236504,1.9166422447814437,0.1436763866283378
7.241092,2.0926372106668767,0.15164687365307458
7.245699999999999,2.259749777158238,0.15959021315608776
7.250287999999999,2.414504391179082,0.16758811486548808
7.254892,2.565362516900677,0.17553145436850126
7.25948,2.7088486012465762,0.17268774180184066
7.26408,2.8443517206460514,0.17039281586039023
7.268675999999999,2.969584267347224,0.1687627405230004
7.273263999999999,3.083402437474156,0.16753910119865192
7.277856,3.1856399048640727,0.16659664474486063
7.282451999999999,3.2814047653259415,0.16555508746187125
7.287047999999999,3.374949821669711,0.16426722198376892
7.291635999999999,3.465908519752943,0.16277622716638088
7.296235999999999,3.542998907347282,0.1616929738628652
7.300823999999999,3.611617591138615,0.16074388843674714
7.305423999999999,3.670498582536856,0.16002330335789006
7.310015999999999,3.720252805112735,0.1593982211034457
7.314615999999999,3.7574488472384324,0.15903674825875191
7.319208,3.7858066314186862,0.15877866798768522
7.323803999999999,3.8087236674644256,0.15862751922494947
7.328387999999999,3.8271435312719255,0.1586184352801221
7.332972,3.848139513708223,0.15854796764177925
7.337563999999999,3.8714672453450265,0.15844935709879623
7.342155999999999,3.898925595077633,0.15826565320031188
7.346748,3.9240963370583613,0.1581890398770541
7.351331999999999,3.9495555899160086,0.15815994385099244
7.355919999999999,3.9738710388977174,0.15818482264519615
7.360515999999999,3.9949553042312713,0.15826354449228736
7.365107999999999,4.019348796478497,0.1581932086597722
7.3697,4.049383264839901,0.1579510543044851
7.374295999999999,4.078273929325366,0.15776599475056483
7.378883999999999,4.10189017183909,0.1577199221318235
7.383476,4.124196284314101,0.15767471744608194
7.388055999999999,4.153409361493375,0.15740534024260647
7.392643999999999,4.18401061197688,0.15706749070812775
7.397252,4.2107256137928735,0.15677628798552382
7.40184,4.238584419484806,0.15644315142404572
7.406435999999999,4.269996821518702,0.15595589538036958
7.411023999999999,4.305373515485628,0.1553482938602932
7.415611999999999,4.338174090823753,0.15480004621023113
7.420207999999999,4.368398547533083,0.15430285577760763
7.424799999999999,4.394614570860754,0.15386863758112093
7.429404,4.415922726359122,0.15351764042888863
7.433983999999999,4.435920751818776,0.15316547902742303
7.438583999999999,4.4584507544586005,0.15269823484472575
7.443163999999999,4.483634918992741,0.15211478299222245
7.447768,4.508530572649961,0.15149269011467206
7.452356,4.538412137402004,0.15072184633335645
7.456956,4.568127375991272,0.1499117763389049
7.461539999999999,4.593711996484738,0.14918346650278919
7.466132,4.619907540548934,0.14840192197761629
7.470723999999999,4.649045757384363,0.14754214809279
7.475315999999999,4.676507290038642,0.14671827337864854
7.479911999999999,4.692153990159353,0.14615648376717644
7.484503999999999,4.708289429136648,0.14556109281232962
7.489091999999999,4.726590291151674,0.14489139244602126
7.493687999999999,4.738961666175603,0.1443177931055896
7.498275999999999,4.7478574881230875,0.1438124484025885
7.502872,4.750946007793619,0.1433926503014962
7.50746,4.753623831873084,0.1429449430345781
7.512051999999999,4.758955817846865,0.1423813319274032
7.516643999999999,4.7675970307343185,0.14170927114600096
7.521223999999998,4.780202535554801,0.1409330897184945
7.525819999999999,4.792152975355926,0.1401561434355646
7.530396,4.8015272965282545,0.1394252208957674
7.534975999999999,4.805382826300549,0.13881498906434211
7.539572,4.808338921625194,0.13822173623876519
7.54416,4.809496148054545,0.1376684005706783
7.548748,4.811308439503253,0.1371248910749416
7.553339999999999,4.811321862056666,0.1366132150443868
7.5579399999999985,4.8104358501624285,0.13611950854520885
7.562543999999999,4.805829915763456,0.1357015985770975
7.567136,4.800324546916836,0.1352991974197864
7.571731999999999,4.8062233150127165,0.1346476346434671
7.5763159999999985,4.806481106994418,0.13411552294920193
7.580919999999999,4.806494529547831,0.13360556767975146
7.585495999999999,4.812148928215421,0.1329775782542458
7.590095999999999,4.816659523007073,0.13238436459194422
7.594688,4.826444539770465,0.13170884929827292
7.599288,4.835207937372065,0.1310573023905713
7.603876,4.841683727221786,0.13048277581037362
7.6084679999999985,4.844073040424331,0.130015478533636
7.613059999999999,4.843519680855643,0.1296176852768109
7.617655999999998,4.843987940448748,0.1291954246087808
7.6222439999999985,4.847154503384797,0.12872987562945262
7.62684,4.8513426854826385,0.12823671452716895
7.631428,4.857329736475776,0.12771462597341965
7.636011999999999,4.859474680250032,0.1272722770766235
7.640604,4.856755897643612,0.12693595269747882
7.645199999999999,4.858289917847139,0.12654792583008764
7.649792,4.862644426107755,0.12610932303930672
7.6543839999999985,4.869941607139605,0.1256063594043423
7.658975999999999,4.8790376570667515,0.12507591486940237
7.663563999999999,4.8822483614514285,0.12467764212482743
7.668156,4.88815736917905,0.1242355518322064
7.672735999999999,4.894310746334961,0.12377355760886767
7.677327999999999,4.897399266005491,0.1233861869620658
7.681911999999999,4.906128761790201,0.12289899159379242
7.686499999999999,4.909994531194234,0.12251192737533062
7.691111999999999,4.91770240781715,0.122052137140229
7.695703999999999,4.927575707477798,0.12153658404208038
7.700296,4.938348441586095,0.12100474632878945
7.704891999999999,4.948754621551955,0.12050169342653151
7.709475999999999,4.958916432089523,0.12002355026475078
7.714072,4.9688338731987995,0.1195714793376991
7.71866,4.9803058137750815,0.11911524110289544
7.723255999999999,4.991899939065508,0.11865287265675367
7.727843999999999,5.009012855755968,0.11810599106998447
7.732443999999999,5.030989498827103,0.11746592292792056
7.737024,5.048468969660001,0.11689134337378847
7.741624,5.058919291074489,0.11646380087194473
7.746207999999999,5.0701468622224795,0.1160385607911906
7.750803999999999,5.078676130027525,0.11565012189353044
7.755395999999999,5.085406528937276,0.11528320081680775
7.759991999999999,5.090993123971088,0.11494823278824738
7.764588,5.099033652919551,0.11459983751114625
7.769188,5.109117420191601,0.1142085522603217
7.773779999999999,5.113682396063619,0.11390134144426971
7.7783799999999985,5.121067859992727,0.11354827158865748
7.7829679999999986,5.12604353145581,0.11326990721420666
7.787555999999999,5.131552083224104,0.113011865977146
7.792143999999999,5.140003307763633,0.1127016299909985
7.79674,5.15164157450269,0.11232007845494067
7.801331999999999,5.162258222079951,0.11196119217013017
7.805919999999999,5.168499882133118,0.11164847289162506
7.810511999999999,5.174985911614577,0.11131871237181047
7.815099999999999,5.179673072200741,0.11101190153424927
7.819695999999999,5.181906298872252,0.11072093804297124
7.824271999999999,5.18144122220082,0.11046266155486506
7.828859999999999,5.184163187728914,0.11013535553228646
7.833463999999999,5.193137052941916,0.1096784140503725
7.838051999999999,5.201578037849704,0.10920838336877785
7.842644,5.211817891652791,0.1087169934613892
7.847239999999999,5.22589985267476,0.10816495309817106
7.851827999999999,5.24136998700096,0.10756539068928597
7.85642,5.248867396012473,0.10704589185280353
7.860999999999999,5.256486989738134,0.10652089575771187
7.865591999999999,5.263207149016145,0.10600178742886111
7.870171999999998,5.270538231864886,0.10543955782715819
7.874767999999999,5.279624042160292,0.10480458695130992
7.879356,5.283313245769813,0.10422672080846798
7.883955999999999,5.287002449379334,0.10365427643450402
7.888539999999999,5.285950111322324,0.10314775118799013
7.893132,5.282321654636518,0.10265835927261256
7.897739999999999,5.284578543493181,0.10207576985648832
7.902336,5.2858138131880485,0.10151362847268837
7.906927999999999,5.288725767064068,0.10094301126967507
7.911515999999999,5.290493917064146,0.10040000967133847
7.916103999999999,5.2931615015118725,0.09984792167768325
7.920695999999999,5.296484150978957,0.09930953591532311
7.925283999999999,5.298907365998392,0.09878440908754112
7.929879999999999,5.299942407713597,0.09830547740872192
7.934455999999999,5.3048195566476855,0.09777987036538507
7.939051999999998,5.312517193638863,0.09722758556501682
7.943648,5.322913133972984,0.09665691311810429
7.948236,5.344468841821316,0.09596957441002041
7.952836,5.362837507470122,0.09534062386438236
7.957412,5.384803910909518,0.09468004798714515
7.962,5.405259956330539,0.09407515391359716
7.966583999999999,5.422284590123743,0.09354600122372071
7.971171999999999,5.444050765583477,0.09296032774986646
7.975759999999999,5.463895887433769,0.09240287645341638
7.980355999999999,5.489626354826532,0.0917699184501544
7.984943999999999,5.5209977983334735,0.09107967081929366
7.98954,5.54828276519324,0.09045995748204694
7.994131999999999,5.576833720643092,0.08981307608953934
7.998735999999999,5.607305729702386,0.08915266902221336
8.003316,5.64444033403765,0.0884324328675859
8.007916,5.683373807268212,0.08770656771624301
8.012495999999999,5.719364607727538,0.08702087845226668
8.017095999999999,5.753845050168486,0.08638737598718432
8.02168,5.788569862037729,0.08573999383969726
8.026268,5.818675316954584,0.0851395518950483
8.030852,5.844161414919054,0.08458406890659953
8.035444,5.8638843520552015,0.0840896552480569
8.040032,5.88078680113426,0.08363136182025382
8.044628,5.89985467325105,0.08313772016141406
8.04922,5.920965783691427,0.08262361619123129
8.053804,5.942443448274242,0.08208802818950334
8.058392,5.968907023951878,0.08149778978424738
8.06298,5.995370599629516,0.08091259233053302
8.067571999999998,6.020279675840149,0.08032261784427909
8.072163999999999,6.0421238945654,0.07977686114357378
8.076759999999998,6.061025440519416,0.0792660498618309
8.081339999999999,6.079804801759288,0.07876207297992309
8.085932,6.094375501637837,0.0783151585878173
8.090524,6.1044490292781495,0.07789386337291558
8.0951,6.105039473585401,0.07755065681922485
8.099704000000001,6.104730483445002,0.0772138442535164
8.104292,6.101723189961662,0.07688795497710758
8.108876,6.100226254496698,0.0765206732071582
8.113468,6.096930450136439,0.07616127259476958
8.118048,6.096455133833269,0.07578246143793033
8.122652,6.095857632815951,0.07541039077439751
8.127228,6.102044911788753,0.07498062443148187
8.131828,6.104512268256817,0.07457678819793313
8.136415999999999,6.1069796247248815,0.07417361969644003
8.141011999999998,6.108547546745297,0.07377813828413207
8.145596,6.112813772108656,0.07337423158782437
8.150196,6.113482259681425,0.07298674507312185
8.15478,6.115172366415987,0.07259092273792603
8.159372,6.120582395655285,0.0721754734846034
8.163959999999998,6.1262367943228755,0.07174660410592572
8.168552,6.129315074361667,0.07131911372856949
8.173135999999998,6.13071667021931,0.07088873758673124
8.177728,6.139025230781216,0.07040134063384362
8.182311999999998,6.152197517723798,0.06987952167587855
8.186895999999999,6.169334096599409,0.0693218182681275
8.191476,6.183528002703784,0.06878796312919147
8.196052,6.2045066887982765,0.0682051725357378
8.200635999999998,6.2233199518550375,0.06765219751280284
8.205215999999998,6.244831518254741,0.06709164653544712
8.209808,6.263400411883209,0.06655678733515807
8.214404,6.284789793568768,0.06600904621732917
8.218991999999998,6.303358687197235,0.0654836212527762
8.223591999999998,6.32180539611156,0.06496510387748503
8.228184,6.346015265854206,0.0644187361582785
8.232776,6.36920351643506,0.06388675649092132
8.237367999999998,6.388549659797033,0.0633813103418152
8.241967999999998,6.410471921787801,0.06287899974426865
8.24656,6.4323941837785705,0.06238237080781387
8.251156,6.452028838017461,0.06192010697442687
8.255752,6.4751390453327975,0.06146159659768086
8.260336,6.5054447282293175,0.0609914272228758
8.264936,6.543312440849458,0.060491103447429376
8.269523999999999,6.577460230964858,0.060011524365615944
8.274119999999998,6.604456686947706,0.05959075879023706
8.278708,6.631208773502262,0.05918510304915949
8.283308,6.661925151989847,0.05875538378796802
8.287891999999998,6.6925193457632846,0.058339344435319046
8.292484,6.725034593146165,0.0579159049615813
8.29708,6.7586936444049845,0.057483327540319325
8.301675999999999,6.79439593398739,0.057037809500786706
8.306264,6.827399920226853,0.05659911444744714
8.31086,6.858360668142729,0.05617775268844527
8.315447999999998,6.888299796896812,0.05576315217821676
8.320032,6.912475764822569,0.05538037198202334
8.324619999999998,6.931910191081798,0.055014749931972126
8.329212,6.953265670950467,0.0546421491937121
8.333803999999999,6.972822281923841,0.05427397283404088
8.338395999999998,6.986860101497181,0.05391781695053556
8.342988,6.998443987155869,0.05355089029781077
8.347575999999998,7.002710212519228,0.05319719020767564
8.352168,7.001702015910848,0.052844019674864726
8.356755999999999,6.993131789578846,0.052515603665111835
8.361344,6.981374521047318,0.05221232401538822
8.365955999999999,6.973703729162963,0.051880241424686
8.370544,6.962313014773872,0.05155486183844648
8.375147999999998,6.945036954842311,0.051256559901732265
8.379736,6.921220484348925,0.050972998412067955
8.38434,6.893561906636656,0.050702271434370436
8.388931999999999,6.857852560344183,0.050476789747172894
8.393523999999998,6.818301106832829,0.0502630060761535
8.398116,6.774785361388446,0.0500669845713253
8.402712,6.726528074277532,0.049882920943443494
8.407303999999998,6.679536775756702,0.04967645837549565
8.411883999999999,6.62678231640755,0.04948809265825304
8.416483999999999,6.5759489106678375,0.04928981759437687
8.421064,6.518330724938008,0.04911708823908008
8.425664,6.453805574503916,0.048976955918142606
8.430259999999999,6.389691119660887,0.04886090545271239
8.434859999999999,6.326231729837216,0.048754789055303
8.439448,6.260729101689959,0.04865998517738696
8.444044,6.189218943286085,0.04859757443895173
8.448631999999998,6.116564981006271,0.04854716817642701
8.453227999999998,6.043133768992956,0.048488548158628395
8.457816,5.963939396151318,0.04844893165672937
8.462411999999999,5.886666076919121,0.048398803808236884
8.467,5.808737692667566,0.04833156359822513
8.471583999999998,5.730442754273575,0.0482847538543953
8.476176,5.651248381431936,0.04823543998950562
8.480768,5.577039919685119,0.048155294173209434
8.485348,5.4986227965769805,0.04811341861712286
8.489931999999998,5.421227292630638,0.04806201810948418
8.494524,5.348573330350825,0.04799209318074689
8.499107999999998,5.269911837814397,0.04795763929608068
8.503696,5.190228726116175,0.04793172218379953
8.508291999999999,5.106581322484925,0.047928970050577266
8.512876,5.024077722729614,0.04790911884451264
8.517463999999999,4.942595742136096,0.04788433395653707
8.522044,4.858537642913781,0.04785176972027631
8.526631999999998,4.770515251758438,0.04784766379466517
8.531235999999998,4.68429172949839,0.047843471265585844
8.535811999999998,4.5960249689147545,0.04786606839162712
8.540407999999998,4.509679261940562,0.04787721560793998
8.544991999999999,4.424232989414015,0.04788475528296427
8.549591999999999,4.338664532173324,0.04790481320235794
8.554176,4.24811016383781,0.04796764542665707
8.558776,4.159354664397592,0.048022448726945145
8.563367999999999,4.07072134967152,0.04806994986134119
8.567959999999998,3.980944231069508,0.04814069553041472
8.572539999999998,3.885403951639172,0.048244907165841726
8.577132,3.79202909524657,0.048325886284721696
8.581715999999998,3.6964888158162346,0.04844891896203269
8.586308,3.594041571681636,0.04864364214923119
8.590891999999998,3.495192065337629,0.04884991534599162
8.595476,3.4009619159460063,0.04905006074931681
8.600063999999998,3.306853951268529,0.049249028325305304
8.604656,3.2154442899339966,0.04944329283817303
8.609248,3.1288983549801395,0.04959377441630172
8.613824,3.043129669759785,0.0497684426735823
8.618415999999998,2.9586269731295145,0.04990945033085636
8.622995999999999,2.8752680803751836,0.050014876226082534
8.62758,2.8006150212204126,0.05004642460358951
8.63218,2.7230192892944056,0.05011279942661674
8.636767999999998,2.6424808845971643,0.050217472171851386
8.641352,2.56566240240466,0.050311693217348144
8.645947999999999,2.4938298313069778,0.05033720294380227
8.650543999999998,2.419831837171562,0.05041511635722308
8.655139999999998,2.3449344085884993,0.050498282612428474
8.659715999999998,2.2683602958242868,0.0505765687734487
8.664312,2.1956282902789566,0.050615629901998214
8.668899999999999,2.1276378264001568,0.05059766882042473
8.673495999999998,2.0647554583303247,0.050464753857362196
8.67808,2.00698118606946,0.050220448302706
8.68268,1.945609176018004,0.049979324259480554
8.687267999999998,1.8816610473377502,0.04969811488788386
8.691864,1.8213106564480883,0.04940592499737698
8.69644,1.7551971047301016,0.049192122101021335
8.701027999999999,1.684219826631439,0.0490513175333867
8.705619999999998,1.6152857868563633,0.04884075529952489
8.710204,1.5489278657100856,0.04864076094616515
8.714788,1.4814261406878684,0.04612549856882384
8.719375999999999,1.4111039276085622,0.04364924490476504
