Time,Force,Position
7.342948,0.09213056029001887,0.0
7.347543999999999,0.08571233444233824,0.0
7.352131999999999,0.07917192388051192,0.0
7.356719999999999,0.07647362053756837,0.0
7.361307999999999,0.0774952396993619,0.0
7.3659,0.07839467414700975,0.0
7.370483999999999,0.08121516220409898,0.0
7.375071999999999,0.09004318051780366,0.0
7.379676,0.10643322855512818,0.0
7.384264,0.12180165743065917,0.0
7.388856,0.136392836572688,0.0
7.393452,0.15086183100057113,0.0
7.398047999999999,0.15879041486662798,0.0
7.402644,0.16209964178029987,0.0
7.40724,0.1646316189604696,0.0
7.411835999999999,0.16716359614063933,0.0
7.416416,0.17149444221610477,0.0
7.421016,0.18183281854818567,0.0
7.425596,0.19468497398748455,0.0
7.430192,0.2066376949791356,0.0
7.434775999999999,0.2100691066069532,0.0
7.439368,0.2156659412725035,0.0
7.443960000000001,0.2193417223286124,0.0
7.448556,0.2218736995087821,0.0
7.453144,0.21929758087998422,0.0
7.457739999999999,0.21810963555541688,0.0
7.462336,0.2160222557832017,0.0
7.466932,0.20768297632607965,0.0
7.471524,0.19460215520242707,0.0
7.476108,0.18164351879292012,0.0
7.480696,0.16844051295512183,0.0
7.485296,0.15601475685082578,0.0
7.489884,0.15372714909894739,0.0
7.49446,0.15683614803295612,0.0
7.499055999999999,0.1589235278051713,0.0
7.503643999999999,0.16088872286324085,0.0
7.508236,0.162609548493019,0.0
7.512824,0.16408600469450582,0.0
7.517412,0.16172035367710996,0.0
7.522016000000001,0.15833308349792052,0.0
7.526604000000001,0.15788848608996597,0.0
7.531192000000001,0.1573217039678658,0.0
7.535788,0.15687710655991127,0.0
7.540376,0.15348983638072183,0.0
7.544983999999999,0.1493253164680302,0.0
7.549583999999999,0.14185156964166667,0.0
7.554188,0.13335620365350964,0.0
7.558783999999999,0.13213435651205294,0.0
7.563376,0.13487680130362462,0.0
7.567952,0.13761924609519635,0.0
7.572552,0.14252711392450076,0.0
7.57714,0.14461449369671595,0.0
7.581744,0.1374631595641613,0.0
7.586335999999999,0.12671408764101522,0.0
7.590932,0.11698663487966268,0.0
7.595523999999999,0.10613357631532269,0.0
7.60012,0.09552488717927404,0.0
7.604728,0.0831173291479297,0.0
7.60932,0.07263082472602672,0.0
7.613908,0.06406537391356512,0.0
7.618508,0.057420976710544906,0.0
7.623100000000001,0.05317841353233577,0.0
7.627692,0.051844621308472165,0.0
7.63228,0.058571837296549856,0.0
7.636868,0.07454800682113619,0.0
7.641456,0.09952876045393984,0.0
7.646056,0.13567952123269345,0.0
7.650648,0.17482733586304894,0.009009609369864825
7.655236,0.21799382350679972,0.01822314881530788
7.659827999999999,0.26926546081112,0.027383044442032566
7.664408,0.3256995750047748,0.03650133387524679
7.669,0.3972679882774081,0.04504059893669865
7.673584,0.48078365842949367,0.053502291202169296
7.678176000000001,0.5704834246327072,0.06214300422455048
7.682784,0.6685327099247815,0.07067935667731114
7.687372,0.7768343698422062,0.07905336535877275
7.691964,0.8942627985819941,0.08733727384294447
7.69656,1.0197963769823513,0.09560801472161362
7.701148,1.15253567059563,0.10390689308479184
7.705752,1.2906818105265345,0.11230816458653171
7.710352,1.4328024820222063,0.12082138210453745
7.714948,1.5746528407139104,0.12937995571383556
7.719528,1.7169919382621972,0.1379244559930994
7.724119999999999,1.8534795920849036,0.14654652380413152
7.728707999999999,1.9831722262857536,0.15518844239935728
7.733304,2.106802949149621,0.16379296416363714
7.737895999999999,2.2200409146010407,0.17243552580864702
7.742495999999999,2.3272611101641063,0.17210758243754284
7.74708,2.429607339714756,0.17159543397177343
7.751676,2.5332534596723812,0.17085538631046804
7.756268,2.6287163867039185,0.1702986530948986
7.760864,2.712809078609843,0.17039372437391728
7.765452,2.7925606848085636,0.17048262289635557
7.770044,2.8728349316807558,0.17023179521651238
7.774623999999999,2.947502104255659,0.17007504172103213
7.779216,3.015907137513916,0.17002430403327629
7.783804,3.078949465903176,0.170009688234777
7.788396,3.138794512461171,0.1698979866894934
7.792987999999999,3.1969967766549052,0.16965610181111984
7.797563999999999,3.2517573895890832,0.16931928168758806
7.802160000000001,3.3091280229689484,0.168735976202466
7.806748000000001,3.369275002957275,0.16799164103418837
7.811328,3.431465221269188,0.1671910928665705
7.815924000000001,3.4992964156952793,0.1662082990249548
7.820512000000001,3.5713804129313194,0.1651396299273208
7.825108,3.6473506588348696,0.164045127943465
7.829700000000001,3.7265520883865744,0.16289163140686078
7.834300000000001,3.8080411256901576,0.1616436105954913
7.838896,3.892717205193267,0.16029169859867645
7.843484,3.966722256038748,0.15929376646243307
7.848076000000001,4.048123010445075,0.1580117253212929
7.852656,4.129479623402774,0.15664987363782656
7.857248,4.21005898662697,0.1553440919522486
7.861828000000001,4.286507731755365,0.1541745604364906
7.866428000000001,4.363933954596924,0.1529353220618701
7.871016000000001,4.43837336321862,0.15174607174636373
7.875616000000001,4.5148118687152765,0.15048014186583383
7.880208,4.587364125544421,0.1492981141142036
7.884804000000001,4.6553750686866975,0.1481919889094103
7.889379999999999,4.725140739275642,0.1470059758579549
7.893976,4.789343477015925,0.1459292108370207
7.898572,4.849659966088699,0.14492802568063995
7.903164,4.902203957826451,0.1440123709941687
7.907752,4.948163397553749,0.14320653601158578
7.912348,4.9897037083083235,0.14243665670555103
7.91694,5.027846509251971,0.141675191121499
7.921528,5.063491234832337,0.1408950294091077
7.926119999999999,5.09447246201169,0.1401599425757989
7.930712,5.119768571628236,0.13949857349543732
7.935304,5.148862647015037,0.13869061084584305
7.939883999999999,5.16728569374421,0.1380779922749485
7.944483999999999,5.18554241431061,0.1374221502785467
7.949064,5.196803887275489,0.13681711082188716
7.953656,5.207121784344092,0.13617555944323603
7.958252,5.2143306824786855,0.13556346041470552
7.96284,5.217897701374061,0.13495483932844227
7.967435999999999,5.210671506897662,0.13453485735953874
7.972023999999999,5.20213518238255,0.13410410681629542
7.976611999999999,5.190367674219283,0.13370270272170237
7.981208,5.171893429331417,0.13338163943228185
7.985799999999999,5.153252858280776,0.13301156870626776
7.990396,5.128560615524892,0.1327255507278078
7.994984,5.105012176644948,0.13240109265592592
7.999584,5.081952476621585,0.13203273518677347
8.004172,5.055417223521777,0.13171251190289063
8.008768,5.025406417345523,0.13143882440479052
8.013356,4.993474557559828,0.13120289365907267
8.017956,4.963219381955283,0.13094397751703532
8.022548,4.928877729703564,0.13079123708319834
8.02714,4.890571785518817,0.1307275832955827
8.031724,4.855208514105303,0.13059790057327367
8.03632,4.815880950758762,0.13056236318479406
8.040916,4.779251690755165,0.13047866904858474
8.045516,4.739313203837897,0.13049564222821136
8.050104,4.69900816277819,0.13053917063122739
8.0547,4.6637331742619335,0.13051577108631848
8.059288,4.633732607717418,0.13041077204935816
8.06388,4.601444433421024,0.1303816567673609
8.068468,4.5726318122010765,0.13029671133969548
8.073064,4.547827624362785,0.13017538435834491
8.077656,4.523189762687268,0.13010014934816796
8.082244,4.502804703821699,0.12996924415904684
8.086828,4.486305893623641,0.129813221344762
8.091416,4.471772278483652,0.12967582458766197
8.096008,4.463045965620616,0.12947378892554967
8.1006,4.458083716710945,0.12926077361178576
8.105188,4.4554532170017795,0.129034558819651
8.109796,4.4533555975978265,0.12882669843334163
8.114384,4.465116049051027,0.1283615175952731
8.118988,4.479086064990589,0.1278920217963103
8.123576,4.4968201448835154,0.1274155648771213
8.128168,4.523182015110484,0.12682554157831777
8.13276,4.55600625263376,0.12619378482331858
8.137352,4.592838923538694,0.1255271712532164
8.141956,4.628161236425251,0.12492709328914259
8.146544,4.663894244902875,0.1243689389921599
8.151136,4.704779490638092,0.12376098684043384
8.155716,4.751716408078554,0.12307650410720203
8.160316,4.798697466967645,0.12245924505917209
8.164904,4.848376829199679,0.12181500710100664
8.169504,4.897445267860984,0.12122487121745024
8.174096,4.94986707488459,0.12061058485551801
8.178688,5.000367828298754,0.12004265276127617
8.183276,5.050990766427064,0.11947278025127474
8.187872,5.100714270107726,0.11892769539482542
8.19246,5.151337208236036,0.11837863617950467
8.197052,5.2067016880308765,0.1177645497211321
8.20164,5.259367864482772,0.11718593904231675
8.206224,5.305249260944553,0.11675713863724295
8.210812,5.354972764625215,0.11626877215325038
8.215404,5.403386138267163,0.11577345042891896
8.219996,5.448812697689249,0.11529443301946941
8.224588,5.488187585406091,0.11488329824502701
8.22918,5.528539950836098,0.11440624504795607
8.233768,5.572323727893924,0.11384315032862077
8.23836,5.615041744341328,0.11325753322894393
8.242948,5.650031404902338,0.11274743416575933
8.247536,5.682034251243485,0.11224193442040382
8.252132,5.712438456668999,0.11168931166711256
8.25672,5.741654716769947,0.1111254610425007
8.261308,5.7723371934406424,0.11046224545415105
8.265896,5.798111802282032,0.10982708468623525
8.270484,5.821799031351208,0.10917783878512141
8.275076,5.844664869238253,0.10848560647793008
8.279672,5.8663427618007296,0.10777471440798236
8.284264,5.884378775123988,0.1070543028383967
8.28884,5.891621575075472,0.10644534997266879
8.29344,5.9042168402642154,0.10573498712358695
8.298028,5.912026422337799,0.1050348275342032
8.302628,5.915827571029727,0.10435040098539346
8.307212,5.920361828006528,0.10362021310990842
8.311804,5.919499478297443,0.10294066157945657
8.316396,5.919248052159085,0.10221830720950714
8.320992,5.913477834620695,0.10155378392252791
8.325596,5.904476433434151,0.10089791290128887
8.330188,5.891510740314579,0.10029801072080366
8.33478,5.879444481642654,0.09968577844292949
8.339372000000001,5.8636583004659935,0.09911139264922475
8.34396,5.846972684841683,0.09854205424554932
8.348548,5.824523908389049,0.09804388039095045
8.353136,5.798765905022742,0.09760846052801248
8.357732,5.776072759141817,0.09712163465302681
8.362324,5.756077916603835,0.09660936461517175
8.366916,5.734450531333331,0.09615228201712059
8.371512,5.711923711615181,0.09570010160564404
8.3761,5.689807587488094,0.09527066213118779
8.380684,5.674231873922835,0.09476884992414147
8.385268,5.6516270109391655,0.09436725495130084
8.38986,5.6318426360125855,0.09393123125255298
8.394452,5.61361276055301,0.09349586460112777
8.399032,5.5945275920944155,0.09311798842329601
8.403619999999998,5.580839030321707,0.09269579977154735
8.408216000000001,5.568460598587712,0.09229206032363374
8.412795999999998,5.563155457720754,0.09184155399531155
8.417395999999998,5.5592826316066555,0.0914012340772392
8.421984,5.5560648705119124,0.09096755205855285
8.426584,5.5535021744365265,0.09054197569727505
8.43116,5.555314465885234,0.09008908072919067
8.43576,5.563178429039186,0.08960956220825939
8.440344000000001,5.576072444736588,0.08911405116868802
8.444936,5.592319828796289,0.08860992537249293
8.449516000000001,5.605380170656463,0.08816029754134046
8.454108,5.618196143088346,0.0877305989114963
8.458696000000002,5.632688799701379,0.08729730870054188
8.463288,5.648491586353126,0.08688619329677298
8.467868000000001,5.668791545243112,0.0864480843538056
8.47246,5.6897465691524545,0.08602514588207379
8.477044000000001,5.716220384461829,0.08555738814399655
8.48164,5.742083276200477,0.08513067029877461
8.486220000000001,5.7648813104537435,0.08474666775767759
8.490799999999998,5.786902094973508,0.08436249366485879
8.495396000000001,5.805735837293746,0.08403043859001527
8.499972000000001,5.824447394899838,0.08370883273680041
8.504551999999999,5.8395612147153395,0.08341413766218557
8.509151999999998,5.855330099550197,0.08313149230328744
8.513736,5.87710651464167,0.08277953190526277
8.518348000000001,5.904646090561467,0.08237711884062461
8.522936,5.936027773700147,0.08194644259167476
8.527524000000001,5.962912284600588,0.08154814394838701
8.53212,5.9882422960340245,0.08114689567849051
8.53672,6.0147161113433985,0.08073132046992235
8.541312,6.046708718052807,0.0802836170420879
8.545892,6.077801890314566,0.07984340973826083
8.550492,6.107218378395176,0.07940636864033161
8.555076000000001,6.136634866475787,0.0789719378465132
8.559676000000001,6.163597420641745,0.07854289477664622
8.564264,6.189660540360056,0.07812223161049095
8.568864,6.218011267830244,0.07767199954549643
8.573444,6.2514700911094,0.07716980707261176
8.57804,6.2900370101975245,0.07661473172175218
8.582628000000001,6.325783441228559,0.0760775885531478
8.587224,6.36471691445912,0.07550269626168882
8.591807999999999,6.404139126546262,0.07490461991967164
8.596404000000001,6.442539719471612,0.07431928871491296
8.600992,6.482206300987047,0.07371472009941837
8.605576000000001,6.5171313408359515,0.07315031023448444
8.610164,6.546659773998968,0.07261493305768704
8.614748,6.569647796600159,0.07212257113538181
8.619332000000002,6.588793711982467,0.07165585471557971
8.62392,6.605241324021832,0.0711982174312551
8.628516,6.615515079641807,0.07075793859894246
8.633092,6.619492794128248,0.07034207406168089
8.637680000000001,6.623837062757125,0.06990636366567786
8.642283999999998,6.628425700814293,0.06945636574026068
8.646872,6.632725827994541,0.06897660695333453
8.651480000000001,6.631384979060612,0.06852667359480581
8.656068,6.627712380926176,0.06806471812651943
8.660672,6.616233383639829,0.06766020160916454
8.665263999999999,6.599357779667597,0.06727256977725
8.669852,6.579906057066563,0.0668861785353418
8.674448,6.56159813834147,0.06648077904256458
8.679039999999999,6.540469731559288,0.06608934155822793
8.683632000000001,6.5133337945204905,0.06574420929572243
8.68822,6.486320042195839,0.06539039879332884
8.69282,6.452643694595214,0.06507166509285113
8.6974,6.420766215889886,0.06474646427134528
8.702,6.388766552470412,0.06442547789645471
8.706591999999999,6.355989639317436,0.06409680607255451
8.711184000000001,6.327054833383342,0.06374277914642637
8.715772,6.303228123258217,0.06334092528302326
8.720367999999999,6.2791570437048,0.06294792168081775
8.724956,6.258683701941974,0.06254437667899804
8.729548,6.236044937141417,0.0621637188840841
8.734139999999998,6.2150828565220095,0.061784794603015544
8.738732,6.192732602598369,0.061433705139484415
8.743319999999999,6.177944378398351,0.061044954477026216
8.747908,6.1647106536653355,0.06066473384055977
8.752495999999999,6.157240089760646,0.060251887093832515
8.7571,6.150957471180523,0.05986908456431128
8.761691999999998,6.140999071544291,0.05954532276731378
8.766267999999998,6.138724886345825,0.05918278534743193
8.770864000000001,6.136450701147358,0.05881949327296861
8.775452,6.143781783996097,0.05840728116409583
8.780047999999999,6.150868497416547,0.05800825746994426
8.784636,6.164617806112967,0.05757756655390806
8.789228,6.1801659837046845,0.0571481527965073
8.793816000000001,6.196613595744048,0.05671830507059963
8.798404,6.217436195307507,0.05628965139326538
8.802988000000001,6.239036044604468,0.0558688031260221
8.80758,6.2561828631118175,0.05550230672144467
8.812156,6.280525157200349,0.055128045731841185
8.81676,6.304745266574735,0.054763354291875656
8.821336,6.333584732901506,0.054389109547633915
8.825936,6.363201448961778,0.05402420835693907
8.830520000000002,6.394617033917347,0.05365900302268794
8.835108,6.4208023383498025,0.05334029725577766
8.839699999999999,6.446621088639822,0.0530425679958164
8.844284,6.468231177568521,0.05278223398271868
8.848875999999999,6.490085635925511,0.05250916385272944
8.853468000000001,6.517947624539117,0.05219854708740926
8.858051999999999,6.537636659858374,0.051950175690914355
8.862644000000001,6.557736390768697,0.051727612768356114
8.867232,6.570929156974756,0.05154432473084344
8.871812,6.58820839982799,0.05133428504565215
8.876399999999999,6.602300600481698,0.05115293324922783
8.880984,6.607931336964136,0.050995280374118546
8.885575999999999,6.61601600736123,0.05085023005845609
8.890164,6.620380755253584,0.05071365196648389
8.894756,6.62192501508885,0.050584735868461614
8.89934,6.628210816590647,0.05044129624133264
8.903927999999999,6.6298772611400585,0.05030686726516366
8.908512,6.625003295127644,0.050186810924434756
8.913096000000001,6.611423495515669,0.050101531656182745
8.917708,6.591425470056015,0.05002411705296112
8.922292,6.566808087643974,0.049953709297139375
8.926879999999999,6.539736771317282,0.049870303140490756
8.931479999999999,6.510211521075939,0.049773562734440474
8.936072000000001,6.4790095866534445,0.04967020634889385
8.940676000000002,6.444209914440359,0.04956596406669123
8.945252000000002,6.402992016379592,0.049467782219620116
8.949852000000002,6.362140672461264,0.04934838724829238
8.954436,6.316137091285339,0.049215371764154144
8.959031999999999,6.27050006425185,0.04905960876748348
8.96362,6.215912834190512,0.04895085695760566
8.96822,6.157850051052727,0.04883402207611939
8.972803999999998,6.095822975981916,0.04873849356896542
8.977396,6.020959449215741,0.04865836670297524
8.981983999999999,5.946218107163714,0.04856773288945064
8.986572,5.868656277054597,0.048482944663787095
8.991148,5.7808341138789165,0.04841996160693301
8.99574,5.687615344017351,0.04835435829743941
9.000331999999998,5.596317627765225,0.04827867836788866
9.00492,5.50526428094139,0.04818840806209754
9.009504000000002,5.415110368565202,0.04809416704584833
9.014104,5.324956456189015,0.04799599133223044
9.018696,5.236601412708122,0.047893726701875944
9.023284,5.146080946189498,0.04781361346201743
9.027876,5.0528621763279284,0.04773184750137985
9.032464,4.958377417876276,0.047673172057929834
9.037048,4.860827801939244,0.04763816433211927
9.041644,4.757392840459741,0.047638878619090004
9.046228,4.654857313427886,0.04763554487272109
9.050832000000002,4.546192071425271,0.0476894638947855
9.055424,4.437771198850946,0.04772978502005597
9.060008000000002,4.330005391295978,0.04779103792856784
9.064608000000002,4.23286647095001,0.047791861082104016
9.069208,4.141901407023431,0.04780990966580971
9.0738,4.044029378392589,0.04788606018791389
9.078392,3.94717896892354,0.04795021077280622
9.082996,3.852249613063933,0.04800802856363715
9.08758,3.7598963758331245,0.048076155247170946
9.09218,3.669342007497611,0.04813937538961378
9.096760000000002,3.580708692771538,0.04818906022859917
9.10136,3.491831008617175,0.048264781425432196
9.10594,3.4025867703203745,0.04838380591804587
9.110532,3.3112992936999865,0.04853244906725593
9.115116,3.2182129481843043,0.04869518564134435
9.119708,3.131667013230447,0.048824003082950554
9.1243,3.0442216438289424,0.048965929259956284
9.128896,2.959474577770381,0.04912075036235931
9.133472,2.876770750035407,0.049261029923771585
9.138064000000002,2.7957436064815826,0.04941636932318215
9.142652,2.7150830170701954,0.04954748799064146
9.147248,2.635321862106456,0.049685528694973925
9.151836,2.55490564212336,0.049794665961258665
9.156424,2.468848446026086,0.0499238821348332
9.161015999999998,2.3823805543377468,0.049981271817467074
9.1656,2.3016758234777317,0.0500000133731818
9.170191999999998,2.219705104027631,0.05009590903138786
9.174776,2.1394110687586814,0.050229406455830176
9.179352,2.0552749262708483,0.050455675851713816
9.183956,1.9683182957259262,0.0507193770304874
9.188543999999998,1.8800956765909194,0.051109284913287804
9.19314,1.7921174268842037,0.051469484217763095
9.197732,1.7006636241010424,0.04898768906919649
9.20232,1.6094541907461721,0.04648631738257584
9.206916,1.5250295373814198,0.043962035129982514
9.211496,1.4376622112454325,0.041472813789814336
9.216092000000002,1.3532375578806801,0.038961015210606596
9.220676,1.2689350892300735,0.036426587468492005
9.225276,1.1882303583700584,0.033885243075550006
9.22986,1.1085472466718367,0.031340168372638144
9.23446,1.0352823608212953,0.02878411812175049
9.239044000000002,0.9629169094184022,0.026220329017854378
9.243636,0.891328707749011,0.02367233777745012
9.248224,0.8212950055466242,0.021141820223271778
9.252816,0.7556362908683311,0.01865766153560259
9.2574,0.6911213800659771,0.016170462519631647
9.261996000000002,0.6297935114631493,0.013618230824855467
9.26658,0.5674440236985282,0.011026299536732773
9.271176,0.5153548690004703,0.008340110230948392
