Time,Force,Position
6.204688000000001,0.009190522413650372,0.0
6.20928,0.013997456725904925,0.0
6.213876000000001,0.019826010199952997,0.0
6.218452000000001,0.0237335100645597,0.0
6.223052000000001,0.026741575481518554,0.0
6.227640000000001,0.029749640898477404,0.0
6.232244,0.03173608715364273,0.0
6.236836,0.03294528367530588,0.0
6.241432,0.03337723046346684,0.0
6.246024,0.03789565389880191,0.0
6.250608,0.041514642886489116,0.0
6.255196,0.04999735825485259,0.0
6.259792000000001,0.05860225833736173,0.0
6.264384,0.06720715841987088,0.0
6.268976,0.07593424321652571,0.0
6.273564,0.08094140550844346,0.0
6.278148,0.08390532947677416,0.0
6.282736,0.08390532947677416,0.0
6.287332000000001,0.0831848718116937,0.0
6.291924,0.07952174137537835,0.0
6.296512,0.07471480706312379,0.0
6.3011040000000005,0.06990787275086924,0.0
6.305695999999999,0.06407931927682115,0.0
6.310288,0.06072595091452109,0.0
6.314876,0.05814983228572321,0.0
6.319464,0.05514176686876436,0.0
6.3240680000000005,0.05346508268761433,0.0
6.328660000000001,0.052255886165951185,0.0
6.333252,0.05182393937779022,0.0
6.337835999999999,0.04730551594245516,0.0
6.342423999999999,0.043686526954767955,0.0
6.347028,0.035203811586404475,0.0
6.3516200000000005,0.02659891150389532,0.0
6.356211999999999,0.01799401142138617,0.0
6.360799999999999,0.009266926624731346,0.0
6.365400000000001,0.004259764332813601,0.0
6.369987999999999,0.0012958403644829021,0.0
6.374592,0.0012958403644829021,0.0
6.37918,0.0012958403644829021,0.0
6.38378,0.0012958403644829021,0.0
6.388364000000001,0.0012958403644829021,0.0
6.392956,0.0012958403644829023,0.0
6.39756,0.0012958403644829023,0.0
6.402152000000001,0.0007417088621762635,0.0
6.406740000000001,0.0003097620740152961,0.0
6.411336,0.0003097620740152961,0.0
6.41592,0.0,0.0
6.420512,0.0,0.0
6.425091999999999,0.0,0.0
6.429679999999999,0.0,0.0
6.434264000000001,0.0,0.0
6.438848,0.0,0.0
6.443432,0.0,0.0
6.44802,0.0,0.0
6.452608,0.0,0.0
6.457192000000001,0.0,0.0
6.461780000000001,0.0,0.0
6.466388,0.0,0.0
6.470980000000001,0.0,0.0
6.475584,0.0,0.0
6.480176,0.0,0.0
6.484764,0.0,0.0
6.489368000000001,0.0,0.0
6.493956000000001,0.0,0.0
6.498548,0.0,0.0
6.503128,0.0,0.0
6.507724,0.0,0.0
6.512304,0.0,0.0
6.5169,0.0,0.0
6.521492,0.0,0.0
6.526088,0.001497707398582642,0.0
6.53068,0.0014977073985826417,0.0
6.535272000000001,0.0014977073985826417,0.0
6.539876,0.001497707398582642,0.0
6.544468,0.001497707398582642,0.0
6.549056,0.001497707398582642,0.0
6.553656,0.001497707398582642,0.0
6.558244,0.001497707398582642,0.0
6.562836000000001,0.001497707398582642,0.0
6.567424000000001,0.001497707398582642,0.0
6.572024000000001,0.001497707398582642,0.0
6.576608,0.001497707398582642,0.0
6.581200000000001,0.009023424317258319,0.0
6.585792,0.024898660324794788,0.0
6.590368,0.0459363732216658,0.0
6.594964000000001,0.0744683122083779,0.0
6.599552000000001,0.1122933461802268,0.0
6.604127999999999,0.1568353565084146,0.010249871907839617
6.60872,0.21373531930711975,0.01967743182476096
6.613315999999999,0.2792733120716052,0.02897699000516148
6.61792,0.35170725797499697,0.03825746108886392
6.622512,0.43709742929984086,0.04720276098404303
6.6271,0.5367666067046435,0.05569319287457845
6.631704000000001,0.6449516293610806,0.06420713242708184
6.636292000000001,0.7616524972691525,0.07274114885967242
6.640896,0.8904669482194504,0.0811206796526113
6.645484,1.032660970802059,0.08927601924269794
6.650084,1.1863135114075376,0.09732899810609898
6.654672,1.3493813317122985,0.10538923236078468
6.659268000000001,1.5185110633540415,0.11354355394790273
6.663852,1.6990551715700257,0.12153108606816304
6.668452,1.8888040918738909,0.12939090886344187
6.673044000000001,2.0736475553365064,0.13726338896595816
6.67764,2.255049367539565,0.14504213737844474
6.682224,2.4365631248250312,0.15269113181092467
6.686820000000001,2.6107048407348015,0.16032663458827573
6.691420000000001,2.7723664194599094,0.16808776261948052
6.696016,2.926822282972095,0.16565425760573896
6.700608000000001,3.0684314551571807,0.16409857544718243
6.705208000000001,3.202834912129345,0.16266309278277633
6.709796000000001,3.3314208271928183,0.16118751413263482
6.714392,3.4522681467381586,0.15993945284470312
6.718968,3.5574482868993105,0.15922303093930135
6.723564,3.6547676468281836,0.15848633698139422
6.728156,3.7443484112389243,0.15771944764194468
6.732744,3.8214490384650017,0.15714709205934094
6.73734,3.8875018432592756,0.15676852351243942
6.741924000000001,3.9437728142118287,0.15645933320418992
6.746508,3.992183004932105,0.15612339369050623
6.751100000000001,4.036085783782403,0.15567415752319083
6.755688000000001,4.070128685525464,0.15537277981175937
6.760284,4.09370078659056,0.15525992228239385
6.764868,4.116984376778737,0.15510569843898384
6.7694600000000005,4.135115729709316,0.15507067294129132
6.774056,4.150670964011098,0.15509927989457203
6.778644,4.1688023169416795,0.1550768730237343
6.7832360000000005,4.197394230918485,0.15468915160109653
6.7878240000000005,4.229784110665547,0.15412982398484534
6.79242,4.2651947064493605,0.1534087184592761
6.797008,4.297618488013312,0.15270918948072987
6.801608,4.326933270643253,0.15205271390719288
6.806191999999999,4.351628696320811,0.15152238993076048
6.810791999999999,4.376157795835595,0.1509293576381579
6.8153760000000005,4.399376765311665,0.15032848414324151
6.819967999999999,4.422962288930171,0.1496957475117926
6.824548,4.450223593604789,0.1489108801574383
6.829143999999999,4.4737208343260395,0.14815789765601284
6.833740000000001,4.493864706684991,0.14746250471974218
6.838331999999999,4.51294281843352,0.14674043863351352
6.84292,4.53287622318107,0.14594504727732346
6.847512,4.549578444280463,0.14519223691108557
6.852096,4.569712077007676,0.14430966231808448
6.856696,4.5860816457815226,0.14345630079126365
6.861284,4.599997280640717,0.14263001923221563
6.865864,4.608638493528171,0.14191196310400797
6.870456000000001,4.617646260558061,0.14117027075654032
6.875044000000001,4.616682205398308,0.14072140287924614
6.879636,4.612653292753173,0.1403656273579068
6.884232000000001,4.606092402927869,0.1401161188816188
6.888820000000001,4.601086012569571,0.1398528361006781
6.893424,4.598533556125922,0.139558832251246
6.898012,4.595981099682274,0.13926387725899025
6.902608000000001,4.598048000191012,0.13886849906136658
6.907192,4.599992715985603,0.13848343381063896
6.91178,4.599894193456609,0.13815754378544093
6.916376,4.595587009566294,0.1379610650918631
6.920972000000001,4.594511009324133,0.13772858339905567
6.92558,4.598054366034358,0.13739824947447637
6.930176,4.603807287230943,0.13706476572317372
6.934768,4.609970904018594,0.13676470398308965
6.939356,4.620631693044484,0.13638325787223912
6.943948000000001,4.631292482070374,0.1360082066436741
6.948524000000001,4.646206073906211,0.13557745666390417
6.953124000000001,4.667782261018022,0.13500537929520623
6.957708,4.694999424244009,0.1343188506365996
6.962300000000001,4.717230676375176,0.1337582945179113
6.966896,4.743059666296934,0.13313069337793262
6.971488000000001,4.77056534039984,0.1324887747251164
6.976084,4.798437568645185,0.13181671151555321
6.980676000000001,4.827697970194761,0.13109130595726062
6.985256,4.852461199506097,0.1304428112612328
6.989848,4.879389851855165,0.12973329999591424
6.994436,4.904397450594792,0.12907704155006833
6.999036,4.935290394876889,0.12830221724610738
7.003624,4.9682265774825725,0.1274785154529395
7.00822,5.000629879783046,0.12663311057529067
7.012812,5.030823617597158,0.1257957737521534
7.0174,5.055620748725383,0.12504924214711527
7.021992000000001,5.0743662081483665,0.12438258535643239
7.026580000000001,5.08693781115196,0.12380641340717541
7.031176,5.095378796059749,0.12327355755948488
7.035768000000001,5.100222043176947,0.12279886648945532
7.040356000000001,5.09991305303655,0.12238809522588688
7.044968000000001,5.094207456210266,0.12206166887084409
7.049556000000001,5.082983067983949,0.12182694011992953
7.05416,5.06954911527127,0.12159106582452266
7.058748,5.0566039014151745,0.12131295689005311
7.063336,5.040427503910926,0.12105723491193161
7.06794,5.02245223751138,0.12082695397220768
7.072536,5.000634863892953,0.1206698106321972
7.077132000000001,4.981882347759905,0.12043950800012009
7.081724,4.964395820216943,0.12016179486050364
7.086320000000001,4.944455358759328,0.11990110084601062
7.090896000000001,4.917974486739888,0.11974769589332152
7.095496000000001,4.8910829191293805,0.11956195321499702
7.100084000000001,4.86599022041417,0.1193487231251987
7.104684000000001,4.841796956146607,0.11911961846066138
7.10928,4.821445799097927,0.11881839291720538
7.11388,4.807879422039365,0.11838812557869616
7.118472000000001,4.799054586647334,0.11787388259133456
7.123063999999999,4.792928054598245,0.11732205240481094
7.127656,4.785657718673218,0.11679865932448791
7.132248000000001,4.782762370272285,0.11622344457221598
7.136851999999999,4.7816658907666465,0.11562236440740394
7.1414480000000005,4.783389899318099,0.11497172362546515
7.1460360000000005,4.792309383450733,0.11422202744230368
7.15062,4.799185629259779,0.11351928479667975
7.155208,4.808515808983479,0.1128014176729104
7.159788000000001,4.822098791517126,0.11204745152618849
7.164384,4.8401789462890115,0.11123414307383958
7.168976000000001,4.85789254691846,0.11045430615517472
7.173572,4.872951985653594,0.10977497732740588
7.17816,4.89099823860859,0.10910147410222204
7.18276,4.913175109659392,0.10840421280267533
7.187336,4.936539926034757,0.10774239028536725
7.191932,4.963258110772425,0.10706572408230511
7.196516000000001,4.991164240834659,0.10642224064287704
7.201104000000001,5.01858163204031,0.10582423019574994
7.205692000000001,5.044366480513439,0.10530671136938491
7.210288,5.069296035987549,0.10485995792620047
7.214876,5.095535721500371,0.10443854242753617
7.219468000000001,5.127949263432583,0.10395834353362306
7.224064,5.159341186203002,0.10350393473059463
7.228668000000001,5.195885346231017,0.10302134511014549
7.233256000000001,5.234639070745391,0.10255328662155763
7.237856000000001,5.272126806669681,0.10213169001508295
7.242444000000001,5.312845726242126,0.10170412655437801
7.247044000000001,5.3551191452815745,0.10128375309690749
7.251632000000001,5.398414183482817,0.10085773463485415
7.256228,5.443508090579356,0.10042601347260807
7.260823999999999,5.493221354628279,0.09995289775001281
7.265416,5.541257934496054,0.09948404477027806
7.27,5.590560502953911,0.09898904175816052
7.274592,5.639208006392412,0.0984943128925183
7.279184000000001,5.685812271507326,0.09803591927653293
7.283776,5.729840417993443,0.09760209708509385
7.288364,5.771414630564906,0.09717631634518085
7.292960000000001,5.815032081459958,0.09672459765153325
7.297552,5.856728478745568,0.09629852357118096
7.30214,5.899402353744344,0.09580973850903059
7.306728,5.939622294828467,0.09533243151429609
7.311324000000001,5.978532105873877,0.09484726359808658
7.315908,6.015643048023992,0.09437799341381654
7.320496,6.045558514592924,0.09397194109983359
7.325096,6.073264416675495,0.09355886271921629
7.329684,6.09941581929106,0.09314658538876004
7.33428,6.123357657420266,0.0927268495430383
7.338872,6.143946127187171,0.09232115029900749
7.343464000000001,6.156195317496955,0.09199214513037811
7.348056,6.161004662797264,0.09173323384862958
7.352644,6.161316835859334,0.09150982517071327
7.357228000000001,6.166859289444519,0.09120803404344603
7.361828000000001,6.1671273210579605,0.09093761805038025
7.366424,6.160977126823721,0.09071891143732867
7.37102,6.1583805289314455,0.09042779415335606
7.3756,6.153985062143874,0.0901492807250705
7.380196,6.150855583946387,0.08984105196125622
7.384784,6.1415522493295125,0.08956790423752863
7.389376,6.131305338816361,0.08925201751532061
7.39396,6.117216321084328,0.08897454765311427
7.39856,6.103371672780583,0.08868092840989669
7.403152,6.086462166991461,0.08842776569431456
7.407744000000001,6.071840268954214,0.0881313408104914
7.412336,6.058728728935344,0.08778898470074761
7.416932000000001,6.045861558344768,0.08743055976854258
7.421516,6.030540453839537,0.08707200729193858
7.426112,6.0155859034767465,0.08668944401474903
7.430692,6.000098472808742,0.086287342848234
7.435283999999999,5.9907407571115,0.08580360133069172
7.439871999999999,5.9835484644519905,0.08528156173396605
7.444468,5.97582329148727,0.08474116177074857
7.449056000000001,5.962090588265933,0.08427183096317527
7.453652,5.952077807549334,0.08377168053792274
7.458244,5.9478281876610595,0.08321335387774972
7.462832000000001,5.93781540694446,0.0827101592109822
7.467432,5.9280469956561515,0.0821899828282518
7.47202,5.919178018815492,0.08166528034191672
7.476623999999999,5.915827833374866,0.08110129535792375
7.481211999999999,5.913787777972952,0.08055714766237297
7.485799999999999,5.916244894809276,0.07998820131750253
7.490392,5.916658773322015,0.07944351116528038
7.494972000000001,5.917561390691336,0.07886702435707418
7.499563999999999,5.918219638632365,0.07830865189121738
7.504156,5.920065831897963,0.07778014466973157
7.508756,5.920646036573475,0.07727915730352689
7.513351999999999,5.929443335991962,0.0767344429364508
7.517927999999999,5.936730277392075,0.07623250953133456
7.522527999999999,5.947370587154487,0.07573031411725785
7.527115999999999,5.9582994077938185,0.07526550288928859
7.531715999999999,5.97396977009968,0.07476838075947054
7.536303999999999,5.988374143815457,0.07429712695792189
7.540903999999999,6.008541678359558,0.07378145275207351
7.545503999999999,6.0314075162466025,0.07326167933112669
7.5501,6.054028984705356,0.07276063411504022
7.554696,6.078982202364617,0.0722691151718742
7.559288,6.106267169224384,0.07179160250163252
7.563879999999999,6.1322861474940655,0.07134252436458416
7.568472,6.159082375497251,0.07090400802331143
7.57306,6.186778037948083,0.07046450130750465
7.577655999999999,6.215250950132418,0.0700347794510228
7.582243999999999,6.249242653716785,0.06958231596370563
7.586831999999999,6.286465540949307,0.06914353336069314
7.591419999999999,6.326386731524771,0.06870267922000449
7.596019999999999,6.36925059487147,0.06824519056127872
7.600607999999999,6.414812761561115,0.06778203527494879
7.6052,6.455511201870083,0.06736312115703326
7.609792,6.502994422169167,0.06690510031492389
7.614368000000001,6.550111088325815,0.06647227847723512
7.618964,6.594651635853665,0.06604293581518295
7.623547999999999,6.6388256292390775,0.06564167848635938
7.628128,6.690317282919818,0.06521995560700954
7.632720000000001,6.740542948010475,0.064826784518801
7.637316,6.786926505882248,0.06446160781645932
7.6419,6.834576052344107,0.06408036037183673
7.646496000000001,6.885412641005492,0.0636711304342516
7.651084000000001,6.9386590221329,0.06323398213875066
7.65568,6.991250338240953,0.06278767937554523
7.660260000000001,7.0402439165584125,0.062353930058820735
7.664860000000001,7.092180167647108,0.06190861234562601
7.669448000000001,7.139741431211711,0.0614695421992369
7.674044,7.182805522538073,0.061044191930224395
7.678636000000001,7.224315114397432,0.060615146147030737
7.683236000000001,7.25772979622796,0.06020260463319804
7.68782,7.285747871372601,0.059802680457474194
7.692416,7.312211447050237,0.05939656139850266
7.697008,7.336221088813223,0.058983840418234845
7.701604,7.350869831957291,0.05860591052235125
7.706200000000001,7.362409576167352,0.058209983870814296
7.710800000000001,7.374315874519849,0.057796129500506374
7.715392,7.382091554776544,0.05737212152931633
7.719984,7.380872890556761,0.05696158384915795
7.724572,7.372825304898231,0.05654030264647364
7.729156,7.360280547001461,0.05612191570471065
7.733744,7.3418504435622225,0.055732639243887536
7.738336,7.318023733437097,0.0553485193025355
7.74292,7.284591755264765,0.0550017784418106
7.747508,7.250382527358931,0.05464713993478469
7.752104000000001,7.211553942500712,0.05429874102518268
7.756688,7.1625872092900735,0.053968389709905244
7.761276,7.113620476079436,0.0536343482007155
7.765872,7.0609338203640615,0.053305187733318014
7.77046,7.000929504353359,0.052982428110118704
7.775055999999999,6.943623491685599,0.05265230099787275
7.77964,6.882597556513103,0.05232543299047209
7.784236,6.818751133283517,0.05200178654195383
7.788828,6.75183985256855,0.05169333986379744
7.793419999999999,6.684928571853585,0.05137960895488876
7.798016,6.615196803081529,0.05106678987468037
7.802592000000001,6.542277992109947,0.050775424739287665
7.807192000000001,6.465150519777047,0.05051203919490659
7.811771999999999,6.385979809120557,0.05025635594986331
7.816364,6.310162466826369,0.05000572175955836
7.820959999999999,6.233201320656241,0.04976387189760325
7.825559999999999,6.159182847257349,0.04950277391663066
7.830144000000001,6.082754581392432,0.049271643352842495
7.834735999999999,6.009268988298749,0.049019719246014504
7.839335999999999,5.932474168291395,0.04879879520607345
7.843928,5.861075954969928,0.048571811121524186
7.848532,5.793275479439053,0.048337861764976946
7.853128,5.722532331136944,0.048112927574972125
7.857716,5.656164170358928,0.04789106147745076
7.862308,5.5947038774102165,0.0476945887177332
7.866887999999999,5.532877030319066,0.047516966941642876
7.871468,5.475425170752011,0.04734283860323436
7.876068,5.417362387614227,0.047204259513886536
7.880663999999999,5.361875723105241,0.04707119524372456
7.885260000000001,5.3079435580632595,0.04695096020137515
7.889848000000001,5.258386380545372,0.046834541365492185
7.894439999999999,5.210505887208633,0.0467243761343846
7.899027999999999,5.166223131662487,0.046613302631493984
7.903624000000001,5.125415929192785,0.04650876050852725
7.908215999999999,5.0825654883994975,0.046417622639793994
7.912808,5.044334404558596,0.046317537706868465
7.917400000000001,5.004715147413462,0.04624846533062488
7.921988000000001,4.966117509430122,0.04617058271979637
7.926576000000001,4.927930567037845,0.046124797882200926
7.931164000000001,4.8944851663121005,0.04606286316378384
7.935756,4.856953288939183,0.0460336386827374
7.940348,4.823019149356854,0.046003055384893986
7.944928000000001,4.792560562850973,0.045981602918275785
7.949528000000001,4.756461000230914,0.0459750591507802
7.95412,4.721627426200939,0.045941717617727425
7.95872,4.685894417723316,0.0459074824807698
7.963308,4.647340921188604,0.045879736513940284
7.9679,4.609153978796329,0.04582484406178207
7.972484,4.569168167508759,0.04576815465433736
7.977080000000001,4.529182356221189,0.04571084800312718
7.981680000000001,4.484210633838797,0.045688040096853025
7.986276,4.4373178578469625,0.04567426901109323
7.990879999999999,4.39234613546457,0.045650698657684334
7.995472000000001,4.345453359472736,0.04563629826675466
8.000055999999999,4.301136702109701,0.045633745897511124
8.00464,4.254898991137224,0.04563888425295355
8.009231999999999,4.206207346250093,0.04562210638254986
8.013816,4.164178296638935,0.04557562642029688
8.018403999999999,4.119573128398979,0.04551709299858922
8.023003999999998,4.0723918415302265,0.045442413457026175
8.027592,4.027375977699205,0.04533757466613822
8.032172000000001,3.977496387487508,0.045258553283683264
8.036764,3.9247963092187215,0.045188041801543066
8.041352000000002,3.8750389037211703,0.04509566480240767
8.04594,3.8206621412712347,0.04500435565294799
8.050536,3.766651932963735,0.04487292243252872
8.055124000000001,3.711742290208589,0.04473631393933435
8.059707999999999,3.6550337785581455,0.044590102348610876
8.064304000000002,3.5982030821935562,0.04445318532282453
8.068888,3.5367530288765834,0.04431966498102534
8.073492,3.4791450827784924,0.044166883890090665
8.078083999999999,3.4237025597181345,0.043973134746641294
8.082676000000001,3.358776953324716,0.04381555353417647
8.087252000000001,3.294217901073734,0.04360959731908653
8.091852000000001,3.2290037838033956,0.04337259320814048
8.096428000000001,3.1666101545901464,0.04312098062976277
8.101028000000001,3.103972155948605,0.04288673947048075
8.10562,3.0326283237075056,0.0427024390694864
8.110216,2.9621839259140534,0.042511147024227015
8.114808000000002,2.8932940275876065,0.042342310069343546
8.1194,2.820562022042276,0.04218822308316695
8.124,2.746930582049298,0.04203100320578691
8.128592,2.6734213267704647,0.04185304932813015
8.133180000000001,2.5959477795586037,0.041710158667622156
