Time,Force,Position
6.230404,0.05260574333084999,0.0
6.234999999999999,0.0635884089331526,0.0
6.239588,0.07726937787839874,0.0
6.244183999999999,0.09184978127129274,0.0
6.248771999999999,0.10450913105474538,0.0
6.253368,0.12023333832357859,0.0
6.257968,0.13493592643061827,0.0
6.262563999999999,0.15053794898530581,0.0
6.267156,0.16524053709234549,0.0
6.271744,0.1798209404852395,0.0
6.276335999999999,0.19620021277342922,0.0
6.280923999999999,0.2131231411159646,0.0
6.285515999999999,0.22440509334432146,0.0
6.290111999999999,0.23711936032553707,0.0
6.294696,0.2461137048020156,0.0
6.299292,0.25306481095490707,0.0
6.303884,0.25605162517477015,0.0
6.308472,0.26198111216586806,0.0
6.313068,0.27097545664234657,0.0
6.317656,0.27535044416644017,0.0
6.322251999999999,0.27281846698627044,0.0
6.326839999999999,0.2708193701113115,0.0
6.331436,0.26599978517926337,0.0
6.336015999999999,0.2642450577325959,0.0
6.340615999999999,0.26441138389536967,0.0
6.345203999999999,0.2615128525727629,0.0
6.349803999999999,0.2596359404119497,0.0
6.354388,0.25788121296528216,0.0
6.358979999999999,0.25522705107096677,0.0
6.363567999999999,0.2537166930525906,0.0
6.368164,0.250285281424773,0.0
6.372764,0.24133507839692264,0.0
6.37736,0.23814803619739644,0.0
6.381948,0.23393937483607663,0.0
6.386531999999999,0.23471662456957876,0.0
6.391119999999999,0.237537112626668,0.0
6.395716,0.24509914235028782,0.0
6.400295999999999,0.2498406840168184,0.0
6.404888,0.25061793375032054,0.0
6.409483999999999,0.2524168026456163,0.0
6.414059999999999,0.25997883236923613,0.0
6.418647999999999,0.2620220706928232,0.0
6.423235999999999,0.26520911289234944,0.0
6.427811999999999,0.25842433290223177,0.0
6.432411999999999,0.25356060652155554,0.0
6.437004,0.24653145710314656,0.0
6.441595999999999,0.23950230768473757,0.0
6.446192,0.23042991994274153,0.0
6.45078,0.2231564010960412,0.0
6.455375999999999,0.21281802476396033,0.0
6.459959999999999,0.20362345230781861,0.0
6.464563999999999,0.19982548653756402,0.0
6.469151999999999,0.19116379438663314,0.0
6.473751999999999,0.184667525273435,0.0
6.478339999999999,0.1743291489413541,0.0
6.482939999999999,0.1609259151238926,0.0
6.487523999999999,0.1447021932493419,0.0
6.49212,0.12779004065594132,0.0
6.496711999999999,0.11450899155262556,0.0
6.501303999999999,0.10302681134460548,0.0
6.505891999999999,0.08815789707479195,0.0
6.510487999999999,0.0798627590662981,0.0
6.515079999999999,0.06781433285357383,0.0
6.519672,0.06295060647289755,0.0
6.524263999999999,0.05514420732098638,0.0
6.528855999999999,0.05040266565445579,0.0
6.533443999999999,0.044606139126638314,0.0
6.538036,0.04514925906358793,0.0
6.542627999999999,0.053020278927604816,0.0
6.547215999999999,0.07001806761398467,0.0
6.551812,0.0938550173708491,0.0
6.5564,0.1250198670547808,0.0
6.560991999999999,0.1658443658662863,0.009014899923692941
6.565579999999999,0.20901085351003712,0.01848306153092543
6.570167999999999,0.2609375558337139,0.027969582970702962
6.574764,0.323912080589195,0.03718078853992858
6.579348,0.3928263319675129,0.046560232471107944
6.583959999999999,0.4699232401545216,0.05607554617030522
6.588547999999999,0.554070313140813,0.06555848681985578
6.593135999999999,0.648776469702326,0.07472011649053888
6.59774,0.7589388019192304,0.08339138169932775
6.602328,0.8723091917165344,0.09219243150354918
6.606923999999999,0.9979487149697036,0.10092395427769166
6.611511999999999,1.1309269138990747,0.10965913016159555
6.616116,1.2726653275083721,0.1184174979201529
6.620704,1.4214872716164453,0.1271583273653473
6.625304,1.5849440001977793,0.13555154840554728
6.629892,1.7444369729634808,0.1440352039805641
6.634492,1.8977899911266825,0.15253835679832964
6.639075999999999,2.045736162972258,0.16099295329005353
6.643668,2.1865988043190585,0.16943203368129975
6.648247999999999,2.320011361024646,0.17784050749611524
6.652843999999998,2.4464625719456023,0.17721898703720596
6.657428,2.574458042701824,0.1759944861468572
6.662019999999998,2.701055100522077,0.17464207283792962
6.666599999999999,2.8221672687591877,0.17354643687725024
6.671191999999998,2.9418810240603284,0.17222310417210082
6.675775999999999,3.0592527905292233,0.1706617130779556
6.680367999999998,3.1757148829187316,0.16897544045640872
6.68496,3.280107533714642,0.16767905453121498
6.689536,3.371453265203789,0.1669338427308081
6.694127999999999,3.4588244651281688,0.16606718158649536
6.698703999999999,3.539767199573129,0.16522726741114563
6.703292000000001,3.6190230102052006,0.16423736556658103
6.707895999999998,3.6946708434149422,0.1631516219489309
6.712484,3.7645452761646214,0.1620684882194952
6.717079999999999,3.823948908236335,0.16129716754985204
6.721668000000001,3.8881721252400965,0.1603037630722949
6.726255999999999,3.9554601997292385,0.15921599223089314
6.730851999999999,4.022137350647653,0.15820754940738357
6.735451999999999,4.088325762709483,0.15725301556959895
6.74006,4.154391990057169,0.15632483026572933
6.744636,4.220991097710065,0.15541896254126647
6.749231999999999,4.2820272725143,0.15463996549012704
6.753807999999999,4.336845449450516,0.15396685995929202
6.758407999999999,4.386833801822948,0.15330490975998418
6.762992000000001,4.4317479602033005,0.15268716961530152
6.7675920000000005,4.4754741732590855,0.15208041705267647
6.772183999999999,4.51057259598083,0.15166857206683754
6.776779999999999,4.545626877253945,0.15118424930635055
6.781355999999999,4.581247940649161,0.15057464795468442
6.785947999999998,4.617191416738186,0.14987475865315858
6.790536,4.650270263321494,0.14919525313696194
6.795127999999998,4.672145200941961,0.14874268237607693
6.799716,4.68641396739018,0.14842710375659318
6.804303999999998,4.698595354066186,0.1481148177265254
6.808892,4.7052138078935295,0.14787298017342315
6.813483999999999,4.705125524996273,0.14774696048470556
6.818068,4.7021726125933,0.14762953969409098
6.822655999999999,4.702362600941224,0.1473488231570466
6.827248000000001,4.704551686164107,0.14694832474736957
6.831835999999999,4.703753957167128,0.14656524742507143
6.836427999999998,4.702134836988018,0.14612969863177322
6.841016,4.701415151256556,0.1456768646832553
6.845603999999998,4.70273870384868,0.14516568882405437
6.850211999999999,4.706394005641311,0.1446337240380557
6.854800000000001,4.709804938005651,0.1441229698814618
6.859403999999998,4.71129481676055,0.14366434180407903
6.863996,4.714050684105533,0.14315180972220481
6.868583999999999,4.717828170612311,0.14261011959038195
6.873179999999998,4.719318049367209,0.14214963490621377
6.877772,4.718642505084376,0.14176005536187114
6.882363999999999,4.7180891455156875,0.14135979716178604
6.886944,4.724731261528182,0.14081884170650474
6.891539999999999,4.736769984226563,0.14017067037054526
6.89612,4.747909272477297,0.13953930564035483
6.900715999999999,4.76240192909033,0.13885737995488745
6.905307999999998,4.775384227684987,0.1382448963693184
6.909904000000001,4.786978352975414,0.1376986830067421
6.914496,4.792687132723371,0.13730665915530604
6.919080000000001,4.796108304719451,0.13699602429125526
6.923680000000001,4.804803898687271,0.13659695023459478
6.928272,4.812355688779152,0.13623749512962216
6.932859999999998,4.816964806099798,0.1359501517511444
6.937456000000001,4.819286315668566,0.13574097990165254
6.942043999999999,4.821730009951479,0.13552212546870895
6.946635999999998,4.8290374306150685,0.13519171953050116
6.951224,4.8343016129550715,0.1349158038890615
6.955815999999999,4.8439407828191685,0.13457424365481116
6.960408000000001,4.858077124921505,0.13416176683706516
6.964995999999999,4.874378890061573,0.13368792062207258
6.969595999999999,4.892846078239373,0.13315714803361584
6.974176,4.913889385045972,0.13259907495209428
6.978767999999999,4.933622561813857,0.13203885547380254
6.983360000000001,4.951023989381237,0.13149542661838381
6.987947999999999,4.972389708881645,0.13086977513188908
6.992543999999999,4.996942470581578,0.1301727090843734
6.997132000000001,5.024027209461682,0.12938436796098704
7.0017320000000005,5.0514785024842235,0.1285678682387668
7.006323999999999,5.079051980220909,0.12773459856168518
7.010915999999998,5.106992012100032,0.1268730773533548
7.015515999999998,5.132722479492795,0.12602835903982598
7.0201080000000005,5.161806315247857,0.12515505222381246
7.024704,5.192811204612362,0.12424055361330641
7.029291999999998,5.2267587667481,0.12326925777627093
7.033891999999998,5.259806894436191,0.12231758775461979
7.03848,5.289912349353047,0.12144244409586814
7.043067999999998,5.324226465631222,0.12047503527085353
7.047651999999999,5.3539212249570145,0.11959106662019546
7.052232,5.375931769845039,0.11885189616398645
7.056823999999999,5.3960212611236225,0.11814997094541978
7.061408,5.412801525488534,0.11753589282436121
7.065991999999998,5.426106236777001,0.11696566177913169
7.070584,5.4353244714182924,0.11648118388467761
7.07516,5.44801825913603,0.1159628594568123
7.079743999999998,5.4568699396348865,0.11551405574429545
7.084332,5.460080644019563,0.11515570812131773
7.0889120000000005,5.4630469789759495,0.11481672005357632
7.093495999999998,5.467689998113485,0.11446656507226959
7.098084,5.477973993365199,0.11403459708738858
7.102675999999999,5.486336935007472,0.11363322105444125
7.10726,5.490735584716717,0.11330290289480462
7.111836,5.490226366596656,0.11300139974167277
7.116423999999999,5.492004756228474,0.11264356143161978
7.121008,5.493128080840935,0.1122806118785439
7.1255880000000005,5.494495774881688,0.11190025628179638
7.130188,5.49226573113185,0.11156031268729416
7.1347640000000006,5.4813298537824515,0.11135721461527426
7.139351999999999,5.46883947696605,0.1111556429003832
7.143940000000001,5.4624788151204084,0.11083696036037669
7.148540000000001,5.457139772436562,0.1104983454095475
7.153119999999998,5.454332706932885,0.11008487945920513
7.157716000000001,5.448460783943827,0.10972676579823715
7.162295999999998,5.4481076523548015,0.1092978374658575
7.166888,5.443135163813392,0.10892991550707203
7.171471999999998,5.439184294433775,0.10854229298004996
7.176068000000001,5.436377228930098,0.10812476347305303
7.180651999999999,5.436512836197655,0.10766167312867758
7.18524,5.433172890388766,0.10722932862312044
7.189816,5.422393099570405,0.10689278577066184
7.194399999999998,5.413656547075629,0.10651758368990542
7.198983999999999,5.409417166819092,0.10609356829312121
7.203571999999998,5.407631720477208,0.10565701571110588
7.208164,5.400083113307001,0.10530403645160126
7.212751999999998,5.389836202793849,0.10497858503104301
7.217327999999998,5.378445488404758,0.10467959491762294
7.221931999999999,5.368076393177461,0.10435995023341356
7.226520000000001,5.363348274064342,0.10396196100192238
7.231111999999999,5.362462262170106,0.10350635838306299
7.235703999999998,5.357734143056988,0.10310853107199817
7.240283999999999,5.357503196182108,0.10266829243977964
7.244887999999999,5.354207391821848,0.10228192643891937
7.249479999999998,5.357818552165851,0.10178762867351605
7.254075999999998,5.35705472498576,0.1013302737505258
7.258651999999998,5.358211951415113,0.10084531206870576
7.263251999999998,5.35834755868267,0.10037787105222672
7.26784,5.361958719026673,0.0998873390222362
7.272444,5.361727772151793,0.09945090414439943
7.277027999999998,5.3650945630675055,0.09898175983095156
7.28162,5.376678448726193,0.09843138124258938
7.286200000000001,5.3917378874613275,0.09786398285672618
7.290796,5.405242826729457,0.09729952842395494
7.2953839999999985,5.420668819607028,0.09671482814559476
7.299972,5.443412472779927,0.0960616929303409
7.304559999999999,5.4684878751533335,0.09541236728928856
7.309148,5.497405384745623,0.09472165531916073
7.313735999999999,5.531597316309653,0.0940005876704429
7.318328000000001,5.569753539806711,0.09323609881786638
7.32292,5.611385316380214,0.09246829184625212
7.327507999999998,5.653794342687221,0.09170391251181573
7.332087999999999,5.689007893413045,0.09100249014940774
7.336667999999999,5.728063551357751,0.09026147648119308
7.341255999999998,5.764953786264725,0.08956944901879953
7.345839999999999,5.804664509228788,0.08885292688675654
7.350424,5.847972969983442,0.08812133563579391
7.3550119999999986,5.89704459156642,0.0873399270751101
7.359604000000001,5.941374671482868,0.0866102655195873
7.364204000000001,5.987747989722903,0.08585706264325235
7.368796,6.034243492677083,0.08510780825605807
7.373372,6.077141257840673,0.08439535329513907
7.377967999999999,6.119261773270759,0.08369567238836066
7.382543999999999,6.162159538434349,0.08300433080113286
7.387143999999999,6.207222726635671,0.08229427026144176
7.391732000000001,6.248688177046401,0.08161411179421213
7.396328,6.290520181599569,0.08091745717489568
7.400911999999998,6.328510078933854,0.08026138114929177
7.405504,6.36224717345819,0.0796213393341063
7.410091999999999,6.391364911030143,0.07901938204557273
7.414683999999998,6.412920618878475,0.07847894352084274
7.419263999999998,6.432677457831512,0.07794688101740009
7.423848,6.454477535108135,0.07739066456190831
7.428439999999998,6.475500362651258,0.076837504620234
7.433032000000001,6.497911363498609,0.07625722288017878
7.437611999999998,6.523265037117196,0.07565929195691563
7.442208000000001,6.5433442887640405,0.0750822082162252
7.446804,6.5559836954014115,0.07455334391623536
7.451387999999998,6.567968037019426,0.07401112760924966
7.455984000000001,6.57713189058035,0.07348769789006077
7.460560000000001,6.580654768027098,0.07299954906791954
7.465139999999998,6.580702092397399,0.07251812895137225
7.469736000000001,6.572532322024724,0.07207378167941692
7.474323999999999,6.561786433023251,0.07163210189512055
7.478919999999999,6.545277383193453,0.07123190803270806
7.483512000000001,6.530034321953742,0.07080734294394185
7.488112000000001,6.513891826266382,0.07038574455383141
7.492715999999998,6.499137503883253,0.06993239110760176
7.497299999999999,6.484260996785977,0.06948429001294695
7.501899999999999,6.4692623049745555,0.06904143792782577
7.506475999999999,6.454630167305572,0.0685741250405094
7.511075999999999,6.443185071836113,0.06806947478406634
7.515664000000001,6.431373422224218,0.06758405429254645
7.520264000000001,6.414698046231648,0.06713100572406228
7.524847999999999,6.392015139982461,0.06672691428990503
7.529447999999999,6.361525834581363,0.06637708170226173
7.534040000000001,6.334756451685003,0.06600793561941656
7.538636,6.3115848065792335,0.06562676507317408
7.543223999999999,6.294176322301788,0.06520909658614933
7.547816000000001,6.279466141367287,0.06478325712470406
7.552399999999999,6.270274751832819,0.06433524983717133
7.556995999999998,6.260594623441767,0.06391124322582253
7.561579999999999,6.257210536184251,0.06346825577655513
7.566171999999998,6.2551365789654465,0.06304754626264837
7.57076,6.254861490641938,0.06262156764168447
7.57536,6.247557252900024,0.06225028741667504
7.579947999999998,6.240253015158107,0.06187893415060782
7.58454,6.234381092169049,0.06152535279790766
7.589131999999999,6.231451841951225,0.06115277361309603
7.593719999999998,6.2322425142381395,0.06076734626470261
7.598312,6.235487120439706,0.060389165812620584
7.602899999999998,6.2354224997275995,0.060050717014995134
7.607492000000001,6.239199986234377,0.05969334652496376
7.612075999999998,6.248496264141186,0.059318944188720295
7.616664,6.2613902798385865,0.058936157514592996
7.621247999999998,6.278004218040726,0.05853829197786998
7.625836,6.295395405976366,0.05815112872557668
7.630423999999998,6.313930397787946,0.057752815709156295
7.635016,6.328256728238205,0.05739675090570825
7.6396039999999985,6.340906374507315,0.05703801567284097
7.6442039999999984,6.35175715188113,0.056683933865165646
7.648788,6.369514893959208,0.05628982998011339
7.653388,6.384329963266049,0.05591289651764865
7.657972000000001,6.399755956143621,0.05550376222541289
7.662568,6.414937579592901,0.055108890072509506
7.667151999999998,6.439602286375242,0.05467702408983282
7.671748000000001,6.461979385405704,0.05427391850900728
7.676344,6.481291626950786,0.05389515821502699
7.680935999999999,6.497416826296341,0.05354775113263438
7.685535999999999,6.50843392983293,0.05323880278405115
7.690127999999998,6.519451033369517,0.05293054008378777
7.694716,6.534432428839134,0.05260035047617321
7.699311999999999,6.54352847876628,0.05230162391119217
7.703887999999999,6.548660236760399,0.05202576686328962
7.708476000000001,6.554036364182807,0.05173720860420879
7.713063999999999,6.556592003548128,0.05145617837718512
7.717648,6.549420190152096,0.051219337813112775
7.722239999999999,6.536118661785305,0.05102477054288989
7.72682,6.521673329542571,0.050843269122561964
7.731400000000001,6.506861443157401,0.05068066441849436
7.735991999999999,6.487430199819847,0.050525384374600676
7.740579999999998,6.460192557330381,0.050406014832632864
7.745179999999998,6.434998153164502,0.050271119778095535
7.749772,6.40457346847551,0.05017652215749345
7.754359999999998,6.371694849871865,0.05006776140190297
7.758955999999998,6.335096308763484,0.049964926301499825
7.763552000000001,6.299519386816895,0.04985435331207897
7.768143999999999,6.2584236734702765,0.049751284428186424
7.772724,6.212708603171271,0.049654941515978546
7.777324,6.1664606525670544,0.04953688153641578
7.781911999999998,6.11624841002981,0.049439540649814595
7.786511999999998,6.059129202788303,0.04937663418777658
7.7911,6.001110561099147,0.04931341076897759
7.7957,5.94513515773358,0.04923406347626723
7.800291999999999,5.884418212701481,0.04916660262142293
7.804883999999998,5.825622321278822,0.04908916850031405
7.809476,5.771445786808549,0.04900488014434214
7.814071999999999,5.716492002604774,0.04891295962833101
7.818667999999999,5.657285415591049,0.048805616967068775
7.823263999999998,5.592315667749001,0.04872181799239111
7.827852,5.528778234659812,0.04865910180607588
7.832447999999999,5.464463551837121,0.04858703552249328
7.837035999999998,5.394263523471961,0.04854522981128646
7.841628,5.326106733430389,0.04848655479417111
7.846215999999998,5.253619097313351,0.048477125330228604
7.850815999999998,5.1733250620444,0.04850996256036021
7.855404,5.089555473699004,0.04853141830416702
7.859995999999999,5.008972927553135,0.048515689856811296
7.864584000000001,4.9310886847502085,0.04849953559603851
7.869171999999999,4.8492401500142535,0.04850910973137385
7.873763999999998,4.768657603868382,0.04849001071199433
7.878352,4.687175623274865,0.04847399139131875
7.882939999999998,4.6038947737860525,0.0484581234603986
7.887543999999998,4.512030275411826,0.04848246951143262
7.892132,4.419921407609308,0.04852767942850515
7.896723999999999,4.32307099814026,0.048590656499110624
7.901312000000001,4.222989405023057,0.04862196409612693
7.905899999999999,4.122907811905855,0.04865426155337763
7.910491999999998,4.027323391026891,0.04868170872390381
7.915084,3.9337822084715146,0.048692926225455395
7.919684,3.837542722573194,0.0487107040936262
7.924271999999998,3.7400372480847897,0.04876827335767676
7.928871999999998,3.640610719986943,0.04885203612676553
7.93346,3.5382415191178618,0.04896576405429742
7.93806,3.4370161221247195,0.049073938884111795
7.942640000000001,3.338489028474521,0.049202970080269776
7.947240000000001,3.2395953806818856,0.04937697765917333
7.951832,3.142011862927963,0.04960300545842011
7.956423999999998,3.041730041831097,0.04984138501603223
7.961016000000001,2.9450459585248225,0.05009604807680708
7.965608,2.8473402560567544,0.05036053785538486
7.970207999999999,2.7517999766264194,0.05057984063257054
7.974799999999998,2.6580585660913796,0.050807907305058846
7.979388,2.569058697222871,0.051021519710222674
7.983979999999999,2.481080447516155,0.05123282016975735
7.988571999999998,2.3919583939335,0.051517994601300625
7.993155999999999,2.302225416780116,0.0519404876342519
7.99774,2.21147082046494,0.05243072775039238
8.002336,2.120838408863909,0.05288292055642898
8.006927999999998,2.032127050872319,0.05332077605923527
8.01152,1.9453367464901705,0.053771385858246985
8.016112,1.864553972364638,0.05408298405677605
8.020699999999998,1.7952975198957535,0.05420381647321994
8.025284,1.7287393707698127,0.05434826616492934
8.029879999999999,1.6651238944151066,0.05444617518697024
8.034468,1.6046954602599264,0.0544359737128677
8.039064,1.5442670261047466,0.05445544311328285
