Time,Force,Position
11.8602,0.0822982454603883,0.0
11.864795999999998,0.09085553816961184,0.0
11.869391999999998,0.09941283087883537,0.0
11.873991999999998,0.10694850442626538,0.0
11.87858,0.11076425546895832,0.0
11.883176,0.11560162567344479,0.0
11.887756,0.1156016256734448,0.0
11.892339999999995,0.11968810232061891,0.0
11.896928,0.12250859037770812,0.0
11.901519999999998,0.11993247174891025,0.0
11.906112,0.11927740672955373,0.0
11.910704,0.1223422642149343,0.0
11.915295999999998,0.12234226421493428,0.0
11.919888,0.1160903645300275,0.0
11.92448,0.1108600840069142,0.0
11.929064,0.1043460296212777,0.0
11.933643999999996,0.09501148717855198,0.0
11.938232,0.08645419446932844,0.0
11.942828,0.07777471704595922,0.0
11.947423999999998,0.06999467407023786,0.0
11.952019999999996,0.06131519664686867,0.0
11.956612,0.05275790393764513,0.0
11.961208,0.044200611228421595,0.0
11.965784,0.03666493768099157,0.0
11.970384,0.032849186638298625,0.0
11.974971999999998,0.028011816433812155,0.0
11.979571999999996,0.02623930371470626,0.0
11.98416,0.021401933510219795,0.0
11.98876,0.01578731357223115,0.0
11.993344,0.011971562529538208,0.0
11.99794,0.008155811486845263,0.0
12.002527999999998,0.0034406259965044693,0.0
12.007123999999996,0.0007686788297507204,0.0
12.011727999999998,0.0003843394148753602,0.0
12.016327999999998,0.0,0.0
12.02092,0.00013996998658401776,0.0
12.025512,0.002078808868463738,0.0
12.030103999999998,0.006060886073930504,0.0
12.034688,0.011064582441190792,0.0
12.039275999999996,0.0170898979702446,0.0
12.043868,0.02413683266109194,0.0
12.04846,0.030528702332582765,0.0
12.053048,0.03974106006116281,0.0
12.057644,0.04985285223739071,0.0
12.062223999999995,0.06074189414712079,0.0
12.066803999999998,0.07649466243752716,0.0
12.071399999999995,0.09134799628028566,0.0
12.075988,0.10043816929472003,0.0
12.080583999999998,0.10965052702330008,0.0
12.085168,0.11951794977123663,0.0
12.089759999999998,0.12962974194746452,0.0
12.094359999999998,0.13679886135245753,0.0
12.098951999999995,0.14576684965274628,0.0
12.103548,0.15293596905773926,0.0
12.108135999999998,0.1593278387292301,0.0
12.112731999999998,0.16468030396648906,0.0
12.11732,0.1664350314131566,0.0
12.12192,0.16716813969803065,0.0
12.126511999999998,0.16675744410696547,0.0
12.131116,0.16442569490645892,0.0
12.135707999999996,0.1599285226682197,0.0
12.140292,0.1550647962875434,0.0
12.144872,0.14725839713563224,0.0
12.149463999999998,0.13765312908842536,0.0
12.154055999999995,0.12676408717869525,0.0
12.158648,0.11101131888828891,0.0
12.163231999999995,0.09666450917455144,0.0
12.16782,0.08910247945093162,0.0
12.172407999999995,0.07989012172235156,0.0
12.177004,0.070022698974415,0.0
12.181596,0.059910906798187114,0.0
12.18618,0.052741787393194114,0.0
12.190763999999998,0.04377379909290541,0.0
12.195348,0.036604679687912395,0.0
12.199924,0.03021281001642157,0.0
12.20452,0.024720374792578593,0.0
12.209107999999995,0.022554951754845877,0.0
12.213691999999998,0.017839766264505084,0.0
12.218287999999998,0.01465272406497884,0.0
12.222872,0.01122131243716126,0.0
12.227467999999998,0.00893370468528287,0.0
12.232059999999995,0.0076677160951980055,0.0
12.236659999999995,0.006261757518529123,0.0
12.241248,0.005755233389508091,0.0
12.245852,0.005755233389508091,0.0
12.250439999999998,0.005755233389508091,0.0
12.255039999999996,0.005248709260487059,0.0
12.259619999999998,0.003720565969672505,0.0
12.264219999999998,0.005126524546341388,0.0
12.268804,0.007431917570658122,0.0
12.273395999999998,0.011780548918561902,0.0
12.27798,0.017928049161761384,0.0
12.282576,0.02113287663372597,0.0
12.287176,0.02139503133445566,0.0
12.291767999999998,0.023578239644626728,0.0
12.296356,0.026783067116591314,0.0
12.300952,0.02551707852650644,0.0
12.305536,0.025517078526506448,0.0
12.310136,0.024111119949837563,0.0
12.314723999999998,0.023848965249107873,0.0
12.319315999999995,0.023586810548378183,0.0
12.323908,0.023324655847648493,0.0
12.328495999999998,0.023324655847648493,0.0
12.333088,0.023324655847648493,0.0
12.337675999999998,0.023324655847648493,0.0
12.342267999999995,0.023324655847648493,0.0
12.346864,0.0233246558476485,0.0
12.351447999999998,0.0233246558476485,0.0
12.356047999999998,0.021918697270979615,0.0
12.360636,0.01961330424666288,0.0
12.365219999999995,0.015264672898759097,0.0
12.369816,0.009117172655559613,0.0
12.374403999999998,0.005912345183595028,0.0
12.378999999999998,0.011152865338447096,0.0
12.383575999999998,0.018647091428288184,0.0
12.388175999999998,0.02827283873897262,0.0
12.39276,0.045138203079468024,0.0
12.397355999999998,0.06836153527456489,0.0
12.401947999999996,0.09804723476597052,0.0
12.406544,0.12974227076407385,0.0
12.411136,0.16369101269716618,0.0
12.415731999999998,0.20054852558460406,0.0
12.42032,0.24260241717826583,0.007808325304729106
12.424912,0.2857662108309774,0.016107906211721285
12.429512,0.33694687124700223,0.02381038170625316
12.434096,0.39128067204566386,0.03162880520862129
12.438684,0.4477459940651688,0.03968744289981563
12.443272,0.5072422717531649,0.047879892689264264
12.447847999999995,0.5724678084525958,0.05594851663979246
12.452444,0.6394583122304331,0.06433640211038295
12.457036,0.7112786405720574,0.0726712421048164
12.461616,0.7857192289911076,0.08102207078554782
12.466199999999995,0.8609370671436601,0.08933922290284868
12.470788,0.9291418724222543,0.09791962039809698
12.475364,0.9935826137474836,0.1065787179984547
12.479975999999995,1.0542592911193476,0.11543220609353454
12.484564,1.1101502853760528,0.124443548608776
12.489159999999998,1.1639538998605428,0.13321947774667603
12.493748,1.2160808301638828,0.1417502977566954
12.498335999999998,1.2685301731610317,0.15018581812071485
12.502931999999998,1.3191365058142566,0.1586910280763758
12.507524,1.3694101861419339,0.1670397240235264
12.51212,1.4139987489068047,0.16771028007706099
12.516696,1.4598091588131321,0.16780081523113957
12.521296,1.4989128319948593,0.16849424511628872
12.525872,1.5374394834227478,0.1689279018189254
12.530476,1.57334587477321,0.16924294393572448
12.535068,1.6076536252080402,0.1693998814992966
12.539663999999998,1.6367649969366458,0.169713590678309
12.544244,1.666687520215643,0.16957058821894047
12.548839999999998,1.6933347183978578,0.16943085376815614
12.553448,1.7171172870743554,0.16933216666144404
12.558039999999998,1.7437203438079418,0.16906034307874473
12.562635999999998,1.7728553777216984,0.16844883407273
12.567228,1.8044002041014788,0.16759014022541682
12.571815999999998,1.8365559540519876,0.1665370558833815
12.5764,1.8709993117543748,0.16523570061188325
12.580987999999998,1.9016786055033972,0.1641188451321464
12.585576,1.9240966630608147,0.16340241341672546
12.590167999999998,1.9444273408460173,0.16272854892021182
12.594756,1.9674121805255353,0.16177377611222912
12.599339999999998,1.9871658365568985,0.16096792609028018
12.603915999999998,2.005609362549549,0.16011994250259914
12.608507999999995,2.0250303662553644,0.15910445760558278
12.613096,2.0417089251696083,0.15809110929769846
12.617676,2.0551563004356987,0.1572129192670765
12.622263999999998,2.0667606653578643,0.15626430736010496
12.626856,2.0755004007743123,0.15534895987547487
12.631443999999998,2.082519310560983,0.15435643227351836
12.636052,2.0855297869659966,0.15351005657126843
12.640643999999998,2.0836323955417058,0.15284371746653863
12.645235999999995,2.0814464932404952,0.15208342649670964
12.649824,2.0712878656246003,0.1517501918530012
12.654424,2.0603519882752024,0.15143372554990986
12.659011999999995,2.0441416889540633,0.15138306410538868
12.663611999999995,2.0294417476513007,0.15112851592544418
12.668195999999998,2.012532241862177,0.1508952751817062
12.672795999999998,1.993701682463612,0.1507851922328529
12.67738,1.979490480017432,0.15040785885559324
12.681971999999998,1.9642576584094584,0.15010368374841465
12.686567999999998,1.9449383601543109,0.15009302932422708
12.69116,1.9262741269185197,0.1500899661225161
12.695747999999998,1.9092865778638788,0.15002973765324493
12.700336,1.888989801895566,0.15022577579050192
12.704919999999998,1.871802024861262,0.15034061345899127
12.709512,1.857845431475112,0.15034456357743634
12.714099999999998,1.8498183250800602,0.15011064942499097
12.718695999999998,1.8470656406567496,0.1496413136385549
12.723288,1.8442349129679216,0.14933860625718956
12.727864,1.845534803374896,0.14890222819642426
12.73246,1.855584668830057,0.14810462923633455
12.737036,1.865800860447992,0.1474179839531374
12.741628,1.8864437112952643,0.14631093776201654
12.746215999999997,1.9091739419147524,0.14523278337412882
12.750804,1.934890986754103,0.14409250846302926
12.755412,1.9606521730420818,0.14313590845076077
12.759999999999998,1.9841698930268103,0.14247434935476314
12.764595999999996,2.0100193622120455,0.14175181666497239
12.769192,2.0361573422742003,0.14114068065814347
12.773788,2.0646270715368615,0.1404862181186366
12.77838,2.0968167233042596,0.13965076400758206
12.782971999999996,2.1308052439669534,0.1387519379425779
12.787571999999995,2.169535306296178,0.1376512241273031
12.79216,2.2098198680924064,0.13653382320912597
12.79676,2.246384507383899,0.13558839590823726
12.801347999999996,2.2821718969418887,0.13470422249098898
12.805944,2.3162826023187284,0.1339301637024479
12.810531999999998,2.346306831048394,0.13342236319499126
12.815131999999998,2.3773526789398525,0.13283212739499
12.819716,2.4065996579360163,0.13233861106362266
12.824312,2.4286511613509965,0.132132950296472
12.828903999999998,2.45119140362256,0.13183308664602802
12.833496,2.4680465283313167,0.13167311440532237
12.838088,2.480893219658417,0.13158071870750365
12.842683999999998,2.4942286498420994,0.1314043780642603
12.84726,2.507930634168219,0.1311727842403477
12.851855999999998,2.5264522034263863,0.13060325386677027
12.85644,2.545462511541137,0.129958254165317
12.861031999999998,2.560464386274232,0.12937212714219037
12.865624,2.5739117615403213,0.1288089008087532
12.870207999999998,2.5828619645681714,0.12839777291155183
12.874803999999996,2.5882144298054306,0.1281049321347006
12.879392,2.585471985013859,0.1280768359292347
12.883979999999998,2.581419410183574,0.12802381336428192
12.888575999999995,2.5825971158764025,0.1277064380339363
12.893151999999995,2.581320887654579,0.12743417298576606
12.897768,2.579267409699253,0.12717162448931726
12.902355999999996,2.5738605633816274,0.1269778716596866
12.906948,2.5700862597965237,0.12663496952314895
12.911535999999998,2.561037534239678,0.12643837439092293
12.916124,2.554154231720566,0.1261216734894566
12.920716,2.549069798096749,0.12574905855773982
12.925307999999998,2.5427193758828466,0.12546405453566206
12.929911999999998,2.538290007278386,0.12510076841895035
12.9345,2.530385085597479,0.1248272028127627
12.939096,2.5179829916783336,0.12469344993174944
12.943683999999998,2.505580897759188,0.12455054932347555
12.948283999999996,2.494200423001836,0.1243549832747424
12.952872,2.4876836746251607,0.12396808699489946
12.957468,2.4812891109626305,0.12356103320494892
12.962052,2.477059970337833,0.12304033425087148
12.966648,2.477694556093712,0.12233509093102607
12.971239999999998,2.4829484988019757,0.12147505444011755
12.975824,2.4842381495772115,0.12076754209912026
12.980424,2.480541889257625,0.12027353395449762
12.985015999999998,2.4768456289380385,0.11977650255864539
12.989596,2.471106130294865,0.119370788687851
12.99418,2.473050846089457,0.11868187604445216
12.998756,2.474751192455758,0.11804083740485766
13.003352,2.484546448850889,0.11717751451952543
13.007932,2.498838877484259,0.11622369393244361
13.012511999999996,2.514152925279423,0.11525539232537199
13.017104,2.5297113425028783,0.11424258615951022
13.021683999999995,2.5450253902980426,0.1132712654469132
13.026259999999995,2.565613860064948,0.1121892455295189
13.030859999999995,2.5898000676224453,0.11100891878499416
13.035452,2.6139862751799425,0.10986659096997048
13.040048,2.635107625252058,0.1088571842566357
13.044643999999998,2.655740236467592,0.10794885913238828
13.049219999999998,2.6814809434920934,0.10688879461287826
13.053824,2.7069772810883035,0.10587314622443612
13.0584,2.726588273142044,0.10504627907632505
13.063,2.746976514929286,0.10423547325115384
13.067587999999995,2.7770922094778805,0.1031550625296496
13.072187999999995,2.8129710648548,0.10193254412374794
13.076771999999998,2.8522032885940183,0.10069103109464214
13.081367999999998,2.889636643437942,0.0994602640603773
13.085963999999995,2.9201630335776017,0.09845552968941726
13.090556,2.9496678045554683,0.09749709204062325
13.095132,2.9783953257998323,0.0965770543424746
13.099723999999998,2.9994386326064304,0.09586155659120812
13.104323999999998,3.015984767174791,0.09523110003700531
13.108915999999995,3.0340854012101546,0.09460553113051229
13.113495999999998,3.054473642997397,0.09389664252146052
13.118088,3.0722857661558414,0.09322801754873143
13.122675999999998,3.0913638779043704,0.09251293957973421
13.127271999999998,3.1092981857769604,0.09185597595832604
13.131864,3.1263330592019027,0.09120429840169059
13.136447999999998,3.1407918139980473,0.09058080380460186
13.141043999999996,3.149243038537576,0.09012543750193878
13.145632,3.160514751134194,0.08962517045779991
13.150216,3.1786934284350754,0.08896958330453973
13.154804,3.1953176062689526,0.08831735937200674
13.159391999999997,3.2050348193985667,0.0878331785047076
13.163984,3.208089437252208,0.0874719213811245
13.168571999999998,3.20779068674355,0.08712715284878188
13.17316,3.21427671622501,0.08665403778410026
13.177751999999998,3.226525906534793,0.08607609784444313
13.18234,3.2396745312922244,0.08549131538982258
13.186943999999995,3.247304364649623,0.08498401564851034
13.191523999999998,3.258121240206548,0.08438504492871043
13.196119999999995,3.2736796574300033,0.08371396412809402
13.200708,3.2894824440817505,0.08302113820078302
13.205308,3.3031198076957646,0.08239847812868538
13.209895999999995,3.3167571713097788,0.08177902662392438
13.214492,3.3291285463337075,0.08121975564503241
13.219088,3.3386794333005474,0.08069986553153694
13.223679999999998,3.3541156658098568,0.08007889501820104
13.228271999999995,3.3686524638715185,0.07946220046395772
13.232864,3.3822898274855318,0.07884982893309599
13.237451999999998,3.391307834147161,0.07829874363882683
13.242044,3.3982826024852035,0.07780419154785206
13.246631999999998,3.405013001394954,0.07733827826764329
13.251216,3.411987769732996,0.0768435033769595
13.255796,3.4198619725186856,0.07633307482770674
13.260396,3.4277361753043762,0.07582154633113465
13.264983999999998,3.4317682708711836,0.0753768027027286
13.269568,3.4311810094856057,0.07498497717236144
13.274159999999998,3.431737551975967,0.07456300190750861
13.27874,3.4351145825234184,0.07410324284685371
13.283331999999998,3.437347809194929,0.07367715277929097
13.287916,3.4347173094857646,0.0733273693773528
13.292503999999996,3.4295106911478017,0.07298357145531296
13.2971,3.4254478766857783,0.0726074591597204
13.301692,3.4213850622237545,0.07223125938994122
13.306279999999996,3.416544998028229,0.07184902815190664
13.310876,3.41489197603223,0.07139521223034505
13.315459999999998,3.407475793207906,0.07101797442867983
13.320064,3.4059449559260524,0.07055701314806317
13.324652,3.4064573569677856,0.070057438059878
13.329248,3.4088908116189605,0.06953201417105437
13.333827999999995,3.406582724603604,0.06905857449846058
13.338424,3.4091383639689243,0.06852793464660234
13.343011999999998,3.413370687515395,0.06800077809303086
13.347607999999996,3.420912237975537,0.06739587980647652
13.352192,3.4312742764927684,0.06676826951941914
13.356783999999998,3.442535749457648,0.06614016648997888
13.361392,3.4608263718409358,0.06541769916672083
13.365983999999996,3.4762965061671345,0.06472644319491984
13.370587999999998,3.4927882596551276,0.06402472839660737
13.37518,3.5112010667525615,0.06330543686740658
13.379768,3.5294916891358494,0.06259128216122892
13.384367999999998,3.5484373765384944,0.06189557858677854
13.388956,3.566361444779346,0.061222357219545935
13.393539999999998,3.583263893858404,0.06056573043804185
13.398128,3.5935037476614893,0.05995987264098572
13.40272,3.6034992320362838,0.05938560391714296
13.407311999999996,3.616559573896459,0.05876566752455911
13.411904,3.62553343910946,0.058217186141252326
13.416496,3.6352845540559633,0.057682021844780565
13.421083999999995,3.64605728816426,0.05713617560237931
13.425667999999998,3.6589954453102895,0.05654446253105319
13.430259999999995,3.664249388018553,0.05602594419367169
13.434848,3.6660277776503714,0.0555028116137212
13.439456,3.6692384820350483,0.055018344451154826
13.444043999999998,3.6713053825437867,0.054564049779307115
13.448652,3.6723506638907306,0.0541250372894289
13.453243999999998,3.663179753619739,0.05381986880703618
13.457843999999998,3.654908277796396,0.053511734666737226
13.462436,3.6454929980971142,0.05322832844018245
13.467028,3.6350560992360372,0.05295782821043589
13.471619999999998,3.6285834923079903,0.05264718398086433
13.476212,3.623909754275238,0.052334075914256775
13.480815999999995,3.6180922123665473,0.052044338737526584
13.485404,3.613296289619649,0.05174107421709084
13.489999999999998,3.6196601343869625,0.0513893399305425
13.49458,3.6239807408306897,0.05106340753002187
13.49918,3.6276904237036876,0.05079746889447701
13.50376,3.627557999357803,0.05055563482409356
13.508343999999996,3.623339098364745,0.050362865594132285
13.512936,3.6178542087816012,0.05020606182082971
13.517528,3.6118805803418748,0.05009500977548457
13.522132,3.60615132133044,0.049958321967227055
13.526728,3.604919234557245,0.04981787248650339
13.531316,3.597923986955725,0.049716193037626484
13.535899999999998,3.5881082512971165,0.0496274592673034
13.54048,3.5746947778479163,0.04953908228443795
13.54508,3.568310453817125,0.04937445797752742
13.549656,3.5607823259103943,0.0492336445285132
13.55424,3.5523547635560173,0.0490923881895284
13.558832,3.546747689258728,0.048938779658688716
13.563419999999995,3.5362768885807623,0.048821055405992464
13.568003999999998,3.52208616539806,0.04871491613585197
13.572595999999995,3.5081398116436486,0.048583136419624376
13.577179999999998,3.4940712731750923,0.048462106851516334
13.581792,3.4746061280206475,0.04833955534520337
13.586379999999998,3.451543245075613,0.0482142880429435
13.590968,3.4221843209970424,0.04808792162000926
13.595564,3.393847016080265,0.04794768401295203
13.600151999999998,3.366653515039428,0.047782100190284185
13.604744,3.334840657046206,0.04762802729367906
13.609323999999996,3.3014732995859792,0.04744585916936439
13.61392,3.2685166377168176,0.04731443840355688
13.618508,3.2299189997334783,0.047205776433128115
13.623103999999998,3.1914435464642836,0.04708311571877226
13.627692,3.1492481706903517,0.046973110196152926
13.632292,3.1115499671546596,0.046858798622520265
13.636883999999998,3.06706698362885,0.04679572893889504
13.641475999999995,3.017964643150655,0.04674738601163674
13.646055999999998,2.966819064348873,0.04672806405794487
13.650648,2.907089836661678,0.04676888351707666
13.655251999999996,2.8454395553650413,0.04683003877881058
13.659848,2.7876313812872877,0.046853027861499065
13.664435999999998,2.725736730562359,0.04694102256955767
13.669031999999998,2.66192102622799,0.047042130856741575
13.67362,2.5949182796940944,0.04721236124962548
13.678211999999998,2.530613836503142,0.04738660435109467
13.6828,2.471950369426369,0.0475291650664492
13.687396,2.4134090870637412,0.04765269109074255
13.691987999999998,2.3551121741294048,0.04773292617629799
13.696568,2.300657368413951,0.04777893370108341
13.701159999999998,2.2477570621655016,0.04786338155173999
13.705748,2.1952233100594896,0.04789623698509377
13.710331999999998,2.1441218727063354,0.04800173419665515
13.714927999999995,2.0948193042484773,0.048108943248900485
13.719516,2.0521793310665912,0.048154676775620554
13.724116,2.0037761970563808,0.0482659270667829
13.728703999999995,1.958071366389114,0.048389991363044615
13.733296,1.9189069462836736,0.0484729314013954
13.737887999999998,1.8808863300541727,0.04851402929274227
13.742476,1.844908952148259,0.048520020750743194
13.747079999999997,1.8135509311947298,0.04850612161429875
13.751659999999998,1.7764297494128767,0.04856103127240405
