Time,Force,Position
12.287664,0.1000725667094875,0.0
12.292248,0.10546917339537461,0.0
12.29684,0.111947244435621,0.0
12.301443999999998,0.11728151159992822,0.0
12.306024,0.12116776026743911,0.0
12.310619999999998,0.12247789030615214,0.0
12.315208,0.12145627114435863,0.0
12.3198,0.11929084810662591,0.0
12.324388,0.11418275229765829,0.0
12.328988,0.11393838286936693,0.0
12.333584,0.11459344788872344,0.0
12.338176,0.11770244682273215,0.0
12.342768,0.12453136826147795,0.0
12.34736,0.13238190886201728,0.0
12.351964,0.1402324494625566,0.0
12.35656,0.15168072785368733,0.0
12.361147999999998,0.16709329817784646,0.0
12.365747999999998,0.17841939185483152,0.0
12.370336,0.1863921171695165,0.0
12.374928,0.19538646164599502,0.0
12.379516,0.20503587114183003,0.0
12.384108,0.21403021561830857,0.0
12.388708,0.21840520314240214,0.0
12.393299999999998,0.2250677984183741,0.0
12.397892,0.23262982814199393,0.0
12.40248,0.23904805398967455,0.0
12.407064,0.24599916014256604,0.0
12.411651999999998,0.25895779655207296,0.0
12.41624,0.26921812961863634,0.0
12.420832,0.27870121295169753,0.0
12.42542,0.2862632426753174,0.0
12.430027999999998,0.29251514236022425,0.0
12.434616,0.29300388121680687,0.0
12.439196,0.29079431673044603,0.0
12.443788,0.2866636986346438,0.0
12.448384,0.27676991971051734,0.0
12.452976,0.2609907952439212,0.0
12.457556,0.24725490910091213,0.0
12.462155999999998,0.2344184574055509,0.0
12.466736,0.2213376362818983,0.0
12.471332,0.21414216070071546,0.0
12.475931999999998,0.20604725067188479,0.0
12.480516,0.20089501341428903,0.0
12.485108,0.19447678756660838,0.0
12.489704,0.1889579961665756,0.0
12.494304,0.18368357419483416,0.0
12.4989,0.17481141443250134,0.0
12.503504,0.15891010525175947,0.0
12.508096,0.14697308800404607,0.0
12.512683999999998,0.13466951661389565,0.0
12.517272,0.12350974909968444,0.0
12.521852,0.1101845585477405,0.0
12.526444,0.10070147521467929,0.0
12.531036,0.09007458800567889,0.0
12.535624,0.0812465696919742,0.0
12.540216,0.07818171220659365,0.0
12.544804,0.0790811466542415,0.0
12.549396,0.07691572361650878,0.0
12.553988,0.07552755031227824,0.0
12.558576,0.0741393770080477,0.0
12.563184,0.06584423899955384,0.0
12.567772,0.060247404334003545,0.0
12.572364,0.05837049217319031,0.0
12.576944,0.055838514993020574,0.0
12.581535999999998,0.05240710336520302,0.0
12.586128,0.04783188786144624,0.0
12.59072,0.04901983318601359,0.0
12.595316,0.054416439871900694,0.0
12.599904,0.05356114687288099,0.0
12.604504,0.05002574860386948,0.0
12.609092,0.046368165620712304,0.0
12.613692,0.0446316362469965,0.0
12.618276,0.04389852796212247,0.0
12.622876,0.04318361775020019,0.0
12.627472,0.0438386827695567,0.0
12.632068,0.042572694179471834,0.0
12.636644,0.04310557448468268,0.0
12.641232,0.045681693113480554,0.0
12.645812,0.04927943090407196,0.0
12.650396,0.05197773424701551,0.0
12.654988,0.055042591732396076,0.0
12.659576,0.057330199484274466,0.0
12.664164,0.05757456891256581,0.0
12.66876,0.05847400336021366,0.0
12.673352,0.06117230670315722,0.0
12.677936,0.06477004449374861,0.0
12.682532,0.06836778228434003,0.0
12.687119999999998,0.0687784778754052,0.0
12.691712,0.07082171619899225,0.0
12.6963,0.07758829811615815,0.0
12.700888,0.08537649919511757,0.0
12.7055,0.09046639693113342,0.0
12.710088,0.093531254416514,0.0
12.714676,0.10042002104782558,0.0
12.719264,0.10287395496247778,0.0
12.723852,0.10185233580068426,0.0
12.728456,0.09698860942000798,0.0
12.733032,0.09202089639813779,0.0
12.737636,0.08637992028395934,0.0
12.742216,0.08380380165516144,0.0
12.746816,0.08560267055045714,0.0
12.751404,0.0871571700174615,0.0
12.756004,0.08625773556981366,0.0
12.760588,0.08740153944575285,0.0
12.765184,0.08314873663580494,0.0
12.769772,0.0783630535206462,0.0
12.77436,0.0697976027081846,0.0
12.77896,0.06327539021931004,0.0
12.783548,0.06310906405653621,0.0
12.78814,0.05730176177958393,0.0
12.792724000000002,0.049513560700624515,0.0
12.797312,0.04808124594776584,0.0
12.801904,0.04497224701375711,0.0
12.806492,0.03994219447030702,0.0
12.811084,0.041041856897618065,0.0
12.81568,0.04549488768722917,0.0
12.820268,0.051091722352779464,0.0
12.82486,0.05793634753546288,0.0
12.829448,0.06353318220101319,0.0
12.83404,0.06810839770476995,0.0
12.838636,0.07112911374152237,0.0
12.843224,0.0763152528160075,0.0
12.847836,0.08330026078578834,0.0
12.852424,0.08632097682254075,0.0
12.857028,0.09359449566924109,0.0
12.86162,0.10230032926880012,0.0
12.866212,0.11196544250857275,0.0
12.870816,0.11970950213890402,0.0
12.875404,0.12265217491013895,0.0
12.880007999999998,0.12829315102431738,0.0
12.884588,0.1339939723310616,0.0
12.889183999999998,0.13518191765562892,0.0
12.893772,0.140055883668044,0.0
12.898364,0.1540124770541939,0.0
12.902948,0.1696118528046044,0.0
12.907548,0.18889724924286266,0.0
12.912128,0.20880380888358804,0.0
12.916724,0.23341800837395468,0.0
12.921308000000002,0.26196259798046034,0.0
12.9259,0.29149490493187014,0.0
12.93048,0.3244688631428363,0.008743993318495076
12.935064,0.3590856037180632,0.017620434114440184
12.93964,0.3993094185905791,0.02625876605858067
12.944232,0.4466506657787604,0.03470359816679476
12.948824,0.4975116074920155,0.04307614233440116
12.953411999999998,0.5489495709591096,0.0516935600637896
12.958004,0.6043179245423428,0.060277486429452784
12.962584,0.6704014482318326,0.0683798304268872
12.967164,0.7405375467516071,0.07658403493301921
12.971756,0.8170138278535448,0.08455528657052547
12.976344,0.8975426837857673,0.0925897694205917
12.980952,0.9831796355269573,0.10040564083938724
12.98554,1.0710159121227694,0.10789891723674148
12.990132,1.1428184551919551,0.11574856654292279
12.994724,1.2087254130869323,0.1235839556358112
12.999312000000002,1.269103339950138,0.13133999642989044
13.003915999999998,1.3293488424674593,0.13893602614607792
13.008508,1.3791235443068153,0.14685334739791225
13.013104,1.4273776484960556,0.15457662668188452
13.01768,1.4738667856068906,0.16223369117966224
13.02228,1.5111511106298445,0.1614839213928379
13.026856,1.5451159691073881,0.1604957454945968
13.031444,1.5706532652305534,0.1599407857933441
13.036036,1.5894396831804902,0.1596795151188034
13.040628,1.6071161990713771,0.15917996900318404
13.045215999999998,1.6243378779225708,0.1583725915816898
13.049808,1.6355859283340382,0.15776241153043685
13.054388,1.6350971894774553,0.1579145707559055
13.058972,1.6364412213330577,0.15752040655766772
13.06356,1.6333661242159383,0.15723752664072338
13.068152,1.6299583747732709,0.15668601810872693
13.07274,1.6219312683782194,0.15645186962128413
13.077332,1.6087960661741998,0.1566310360062568
13.081928,1.602489785408926,0.1564874934258359
13.086504,1.5973714499682197,0.15639197632620738
13.091096,1.5939739401572914,0.1563842050957612
13.09568,1.592541625404433,0.15639800375227528
13.100267999999998,1.5965059173374614,0.15606753920507133
13.104868000000002,1.598715481823822,0.15602754843530325
13.109456,1.6031346107965438,0.155953167857929
13.114043999999998,1.6169146383881812,0.15522906369808107
13.118636,1.6290621232472966,0.1547480428473068
13.123224,1.6464840300781534,0.1539561108763341
13.127816,1.6650938822335777,0.15317990870494294
13.132412,1.6793728883135366,0.15285206187257708
13.137016,1.697127447469941,0.15237435703483665
13.141595999999998,1.7201564285980868,0.15160851580879844
13.146192,1.7457615283550305,0.15064319122874137
13.15078,1.7680574011983026,0.1500883407569819
13.155384,1.7898645351849916,0.14967489773774237
13.159972000000002,1.8093840614198025,0.14950281565690268
13.164572,1.8326235101593504,0.14911575092322046
13.169164,1.859338511975344,0.1485678571143356
13.17376,1.8915723051913702,0.14776170490318766
13.17834,1.9252384131602553,0.1469433361560106
13.182932,1.961602824472084,0.1460236870265103
13.18752,1.9938807591367387,0.14538948129624615
13.192116,2.0307780507537783,0.14457596261751127
13.196704,2.0704958304279066,0.14361343578386518
13.201292,2.1112352292638294,0.14265053764931998
13.20588,2.145722728414845,0.1421333078368523
13.210472,2.1820090964611554,0.14151011300842417
13.215056,2.2175182147739645,0.14094150127745553
13.219632,2.2589126786292435,0.14008315290758572
13.224216,2.3012065769321706,0.13914527547490316
13.228803999999998,2.3379816838350638,0.13848801392133167
13.233392,2.36936018405207,0.13805406495287195
13.237984,2.4049473456303962,0.13738278381098729
13.242572,2.438857823027573,0.13676489806542633
13.24716,2.4706809206525344,0.13613626265427742
13.251752000000002,2.505935429905313,0.13530366362895851
13.256352,2.5339944635769096,0.1347357711476033
13.260944,2.5579228791527036,0.1342758112621984
13.265536,2.5764546880426096,0.13404044583562305
13.27014,2.5940429210362406,0.13372431882133137
13.274728,2.60468004787698,0.133618526928145
13.279324,2.6210361940974147,0.1331503174297022
13.283904,2.632240103060254,0.1328454587388185
13.288504,2.6402128283749398,0.13260125071023957
13.293096,2.6404571978032307,0.1325605760316663
13.297696,2.642700664106481,0.13230591140162437
13.302276,2.647720477018192,0.13183813543029113
13.30686,2.65004198658696,0.13145844110120788
13.31146,2.6475778130405687,0.13115486834603077
13.316052,2.648667235836141,0.13064017609771378
13.32064,2.6542096894213243,0.12989360861408472
13.325236,2.6643273585102643,0.1288955088852108
13.329824,2.669170605627463,0.12804312031432522
13.33442,2.6725815379918036,0.12717892404756184
13.338996,2.677136274232083,0.1262513512120604
13.343596,2.6723301118534466,0.12562669059151022
13.348188,2.6749196530356563,0.12465606515468763
13.352776,2.682372920598542,0.12351322097961243
13.357368,2.688393873408569,0.12235729814543943
13.361956,2.696213695113892,0.12116781670142235
13.366548,2.7109404815234783,0.1197184595361816
13.371135999999998,2.7199041071047403,0.11848650628876795
13.375724,2.7291121021142937,0.11722487567541798
13.38032,2.741384954609228,0.11585299220889499
13.384904,2.7591765985041947,0.1143121123988109
13.389504,2.777623307418518,0.11280317603610712
13.394096,2.7899403013620803,0.11154128639268684
13.39868,2.805444337505169,0.11015404276598678
13.403287999999998,2.8173947773062937,0.10894596684922925
13.40788,2.82652472905033,0.10784046206888079
13.412484,2.8314460194330464,0.10691528816062419
13.41706,2.834734767083241,0.10612650852785892
13.42166,2.840477448648087,0.10531543430379654
13.426236,2.8450763263369945,0.10454517618759142
13.430839999999998,2.847509780988169,0.10386261435029676
13.435428,2.856117092058733,0.10304544623917791
13.440028,2.8581059493019527,0.10252959380239729
13.444615999999998,2.855886145183854,0.10218377447565682
13.449212,2.8540770366568196,0.10188720583084666
13.453804,2.8501025050920523,0.10168340865212654
13.458396,2.84179712745182,0.10165875329320814
13.462991999999998,2.8358234990120934,0.10163121235657167
13.467584,2.827073523963906,0.1017835952795017
13.472164,2.8178348100591357,0.10199887421109519
13.47676,2.809906226193079,0.10224126992245344
13.481343999999998,2.8009560231652286,0.10251492337139491
13.485932,2.7949484929086132,0.10270582802146687
13.490516,2.786531170185974,0.10301287945185462
13.495108,2.783999193005804,0.10314912740837316
13.499695999999998,2.780079042521404,0.10337081313406013
13.504271999999998,2.777957760932299,0.10355832951839543
13.508864,2.776858098504988,0.10370995931306269
13.513452,2.7764135010970334,0.10387694660490177
13.51804,2.780466075927318,0.10396208442635659
13.522647999999998,2.7881163885481945,0.10398129014806275
13.527236,2.7958888858832167,0.1039841734695452
13.531836,2.81146778237015,0.10377469702866422
13.536428,2.8279461133047303,0.10354520348792173
13.541016,2.8491659859058416,0.10320608807662424
13.545608,2.8723069121163944,0.10282403533265418
13.550199999999998,2.89928994554583,0.10235010542386365
13.554792,2.9256179139559086,0.10186239502946617
13.559372000000002,2.957176162889101,0.10119602187438717
13.563968,2.9861582931934953,0.10056704670962084
13.568552,3.0126864895832375,0.0999629822908012
13.573152,3.037049262935247,0.09943095992504988
13.577744,3.062311470734904,0.09888924311155677
13.582336,3.087940232676999,0.09830089432897735
13.586916,3.109726887400211,0.09781443510695871
13.591508,3.134578399608803,0.09723912916601582
13.596108,3.1578754123503905,0.0966651755645382
13.600699999999998,3.1755314489778,0.09620774675023724
13.605288,3.188934682795262,0.09579155525539046
13.609884,3.198984548250423,0.09540495897983764
13.614468,3.20580323005743,0.0950317637334439
13.619064,3.215931138778109,0.09454857191487805
13.623644,3.2209068102411926,0.09412680216443471
13.628232,3.228414458884446,0.09359300960794881
13.632824,3.228971001374807,0.09313410590543547
13.637403999999998,3.226174175502868,0.09269647958703499
13.641996,3.215404624316245,0.09235417833273632
13.646579999999998,3.2012817047673208,0.09202852362513135
13.651168,3.181639993818364,0.09179184789412814
13.65576,3.1594221642406097,0.0915761154394073
13.660352,3.130786108815175,0.091470893351638
13.664955999999998,3.1068474536076427,0.09116409443676067
13.669548,3.0832753525425467,0.0908048037317617
13.674136,3.059048186458095,0.09042026604395376
13.678731999999998,3.035554128658517,0.08993539973702228
13.683324,3.009483952230141,0.08946595753294558
13.687928,2.982636526068263,0.08898580257557417
13.692507999999998,2.9599977612677044,0.08837445238305874
13.697107999999998,2.936459562019498,0.08776675722536242
13.701696,2.9185623388854705,0.08705244002045925
13.7063,2.9002985616090062,0.08637822307181245
13.710883999999998,2.874472754608921,0.08583908003926696
13.715483999999998,2.851100881523489,0.08529176766584884
13.720076,2.8226209126290893,0.08487260485130244
13.724668,2.8013364193158714,0.08435988790627863
13.729259999999998,2.781484240755513,0.08386883090981456
13.733852,2.7687053530621917,0.08330171078130784
13.738448,2.764920809845349,0.082630659314065
13.74304,2.7659999930091828,0.08185966292522227
13.74762,2.773253032592405,0.08103136250657186
13.752204,2.7947306971752197,0.07996441458514794
13.75678,2.8133098304354274,0.07907302207889695
13.761372,2.8315224095531986,0.07824092909739837
13.765964,2.8478580765101555,0.07753305348355366
13.770544,2.8678356227063326,0.07690028727301555
13.77514,2.888223864493575,0.07631982353863397
13.779728,2.91274272437662,0.07574690977490167
13.784311999999998,2.938571714298378,0.07522802039599441
13.788908,2.974538852572553,0.07459968348808356
13.793496,3.009240002256643,0.0740523183162628
13.798104,3.0504815625025596,0.07343285710253668
13.802687999999998,3.0977747944537204,0.07278956556041896
13.807292,3.1380388769864713,0.07227683052201325
13.811884,3.1848433700810492,0.07168658577555208
13.816468,3.2247408984713632,0.07122887341047794
13.821072,3.2695021532423536,0.07070858900784328
13.825664000000002,3.31606227690864,0.0701931858878764
13.830267999999998,3.3567370550324567,0.0697916773699082
13.834852,3.3988441479091316,0.06943843604793995
13.839452,3.4402961757664503,0.06907999585641886
13.844032,3.4727980005959185,0.06887990186008165
13.848636,3.5074652484631192,0.0686315062031867
13.853224,3.5421324963303205,0.0683881163294914
13.857824,3.586238686081955,0.06797043301872602
13.862408,3.6262142577377867,0.06754693740074276
13.867,3.6683552524313514,0.0670810596147087
13.871595999999998,3.7071428787626157,0.06661640701075956
13.876188,3.745275440074524,0.06613985316056069
13.880784,3.7771119602528973,0.06571288458192326
13.885368,3.80253025458359,0.06532704868047047
13.889948,3.8225519422283947,0.06497346479943436
13.89454,3.839464630939191,0.06459362092854919
13.899128,3.863895207924979,0.06406825919487438
13.903724,3.8848502318343217,0.0635563971744677
13.908316,3.9102582865332756,0.06294865511916782
13.912892,3.9264276273274588,0.062402566107985336
13.917476,3.9363009269881086,0.06188252218445492
13.922064,3.9458857157718374,0.061308462153799016
13.926652,3.9485193984026754,0.060738224135040306
13.931236,3.950375831300011,0.060165416627924136
13.93582,3.9547642413775166,0.05952051825566119
13.940428,3.959885759739896,0.05881772806332544
13.945016,3.961409540311684,0.05812212774256882
13.949604,3.9512848145126784,0.057534951224201734
13.954199999999998,3.9373179814947896,0.056970570965655505
13.958792,3.9207750298481034,0.05640111676594034
13.963388,3.9039877087731254,0.05585089040071897
13.967964,3.8846242690693495,0.05529214587015901
13.972564,3.8670596982608694,0.054730307683005526
13.977151999999998,3.8525599849377694,0.054122982749220824
13.981751999999998,3.8380602716146703,0.05351199289419937
13.98634,3.8212729505396923,0.05294240348964086
13.99094,3.80489632505578,0.05241988510482817
13.995532,3.78647646124828,0.05191815851426504
14.000124,3.766668424136549,0.05146041890518164
14.004703999999998,3.751357559263058,0.05099213786786815
14.0093,3.73988880160845,0.05049486426422192
14.013892,3.7242113825925216,0.050049653144784774
14.018488,3.7108657127771,0.04963038445284972
14.023064,3.6922897624385658,0.04927989613940127
14.027648,3.6655408588056826,0.049021809387103654
14.032236,3.629353013288367,0.04889372022704766
14.036827999999998,3.596885090275788,0.04874775335958292
14.041412,3.5709575778250353,0.048571796357772964
14.045996,3.5545131487073442,0.04834192080769458
14.050596,3.53872378460901,0.048133130332579585
14.055179999999998,3.5240782243866136,0.0478989865238652
14.059768,3.512786032526517,0.04768677859556162
14.064352,3.4947090606763043,0.04751982707119658
14.06894,3.478064403578949,0.047387178609470844
14.073548,3.4611753770533036,0.04727670156245408
14.078136,3.4469846538706013,0.04716585357664479
14.082724,3.4298512579166642,0.047078179602810896
14.08732,3.4115740580867877,0.047013274265009966
14.09192,3.3911314352191786,0.04698477147947683
14.096524,3.3717104315133635,0.04694239225450539
14.1011,3.352045058379256,0.04692167978990008
14.105696,3.3408411494164163,0.046868041419032044
14.110276,3.3286156212917835,0.046826028222604774
14.114876,3.3203543851001784,0.046748716177769614
14.119459999999998,3.3187557441845454,0.04663529574011225
14.124059999999998,3.3221430143637356,0.04646851811732013
14.128644,3.3255302845429244,0.04630343095098816
14.133235999999998,3.32315439389379,0.04617400702892101
14.137844,3.3119504849309505,0.04611760672626247
14.14244,3.298703337644524,0.04608569206123702
14.147032,3.283412952034511,0.04607733324216591
14.151628,3.263625394186258,0.04606486011167798
14.15622,3.2474355741285965,0.0460556513531007
14.160811999999998,3.2286696354421376,0.046030852648533474
14.1654,3.2099036967556787,0.04600584488745348
14.169992,3.190360508335717,0.04596603031116697
14.17458,3.162355855744488,0.04596383459948225
14.179168,3.1362722567627004,0.04594976792136789
14.183763999999998,3.1132535152662935,0.04589634794727173
14.188356,3.0834499937797686,0.04589534144276583
14.192948,3.0468616923031258,0.04595248511343558
14.197536,3.002955730531155,0.04601485120458447
14.202128,2.960315757349268,0.04603166998425872
14.206712,2.9147331113961474,0.046076479773577365
14.211296,2.869272650157172,0.04610400010139366
14.215896,2.828675915298874,0.046084031517835536
14.220484,2.7793733468410164,0.04613406128261384
14.225072,2.731092397544952,0.046172227993303915
14.229664,2.6840774368389724,0.04616601221528621
14.234248,2.634486357504195,0.04614300089972934
14.23884,2.581297540378826,0.046114932650649046
14.24342,2.526842734663372,0.04614059400592328
14.248015999999998,2.4696896256049747,0.04617222090862093
14.252596,2.41049327822299,0.04623970500358469
14.2572,2.3487208122122074,0.04628185365536325
14.261791999999998,2.285271662020275,0.04628679572373723
14.266384,2.2296289109802543,0.046202768032491626
14.27098,2.1693668029878483,0.04613407651091424
14.275572,2.1017870347001137,0.046065929477946216
14.280172,2.0372721238977594,0.045933809711416404
14.284768,1.975044820847284,0.04571264666348927
14.289364,1.9115515292067238,0.045558767839662465
14.293964,1.8469144336902237,0.0454329154459112
14.298552,1.7816222731543676,0.04524058580628693
14.303147999999998,1.7145312437232156,0.045018312196830265
14.307736,1.638734380692505,0.04489615855082086
14.312323999999998,1.5698444823660576,0.04463631681467788
14.316912,1.5008323993254646,0.04440366894989773
