Time,Force,Position
11.571592,0.27332021572165205,0.0
11.576175999999998,0.261994122044667,0.0
11.580756,0.24862479004409488,0.0
11.585364,0.2344782083100206,0.0
11.589956,0.2215976151660312,0.0
11.594556,0.20937208704139829,0.0
11.599148,0.2017659158691503,0.0
11.603736,0.19505917914455015,0.0
11.608327999999998,0.18925187686759787,0.0
11.612924,0.1834445745906456,0.0
11.617524,0.1812350101042847,0.0
11.622108,0.18147937953257606,0.0
11.626703999999998,0.18160156424672177,0.0
11.631284,0.1813571948184304,0.0
11.635892,0.17751508759954768,0.0
11.640484,0.1785367067613412,0.0
11.645079999999998,0.17943614120898904,0.0
11.649664,0.17919177178069767,0.0
11.65426,0.1758825448670258,0.0
11.658848,0.16734303743024065,0.0
11.66344,0.16342288694584037,0.0
11.668031999999998,0.16424427812797068,0.0
11.672624,0.16723109234783373,0.0
11.6772,0.17328276405307735,0.0
11.681792,0.17794626245409043,0.0
11.686372,0.18297631499754055,0.0
11.690952,0.18056652253151645,0.0
11.695536,0.17868961037070322,0.0
11.700116,0.17771213265753785,0.0
11.704712,0.1767346549443725,0.0
11.709296,0.17395830833591142,0.0
11.713883999999998,0.16860584309865245,0.0
11.718488,0.1632533778613935,0.0
11.723076,0.1580230973382802,0.0
11.72768,0.15651273931990403,0.0
11.732272,0.15602400046332132,0.0
11.736872,0.16064335741570623,0.0
11.741468,0.16424109520629762,0.0
11.746068,0.1701264407487674,0.0
11.750672,0.18418473958558537,0.0
11.755264,0.19836522313654903,0.0
11.759856,0.20960303391627777,0.0
11.764444,0.21789817192477162,0.0
11.769044,0.22582675579082848,0.0
11.773632,0.23886343546585292,0.0
11.778228,0.24703638876020112,0.0
11.78282,0.2607281334545821,0.0
11.787416,0.2722103136626022,0.0
11.792,0.28279305942297445,0.0
11.796596,0.293253620469201,0.0
11.801192,0.30371418151542756,0.0
11.805788000000002,0.31621798088524117,0.0
11.810376,0.32680072664561344,0.0
11.814972,0.3400817757489292,0.0
11.81956,0.3506645215093015,0.0
11.824144,0.359081844231941,0.0
11.828732,0.3614916366979651,0.0
11.833328,0.36990895942060464,0.0
11.83792,0.3789813471626006,0.0
11.842496,0.38294563909562906,0.0
11.847091999999998,0.38396725825742256,0.0
11.851667999999998,0.3878535069249335,0.0
11.85626,0.39693613429866825,0.0
11.860848,0.40545197955030293,0.0
11.865428,0.40853731629916107,0.0
11.870019999999998,0.4174740967735996,0.0
11.874612,0.4254333995348728,0.0
11.879204,0.4391219613075807,0.0
11.883808,0.45440916399592113,0.0
11.888404,0.4730938764951898,0.0
11.893,0.4950539140912411,0.0
11.89758,0.5169800498704029,0.007503488532694008
11.90218,0.5444691184982258,0.014819815423307323
11.906768,0.5697147208227982,0.022587694092560326
11.911368,0.5999123324253032,0.030326011581932485
11.915947999999998,0.6344068882863844,0.03803930660500259
11.920547999999998,0.6721767692442482,0.04608647149483022
11.925144,0.7090133139375746,0.054269985096674404
11.929736,0.7496580640328945,0.062453136435566166
11.934328,0.7932115850825598,0.07091810717480024
11.938923999999998,0.8435159843054536,0.07932339320538244
11.943516,0.8968852410137279,0.08744717863440898
11.948112,0.9513541601493134,0.0952817120156417
11.952704,1.0059011225504162,0.10313174922173708
11.957304,1.065800550188778,0.11085500456260522
11.961892,1.1294979435973946,0.11829873288789873
11.966484,1.193195337006011,0.12588046756334953
11.971072,1.2537837314806186,0.1335383581851712
11.975672,1.3146164953835175,0.1412488821888597
11.98026,1.3761823675712905,0.14882787081246954
11.98484,1.4356608599868483,0.15645022994786079
11.989432,1.498037883725013,0.15644759208232592
11.994012,1.558616038567882,0.15663832538945158
11.998603999999998,1.620948920857418,0.15635060963841826
12.003196,1.6799284347846544,0.1562075789907183
12.00778,1.7375978186731778,0.15606879761568476
12.012376,1.7990651683319556,0.1554274250611483
12.016964,1.858567322932664,0.15471082829152227
12.021552000000002,1.9145497830082985,0.154031836576229
12.026144,1.9737973285489767,0.15289336117824923
12.030732,2.03348947149761,0.15163041309766903
12.035336,2.091627114979238,0.150560920329257
12.039916,2.145922651241984,0.1498090986538048
12.044516,2.199563122485373,0.14905009598478827
12.049096,2.2480513564711666,0.14850972077205124
12.053696,2.290487918751716,0.14826901675803758
12.058284,2.333002524297784,0.14785801629763967
12.062884,2.3763724228428704,0.14728790697009603
12.067468,2.4181436804723253,0.14662595486338076
12.07206,2.4515315171960306,0.14623420132080384
12.07666,2.4858968316329,0.14567462999889788
12.081252,2.5155986476687566,0.14522807199235324
12.085856,2.5420251386078307,0.14474665696300393
12.090448,2.564565380879394,0.1443354102742123
12.09504,2.587794589987203,0.1436767448221511
12.099632,2.606726854836436,0.1430405353016404
12.10422,2.6191967523893607,0.14257476704053612
12.108808000000002,2.6285135095596477,0.14204013901621346
12.113396,2.6345549416331524,0.1414602753659346
12.117992,2.6341340064103487,0.1410383840388481
12.122584000000002,2.6240636616917095,0.14094785266937515
12.127176,2.606509330514968,0.14105734229530079
12.131772,2.5901768464796833,0.14094226240756763
12.136360000000002,2.571101917652827,0.14081080315305664
12.140952,2.5543926398433667,0.1403824603845849
12.14554,2.5366176014234845,0.1398880237086315
12.150132,2.519697856002622,0.13923585337065292
12.15474,2.497381503895873,0.13877441952077885
12.159328,2.4751873365032693,0.13828339556996083
12.16392,2.4595335796724918,0.13752189587384042
12.168508,2.4391382811751834,0.13695787830303852
12.173088000000002,2.4169441137825793,0.1364553178450696
12.17768,2.3946277616758307,0.13596811327501765
12.182276,2.3743546478926683,0.1353671685381071
12.186868,2.352815545519421,0.1348517980916686
12.19146,2.333075312041469,0.13426504895331415
12.196056,2.3150117627446676,0.13363037051057805
12.200636,2.3009566468295226,0.13291880259372044
12.205236,2.2882116609530905,0.13222301801859235
12.209832,2.2768989898295167,0.13152421347813514
12.214424,2.2720045445536243,0.1305739872969921
12.219016000000002,2.270996347945243,0.12955622516812418
12.223608,2.2642691319571653,0.12892570973901524
12.228196,2.260406545474805,0.12829455941733647
12.232792000000002,2.2539339385467567,0.12801773030734273
12.237388,2.250081591696136,0.1277907767894152
12.241984,2.2441079632564103,0.12782394511498646
12.246572,2.2443081912360734,0.1276507088286209
12.251156,2.2486390373115386,0.12739191675553602
12.255748,2.251459525368628,0.12727867224598183
12.260336,2.259432250683313,0.12702656065173887
12.264928,2.272312843827302,0.1266790326989724
12.269516,2.2883024359053,0.12630399226821368
12.274108,2.307278842203161,0.12593432193214696
12.278695999999998,2.3246227057685003,0.12571671412085084
12.283288,2.342132895496614,0.1256018222871947
12.287876,2.3608310305492943,0.12553914778743866
12.292468,2.376219938688303,0.1256675240797539
12.29706,2.396761084084907,0.12567405848143767
12.301652,2.416935675339074,0.12574184664267513
12.30626,2.436743712450805,0.12588113998474607
12.310852,2.4585949878861224,0.12592532810865167
12.315456,2.486209424149764,0.12572907348602153
12.320048000000002,2.5206086404035224,0.12530431551867088
12.324648000000002,2.561137571628043,0.12460870502735205
12.329244,2.598190949776117,0.12398398481605462
12.333836,2.636388131800131,0.1232851785011105
12.338432,2.6745853138241444,0.12262360568774937
12.34302,2.707263704448126,0.12215325143631607
12.34762,2.7391648453386046,0.12168583384624684
12.352208,2.7683676828861397,0.12130094720783971
12.356808,2.796260390394962,0.12090481099455097
12.361396,2.8191230453603344,0.12059433671467341
12.365996,2.8427188086105803,0.12020219025618176
12.370592,2.8717892218122305,0.11956555699093183
12.375192,2.902369993032257,0.11882900780020923
12.379784,2.932662253375365,0.11803826390980185
12.384376,2.965364306184497,0.11710882249057245
12.388968,2.9949573600596198,0.11623136222747663
12.393564,3.025816402524827,0.1152841278430844
12.398152,3.053322076627735,0.11438697346582877
12.402744,3.0820937393207277,0.11344783243222276
12.407336,3.1111097714420124,0.11249815669564842
12.41192,3.1279444168872907,0.11187787079501411
12.416512,3.1387273906273263,0.11136582909256429
12.421104,3.153841210442828,0.11068757255399075
12.425704,3.169565953829056,0.10993910988313446
12.430296,3.1793612102241875,0.10926727421509362
12.434892,3.187846336580606,0.10855898373104178
12.439472,3.1969423865077524,0.10777329828417827
12.444072,3.204195426090975,0.10692446657824517
12.448652,3.2097717814930475,0.10609827171566455
12.453244,3.217269190504561,0.1052112948372958
12.457832000000002,3.2154057008971595,0.10454671967984133
12.46242,3.20622455099443,0.10403654617072287
12.467008000000002,3.1935678480152543,0.10357641498512862
12.4716,3.177435591959633,0.10316363345135125
12.476183999999998,3.161014825027092,0.10268322490835707
12.480776,3.139974701142166,0.10229545519104226
12.485352,3.1155812088949406,0.10193687720924727
12.48994,3.0942525741330953,0.10147613790600457
12.494528,3.066383528809424,0.10115568223820452
12.499124,3.032995692085719,0.10094521327319399
12.503716,3.0017732783997477,0.10065890955977345
12.508311999999998,2.97042867999963,0.10038479665292102
12.512892,2.93638577825657,0.10014563272709137
12.517487999999998,2.902098507085217,0.09992634373232562
12.52208,2.8720640387238134,0.09965660529911609
12.526672,2.844605688991207,0.0993501606469397
12.53126,2.8151041009350135,0.09910112025201666
12.535856,2.7892443921180394,0.0988837479740789
12.540432,2.763018129158628,0.09871389160751001
12.54502,2.738590735094513,0.09850741407932892
12.549608,2.7175167093926986,0.09827618198232693
12.554204,2.6994294979107454,0.09806641855160253
12.558784,2.682896785895798,0.09785512871787448
12.563368,2.672660115014385,0.09752603608530128
12.567963999999998,2.660668716686305,0.09733030804555984
12.572548,2.6539517403299655,0.09705514921857919
12.577136,2.6514875667835747,0.09673453978191598
12.581728,2.6457141663235118,0.09654621671344135
12.586315999999998,2.644560122815834,0.09626023267787112
12.590904,2.6507237396034844,0.09583261331176815
12.5955,2.6649822664199654,0.09527645720547089
12.600096,2.6834935960463944,0.09468429202739753
12.6047,2.7022934365497435,0.09416435059238415
12.6093,2.7217483420724484,0.09367449919941832
12.613892000000002,2.7440237356522426,0.09314279821844176
12.61848,2.7688752478608345,0.09259948578978167
12.623076,2.8000228012029615,0.091978590265325
12.627664,2.8306374742398783,0.09133412629315794
12.632264,2.864072635333884,0.09064002552772218
12.636843999999998,2.8980406767331006,0.08999372119553127
12.641443999999998,2.941613986179523,0.08917261418080097
12.646028,2.9883743378254732,0.08826463368484753
12.650619999999998,3.037832992814366,0.08733919518027496
12.655228,3.0851262247655264,0.0865174801276026
12.659820000000002,3.1374053678115086,0.08559657612498017
12.664408,3.187641272533904,0.0847367715658789
12.669008,3.2405754805992424,0.08387850183221712
12.6736,3.3040143911594355,0.08287043800262581
12.678192,3.370029420348427,0.08187835996737251
12.682776,3.43514501508977,0.08093942001581812
12.687364,3.494864003145227,0.08009082679069279
12.691952,3.5540501108954725,0.07923666870499677
12.69654,3.6136027727881554,0.07834523598973218
12.701132,3.672622554375627,0.07744115631813547
12.70572,3.727267348439005,0.07658681296362216
12.710312,3.7829337616641774,0.07574139763202903
12.714899999999998,3.8310381451657296,0.07500068399382728
12.719492,3.879919778400784,0.07427888265309945
12.724088,3.929045781064129,0.0735504305821108
12.728675999999998,3.9787827072982025,0.07277745549639475
12.733268,4.022101407684596,0.0720940069429774
12.73786,4.064642858337486,0.0714231259105673
12.742448,4.104852559789871,0.07074806446925405
12.747044,4.142730512041748,0.07006130055554542
12.751632,4.176766357074743,0.0694302732683791
12.756224,4.212312560126115,0.06874410854273319
12.760803999999998,4.241807091472243,0.06808017133531316
12.765403999999998,4.253357075314041,0.0675807950025254
12.769992,4.259510452469953,0.06711175921217143
12.774588,4.262965526282922,0.06666012611136521
12.779176,4.2655211656482415,0.06621259503141258
12.783768,4.263457448061177,0.06579630557092529
12.78836,4.261393730474112,0.06538029494977197
12.792952,4.257531143991752,0.0649724090521871
12.797552,4.252524753633452,0.06458719963676852
12.802144,4.239423453246323,0.06423446953085009
12.806728,4.232451867829952,0.06379527618615217
12.81132,4.22224909876543,0.06333789142653455
12.815908,4.207549157462668,0.06289549417244095
12.820504,4.18822985920752,0.0624769280194135
12.825088,4.1641690192858425,0.062091329102205536
12.829688,4.135611007125925,0.06171676690528792
12.834276,4.1032108877471245,0.0613687378517304
12.838856000000002,4.070688583654178,0.0610266017830581
12.843448,4.035834530360726,0.0606546004876027
12.848036,3.996894000420099,0.06033173933938596
12.852628,3.9579534704794725,0.06000119350111192
12.857216,3.9328268699473727,0.05951961864174983
12.8618,3.9108873116147995,0.05898311549375384
12.866408000000002,3.8843283963298405,0.05846206249658952
12.870996,3.8568700465972343,0.057937628786018124
12.875604,3.8300667618839843,0.05742689004420933
12.880196,3.804162911618382,0.05691266970867129
12.884784000000002,3.778136876638634,0.05640456149264838
12.889376,3.7558307641636235,0.055876010148828384
12.893976,3.7341797167079696,0.05535702200723798
12.898584,3.708442192605141,0.05488953801004625
12.90318,3.6851586024169647,0.054435239417356236
12.907784,3.6633073269816476,0.05400639439468014
12.912372,3.6467304735180717,0.05357778654743721
12.916963999999998,3.633751357845087,0.053138928120084576
12.921552,3.6233483608009007,0.05270329387422051
12.926152,3.6192414048902495,0.05225736277592502
12.930739999999998,3.6139906451036583,0.05183250627228958
12.935336,3.610827265089283,0.0514590638342586
12.939928,3.6154702842268183,0.051021978315369546
12.944524,3.6215456181172128,0.05061630630325879
12.949115999999998,3.6221463020562017,0.05031063304453121
12.953712,3.620337193529168,0.05006359566251566
12.958312,3.6230252572403727,0.04981076464751909
12.962908,3.6309877429233186,0.04956813932668674
12.967491999999998,3.644713389434589,0.04929108682684244
12.972088,3.657661786212357,0.0490062635829939
12.976676,3.6693441944000402,0.0487541819396058
12.98126,3.674241822597606,0.04854775144798776
12.985836,3.6877230996805848,0.04829588760817284
12.990424,3.6992833231541224,0.0480537838969602
12.995016,3.7088003083040735,0.047835646341691386
12.999596,3.7210155967969674,0.04761785277868553
13.004188,3.7254244861379497,0.04745671069630848
13.008776,3.7298333754789335,0.04729595446699215
13.01336,3.7339978953916253,0.0471585178128317
13.017968000000002,3.730356016152405,0.04707768655295678
13.022556,3.7264697674848937,0.04701954791368636
13.027164,3.722827888245674,0.04693808708298568
13.03174,3.7120346748739,0.046937453803942895
13.036328,3.6991982231785387,0.04696079618258894
13.040924,3.686483956197323,0.04697297874654773
13.045524,3.6738918739302537,0.046973046341044614
13.050128,3.660400357215536,0.04697222603589568
13.05472,3.639713364919635,0.046969597460080836
13.059312,3.613141027081265,0.04701151310508574
13.063892,3.584036712062724,0.047124119056191474
13.068488,3.556076200920124,0.04721389882209286
13.073068,3.533101600872345,0.04725743317296765
13.077668,3.4992557441872743,0.04739614632038469
13.082252,3.4654098875022044,0.04753697516794375
13.086844,3.4295207924935465,0.04770670446219087
13.09144,3.3874578410654994,0.04786335487452347
13.096032,3.348704116551125,0.04796043776578771
13.100632,3.304309415922571,0.048084931629905035
13.105232,3.2609363344558107,0.04819426509536484
13.109824,3.2244702176933138,0.048241103432750516
13.114416,3.190536078110987,0.04820663229972123
13.119000000000002,3.1528820160239226,0.048182454860765896
13.123592,3.113673454469854,0.048133309834684335
13.12818,3.070212090105837,0.04805728341530817
13.132772,3.024174607113023,0.047962945073962336
13.137364,2.9742950169013267,0.047894785018413655
13.14196,2.923393807527836,0.04783784103159513
13.146548,2.873147663173702,0.047809786487845465
13.151132,2.8222464538002123,0.04775000615642256
13.155724,2.770934548835656,0.04763174036118521
13.160316,2.7203998936046028,0.04752619844151168
13.1649,2.668066369478253,0.047407267008909876
13.169496,2.6192864416938666,0.04717481786270472
13.174084,2.5723053828047764,0.04694005140491246
13.178688,2.5256908780581235,0.04665218340649383
13.183279999999998,2.48075305749262,0.04637070386348707
13.187868,2.4336498138893843,0.046130147045315796
13.192472,2.391165927238533,0.04587153667602876
13.19706,2.3412421955782072,0.04563607196820353
13.201664,2.2847780533560567,0.045419670346114605
13.20624,2.2239830650584396,0.04530205995009008
13.21084,2.1658863801037667,0.045183999132484644
13.21542,2.1077896951490933,0.04505937655750069
13.22002,2.0581544743656877,0.04486468466279908
13.224604,2.00827488415399,0.04470299966773294
13.229196,1.9621152164470306,0.04452436971832707
13.233788,1.9131350606829813,0.04436016946468555
13.238383999999998,1.8632554704712843,0.04419796394055549
13.242976,1.80965595775485,0.04403314025486075
13.247572,1.753113772267181,0.04390273638374721
13.252159999999998,1.6901533609318318,0.04378585913720032
13.256752,1.628625264349341,0.04375003808413397
13.26134,1.5684072978055634,0.04381480010376551
13.265924,1.509210950423579,0.043838192711193345
13.270511999999998,1.4518134719368903,0.04383949215900809
13.275104,1.3944159934502012,0.043833522053183666
13.279696,1.3390617532870996,0.043757389056546574
13.284284,1.279987590619261,0.041570927260238276
13.28888,1.222712296846718,0.039376480201125705
13.293468,1.1690347408647663,0.03719264189797234
13.298056,1.1175226079205474,0.034968280530048496
13.302639999999998,1.0652332252428265,0.03274583545919694
13.307228,1.0138432770127532,0.030531495298674223
13.311828,0.9583668521355059,0.028390130193474937
13.316412,0.9066103497629956,0.026234002253912897
13.321,0.8521555440475419,0.02408075147538783
13.325596,0.802320095284473,0.02191407538689788
13.330196,0.7554273192926391,0.019729226093887782
13.334788,0.7147083997201944,0.017566375282865768
13.339368,0.6796304562619282,0.015389373907230474
13.343967999999998,0.6508485539371969,0.013198845907028543
13.348552,0.6185910985360199,0.010966335384741462
13.353152,0.5886212508867213,0.008693952726066281
13.357736,0.5546871113043945,0.006464540501129776
13.362336,0.521774590883861,0.004281897951795378
13.36692,0.49143818909212544,0.002112269057053086
13.371512,0.46367790592918773,0.0
13.3761,0.442580218042222,0.0
13.380692000000002,0.42892237516473036,0.0
13.38528,0.41232185951600386,0.0
13.38988,0.3935559208295446,0.0
13.394468000000002,0.3736461782671462,0.0
13.39906,0.3574563582094849,0.0
13.40364,0.3422881573136171,0.0
13.408232,0.3223784147512187,0.0
13.412824,0.3068436597129139,0.0
13.417416,0.29065383965525254,0.0
13.422008,0.2753634540452391,0.0
13.426595999999998,0.2601952531493713,0.0
13.431188,0.24478268282521215,0.0
13.435771999999998,0.22691617858640079,0.0
13.44036,0.2135468465858287,0.0
13.444952,0.19674610295743902,0.0
13.44954,0.18583070487151912,0.0
13.454128,0.1735271334813687,0.0
13.458723999999998,0.16122356209121824,0.0
13.463308,0.1490421754152135,0.0
13.467899999999998,0.133018681520326,0.0
13.47248,0.11327526512070142,0.0
13.477076,0.0991728248352553,0.0
13.481664,0.09185516453992679,0.0
13.486268,0.08735799230168752,0.0
13.49086,0.08183920090165474,0.0
13.495456,0.07734202866341548,0.0
13.50004,0.08142850531058958,0.0
13.50464,0.08473773222426148,0.0
13.509232,0.09037870833843994,0.0
13.513824,0.09307701168138349,0.0
13.51842,0.09589749973847274,0.0
13.523016,0.0989623572238533,0.0
13.527596,0.10946705971870803,0.0
13.53218,0.11817289331826705,0.0
13.536768,0.12916633466970445,0.0
13.541368,0.13439661519281773,0.0
13.545956,0.13884964598242885,0.0
13.550548,0.14559028452391834,0.0
13.55514,0.15233092306540785,0.0
13.559728000000002,0.1607482457880474,0.0
13.56432,0.17018718767248042,0.0
13.5689,0.1779494453757634,0.0
13.573488,0.1836684647554594,0.0
13.5781,0.19220797219224456,0.0
