Time,Force,Position
17.874579999999998,0.049959516734642835,0.0
17.87916,0.05502446442470386,0.0
17.883751999999998,0.05714673934352999,0.0
17.888332,0.05747014536706042,0.0
17.892932,0.05747014536706042,0.0
17.897527999999998,0.057470145367060424,0.0
17.90212,0.057470145367060424,0.0
17.906703999999998,0.057470145367060424,0.0
17.911299999999997,0.057470145367060424,0.0
17.915888,0.057470145367060424,0.0
17.920479999999998,0.057470145367060424,0.0
17.925072,0.057470145367060424,0.0
17.929655999999998,0.05690236991523866,0.0
17.934244,0.05363629112047333,0.0
17.938844,0.049592962592205816,0.0
17.943424,0.044528014902144794,0.0
17.948007999999998,0.03676476386914021,0.0
17.9526,0.027979893674342112,0.0
17.957188,0.02111607708898538,0.0
17.961779999999997,0.014374445217774319,0.0
17.966368,0.007510628632417587,0.0
17.970948,0.0024456809423565582,0.0
17.975544,0.00032340602353042813,0.0
17.980131999999998,0.003276318426504111,0.0
17.984735999999998,0.0091287554818061,0.0
17.989327999999997,0.019111810632910335,0.0
17.99392,0.03130443027037544,0.0
17.998524,0.04750548328949711,0.0
18.003124,0.06399504718553828,0.0
18.007728,0.08101749138679026,0.0
18.012304,0.09959443505504663,0.0
18.0169,0.11870425902851385,0.0
18.021488,0.13372760635480696,0.0
18.026088,0.15120488759575226,0.0
18.030676,0.17023666830370196,0.0
18.035268,0.18967914460271681,0.0
18.039852,0.210676120368736,0.0
18.044444,0.23118435727817252,0.0
18.04904,0.25246984392111127,0.0
18.053632,0.2726115266881108,0.0
18.058232,0.29058778641737754,0.0
18.062832,0.3084418614324987,0.0
18.067424,0.3268288167528306,0.0
18.072016,0.33977403060892575,0.0
18.076604,0.34720045306498815,0.0
18.081188,0.349719007691746,0.0
18.08578,0.3501501825462888,0.0
18.090364,0.34579567428567276,0.0
18.094956,0.3401310359863437,0.0
18.099536,0.3377756246006866,0.0
18.104136,0.3328440945862316,0.0
18.108716,0.3295451073042984,0.0
18.113308,0.33237583499312645,0.0
18.117904,0.334918051805035,0.0
18.122484,0.33488414998814564,0.0
18.127072,0.33587186733304986,0.0
18.131668,0.3389469644501692,0.0
18.136256,0.3475849944159495,0.0
18.140852,0.36003122978372315,0.0
18.14544,0.38017191922100113,0.0
18.150036,0.4127486043943138,0.008573099341637663
18.154624,0.4560846011225116,0.016620180270189154
18.159224,0.5040060529862048,0.024767873851649278
18.163804,0.5639528049948677,0.03258358125218554
18.168404,0.6361692265767918,0.04010212763075789
18.172996,0.711827299418272,0.04782205526373067
18.177592,0.7946469460240458,0.055442920812165876
18.182184,0.8866714047177002,0.06288190793101123
18.186776,0.985324556870437,0.07031129421784409
18.191364,1.082922188044491,0.07787682036309455
18.19596,1.1912349893248018,0.08518615188568719
18.20056,1.2992695193599317,0.09265725542521963
18.205152,1.4100906356352618,0.10013316293954647
18.20974,1.520877850093702,0.1077183450572044
18.214336,1.635717639382427,0.11537373420056687
18.218928,1.7527669931575136,0.12299644668900733
18.223516,1.8695278360556802,0.13052450101988217
18.228104,1.9841571577330037,0.13791846540006564
18.232692,2.09648863202671,0.1451768845796769
18.237276,2.2034913032683074,0.15225289007578774
18.24186,2.2978475111624683,0.1506880471202911
18.246452,2.3757592899389373,0.14978146592539335
18.251052,2.4476091573784244,0.1487006126242078
18.255632,2.50469127988137,0.14806084188659144
18.26024,2.55076972140114,0.14776319852204287
18.26482,2.5952053805566484,0.14721123812543876
18.269412,2.6297811626049206,0.14683673096346048
18.274008,2.6540083286893728,0.14673313456782555
18.278592,2.6763483429812727,0.1464839573843939
18.283196,2.7005211279853576,0.1459214249165829
18.287796,2.7115689504171616,0.14582827789347805
18.2924,2.7230613702569206,0.1455367576250835
18.296992,2.734098953056986,0.14510571532589392
18.301596,2.7497117513608083,0.14440977367767519
18.306172,2.766302027377796,0.14357962845686117
18.310772,2.7832588575372204,0.14272148543565932
18.315352,2.7993603946976253,0.14200853800395463
18.319956,2.812074661678841,0.14158934396195094
18.324548,2.8230783426620167,0.1414221366714009
18.32914,2.835358251867017,0.14148193360085992
18.333736,2.852512127084432,0.14165269552001047
18.338328,2.879892433551521,0.14166490631344913
18.342932,2.9163553673923444,0.14161310882060854
18.347524,2.962023113321049,0.14144663584189504
18.35212,3.0139088571177703,0.14120092870230713
18.356712,3.0699693604589227,0.1409819565825171
18.3613,3.1349461650110357,0.1406117872033306
18.365892,3.204464283250016,0.14017794904532932
18.37048,3.2728827390616853,0.13992399225900254
18.375076,3.3375032291031004,0.1399120328056142
18.379664,3.412139682782787,0.1395916637800275
18.384256,3.4883306359294783,0.13927475226737157
18.388848,3.5639106655054413,0.13907284743571705
18.393436,3.634094088395517,0.13903833847334077
18.398036,3.704277511285593,0.13902481584386214
18.402616,3.7744609341756683,0.13903049252586921
18.407208,3.8417797275600263,0.1390207755273618
18.411804,3.9131408561429315,0.13878181954844315
18.416392,3.984702212705498,0.13842083299394053
18.420984,4.0545427436382875,0.13800970475062527
18.425572,4.127648360036121,0.13742265548651522
18.430176,4.200299139394261,0.13676614812339719
18.434768,4.265177421417379,0.1362148213796684
18.439356,4.32690256305786,0.13563235939401913
18.443952,4.385474564315704,0.1350264733174283
18.448528,4.440604914313991,0.13435811478855575
18.453136,4.488207136405549,0.13373843363827986
18.457716,4.532900587542761,0.13305479460046052
18.462316,4.573130768258624,0.13231479914154368
18.466892,4.612495416343727,0.1314497803147826
18.47148,4.6426552523409494,0.13065063695035445
18.476076,4.667208014040883,0.12984066707153444
18.480668,4.685376451710026,0.12901969682058015
18.485256,4.6984706953870905,0.1281916544057608
18.489852,4.704281180585716,0.1273666627067418
18.49444,4.70064248426817,0.12660518007343646
18.499032,4.698714373948662,0.12568317915163033
18.503624,4.692611504084724,0.12474543687176402
18.508208,4.687197601057033,0.12367844019712744
18.5128,4.6785083729325585,0.1225685963520326
18.517392,4.654650943912216,0.12169496745223782
18.521984,4.621388474824331,0.12093366261314996
18.526576,4.5832181379071395,0.12020732120228583
18.531172,4.541283737036585,0.11947745314954092
18.53576,4.492398230013138,0.11883525110236008
18.540344,4.436072877980218,0.11832682874702552
18.544932,4.375005984280766,0.11791812709418524
18.54952,4.3113629719525175,0.11753302967264995
18.554116,4.250296078253066,0.1170955589491579
18.558704,4.18796319596353,0.1166959635960554
18.563296,4.125918824550912,0.11633413090585662
18.567888,4.06710563678645,0.11592881380421355
18.572468,4.007437156022967,0.11560712676347604
18.577072,3.9517771086411413,0.1152520537493827
18.581664,3.9013134399655396,0.11488931690161731
18.58626,3.8592331921956884,0.11442810249901095
18.590844,3.8155645431419427,0.11411999897379395
18.595444,3.772472915842036,0.11389721234803868
18.600032,3.7256274642205036,0.1138979341108802
18.604628,3.6809135338198136,0.11398952853913565
18.609216,3.6480585774013203,0.11395558984531393
18.613816,3.6229761183178484,0.11389744978779615
18.618408,3.6055439718552535,0.11382694402197628
18.623,3.595762138013534,0.11374290991900829
18.627608,3.594407866526193,0.11364637159967161
18.632204,3.6017255268215207,0.1135088994987752
18.636792,3.6228232147084865,0.11319113152066895
18.641392,3.6509161501969714,0.1128561708820491
18.645984,3.6833060299440334,0.1125612893832402
18.650576,3.7202372233779624,0.11227206873328657
18.655164,3.7644080338417023,0.11194469601158519
18.659752,3.8072348124498396,0.11175955998941159
18.664328,3.8603660655731686,0.11145699276596191
18.66892,3.9175057520781547,0.11114605460360853
18.673516,3.975833383907707,0.11087917174810594
18.678104,4.033550092166532,0.1106861180387609
18.682696,4.096907776539535,0.11039942533415599
18.687276,4.164518263722486,0.11007983022613554
18.691868,4.239690780629056,0.10961999141599034
18.696464,4.318827589468654,0.10907812386001556
18.701052,4.40115144050778,0.10848240711649645
18.705656,4.484863464851136,0.10784859377520176
18.710236,4.567387543869925,0.10719775002812816
18.714824,4.646924808668851,0.10656516629103079
18.71942,4.727806105323379,0.10583688997020302
18.724012,4.807988195509922,0.10505316742473837
18.728608,4.880686299238363,0.10434807943427128
18.733196,4.951419207908734,0.10363361661960228
18.737796,5.015445379854505,0.10297001087197423
18.742376,5.073786434237469,0.10232926369688158
18.746976,5.12693110991421,0.10168246022410819
18.751564,5.181297632732408,0.10093842763242815
18.756164,5.225848419891996,0.10024587621410946
18.760748,5.2649584589170715,0.09956180148852453
18.76534,5.2980948695024175,0.09885873385651936
18.769936,5.324891097505602,0.09816081370646959
18.774532,5.344203339050685,0.09750678393995652
18.77912,5.359218636337189,0.09682996239672971
18.783712,5.363274394089148,0.09621226202447328
18.7883,5.363688272601885,0.09557716494674003
18.792888,5.356251610514083,0.09500347589211498
18.797476,5.340309342806386,0.09447416493958641
18.802064,5.317538153659943,0.09398000830630233
18.806648,5.287938043074756,0.0935200817504261
18.81124,5.25012083774659,0.09313894116469779
18.815836,5.209727513789628,0.09276707143686659
18.820424,5.1679018750798065,0.09237698546951421
18.825016,5.121945618274183,0.09199150016774914
18.829596,5.074679231429847,0.09157944337213529
18.834184,5.030599886785036,0.09110013570830605
18.83878,4.982678434921342,0.0906639191985416
18.843368,4.930381995533557,0.09024893176069125
18.847956,4.880417305346275,0.08983371018962096
18.852544,4.832251484054291,0.08939475649090195
18.857132,4.788338465572255,0.08892948853303957
18.861736,4.750843672937899,0.08839627668223785
18.866324,4.712205076427604,0.08788190114546879
18.87092,4.671933937184786,0.08742680722727725
18.8755,4.640534957704301,0.08690231251116222
18.8801,4.6085250546530885,0.08642091656663545
18.884684,4.579868519964177,0.08592696070442893
18.889284,4.557141472266362,0.0854076158684333
18.893868,4.543408769045026,0.08481527116783781
18.89846,4.537404421710083,0.0841868889956712
18.903056,4.5373295613662386,0.08353681161468667
18.907648,4.5377875813276045,0.0829093960108828
18.912248,4.539311361899393,0.08232626599702962
18.916848,4.5428003375292505,0.08178009290060441
18.92144,4.5531182345978545,0.08121269522564599
18.926032,4.563724642543377,0.08069165803839491
18.93062,4.582181591089439,0.080133394152174
18.935216,4.604524788303012,0.07959131919842374
18.939804,4.631365157754824,0.07902458292988804
18.944396,4.659393472531204,0.0785006376569856
18.94898,4.686033614003354,0.07802556757466077
18.953576,4.712307201333065,0.07758865924633113
18.958168,4.745531894815668,0.07712803492231031
18.962748,4.781454891641215,0.07665066529534206
18.967344,4.81713351903847,0.07620492263218379
18.971928,4.858330937835759,0.07572695482107639
18.976516,4.899650541347192,0.07524683411107436
18.98112,4.9427690137539235,0.07476540660521366
18.985708,4.984743682284715,0.07432129433412431
18.990296,5.025941101082003,0.07388300443426073
18.994892,5.066361270145789,0.07344625191883834
18.999484,5.109479742552519,0.07300283809628504
19.004076,5.154763637996982,0.07252922791134202
19.008672,5.2029902062126805,0.07203066828793082
19.013268,5.249417905533081,0.07155149310459219
19.017856,5.2960899742817755,0.07106102385219627
19.022456,5.340308109115815,0.0705746770127465
19.027036,5.387713286149383,0.0700523502672604
19.031636,5.431642910106506,0.06954541530110446
19.036228,5.472996415434829,0.06904300195500214
19.040824,5.517536962962678,0.06850339559193988
19.045412,5.562199695204675,0.06796423364239514
19.050008,5.6015880054749285,0.06744172751908122
19.054592,5.641220685173474,0.0669080571563926
19.059176,5.679176680690869,0.0663805028563921
19.063752,5.706750158427555,0.06591920478939849
19.068336,5.734323636164242,0.06546263632835922
19.07292,5.758421560824482,0.06501394549601586
19.07752,5.7781444979606285,0.06457444041943634
19.082112,5.7969680006491275,0.06414219547465175
19.086688,5.812438134975327,0.06370547652407402
19.091284,5.82443271622508,0.06327421831814135
19.09586,5.8337289941318895,0.06285253942927098
19.100452,5.839794088390546,0.062420195453573975
19.105044,5.844426867896342,0.06197216324987699
19.109632,5.846361344059196,0.06153080401901649
19.114232,5.849439624097988,0.06107542019621961
19.118808,5.848020731898543,0.06063282777861831
19.123396,5.844025721070297,0.06018677510427146
19.128,5.839497829936842,0.059718245353192444
19.132588,5.831372201012794,0.059258186965081144
19.137192,5.818749399850509,0.0588054269401259
19.14178,5.806370968116513,0.05833468102981213
19.146372,5.789617548858424,0.05786130766974235
19.15096,5.769144207095597,0.05739908389959464
19.15556,5.755577830037035,0.0568855157145857
19.160144,5.736614846292587,0.056376482125686175
19.164744,5.7186734817099305,0.05585688414364742
19.169328,5.698933248231978,0.05533418548857553
19.173924,5.676494711411085,0.0548131617411198
19.1785,5.657531727666635,0.054292624478635865
19.183092,5.635992625293388,0.053762363476660566
19.187696,5.61445352292014,0.05322939180896413
19.192288,5.591526247242663,0.05272433170447274
19.196876,5.563613060470362,0.05224875654270733
19.201468,5.537498742593359,0.051768596795357454
19.206048,5.50447746001209,0.05132800339087409
19.210648,5.468391319945443,0.050907193320958895
19.215232,5.4346369290793035,0.050504167490543754
19.219816,5.400515984070725,0.050120131130748445
19.224408,5.364107431310267,0.04976438145696708
19.228996,5.3263107052455805,0.0494360157206279
19.233588,5.2879030556101645,0.04914417321710445
19.238172,5.2527265896229025,0.04887073725337205
19.24276,5.216528504473848,0.04860111106509976
19.247356,5.177265561839413,0.04835361518112986
19.251944,5.141233802853131,0.048125838940414195
19.256544,5.099971763343738,0.047945662813586656
19.261136,5.058098800263615,0.047804472199946116
19.265736,5.012017175822172,0.04770406956551673
19.270332,4.961849074733556,0.04763671145361609
19.274924,4.911602930379422,0.047638114569939966
19.27952,4.858047559111615,0.0476832393941506
19.284104,4.80449218784381,0.04772678141470796
19.288704,4.7506924471477125,0.047789420898081705
19.293292,4.691662425928502,0.04790859358761193
19.297892,4.633409654442794,0.048040453118819305
19.30248,4.575811947976441,0.048193053115325034
19.307076,4.5155159381671455,0.04834479977496442
19.31166,4.453176690034263,0.048518361838289566
19.316252,4.388016953844291,0.04870764701996147
19.320848,4.324001021530259,0.048879678886029426
19.325432,4.259452208911015,0.049022047614484796
19.330024,4.188362985729945,0.04918937516446941
19.334616,4.118950446730027,0.04936726430385034
19.339204,4.046717419673018,0.04955783514254144
19.343788,3.9737071428825077,0.049737369154906584
19.348376,3.9018406699679358,0.04990289087066973
19.352972,3.8330390545387445,0.0500384396083603
19.357564,3.7682017310425815,0.050143885372159205
19.362152,3.699766669755827,0.05025800910148708
19.366744,3.6321869014680925,0.05029392247611209
19.371328,3.564973687322795,0.05029724015746398
19.37592,3.4930189315109663,0.05032801949078013
19.380508,3.425805717365669,0.05033248778681937
19.385084,3.363700599029339,0.050274598546183644
19.389696,3.301962034835447,0.05017505401226131
19.39428,3.2394462209080515,0.050063661977864556
19.398876,3.1739877342094216,0.04997834072774885
19.403468,3.1097952361008767,0.04984722785066179
19.408056,3.048301041335275,0.04971782196772183
19.412648,2.9857852274078804,0.04959836550111189
19.417228,2.92482391294749,0.04950041978901027
19.421828,2.8674603362776905,0.049404553938226674
19.426416,2.806376837103154,0.04932810665239004
19.431012,2.7482360106998525,0.049210492339732126
19.435596,2.687274696239461,0.04910503860851336
19.440196,2.6274571856550097,0.04895630956150183
19.44478,2.5628981334040275,0.04884056993021981
19.449372,2.497561831419543,0.048692334695955526
19.45396,2.437988690263383,0.04848091425083225
19.458552,2.374206887745903,0.04835081251406546
19.463132,2.3103029005142774,0.04823096963594505
19.467728,2.2517955199685384,0.048117776582363325
19.472312,2.1866255441468287,0.04807279483819676
19.476896,2.1146707883350007,0.048120929116815675
19.481484,2.043371097542529,0.04820212076376461
19.48608,1.9759135139689403,0.04821986640965712
19.490672,1.912298037614234,0.04818939540075685
19.49526,1.8475387573835886,0.048191629621841224
19.499856,1.7831460312953804,0.04810623340684159
19.504444,1.7198971090831112,0.04794350930031192
19.509028,1.6540720682420444,0.04773193244459846
19.51362,1.5886135815434144,0.04741006440739566
19.518208,1.5230329101306386,0.04712474180499365
19.522804,1.455164630965985,0.04695736519449176
19.527396,1.3861525479253918,0.04453574412678746
19.531996,1.3167739107423615,0.04215455476755636
19.536588,1.2484168927211245,0.03975272849146115
19.541184,1.179693320557451,0.03739527211075575
19.545788,1.1099481292319835,0.035082860523148955
19.550388,1.0480093370584278,0.03272884454505274
19.554992,0.988891032941961,0.030376771404745095
19.559584,0.9271966101966962,0.02799987255367753
19.564176,0.8702437291179621,0.02556968464957584
19.568752,0.8200756280293456,0.02307614778460771
19.573352,0.7686415383506443,0.02057878237828977
19.577932,0.7082572456440925,0.01814440423072624
19.582528,0.6476285835092495,0.015741236690604177
19.587112,0.5895760400032043,0.013337828521667872
19.591712,0.531156942354722,0.01100505564429998
19.596304,0.4745018184549247,0.008749036987402951
19.600896,0.421322247631573,0.006541722242182109
19.605484,0.37059661072287353,0.004426203009442157
19.610076,0.3272235292561134,0.002253314155631833
