Time,Force,Position
18.977608000000004,0.492445633513124,0.0
18.982184000000004,0.502095043008959,0.0
18.986784,0.5128882563807332,0.0
18.99136,0.5188177433718312,0.0
18.995956000000007,0.5192284389628963,0.0
19.000547999999995,0.5104004206491916,0.0
19.005148000000005,0.49862972956425206,0.0
19.009740000000008,0.4896795265364016,0.0
19.014332,0.4759877818420207,0.0
19.018928,0.45947554909055044,0.0
19.023508000000007,0.43887683969190616,0.0
19.028104,0.4191775647409098,0.0
19.032696,0.40344258172294173,0.0
19.037284,0.3901173911709978,0.0
19.041876,0.37715875476149086,0.0
19.04647200000001,0.3620346953142513,0.0
19.051064,0.3460112014193638,0.0
19.055660000000003,0.32872171893439145,0.0
19.060248,0.31605159340180394,0.0
19.064844000000008,0.3033814678692165,0.0
19.06943200000001,0.2899340926031268,0.0
19.074028,0.2728889795464458,0.0
19.078616,0.2541671823086148,0.0
19.083203999999995,0.2363448195184316,0.0
19.087792000000007,0.22224237923298545,0.0
19.092388,0.21672358783295273,0.0
19.09698,0.21337021947065266,0.0
19.101564,0.21013903582249827,0.0
19.106160000000003,0.21177157855502013,0.0
19.110736000000003,0.21994453184936832,0.0
19.115331999999995,0.22913910430551004,0.0
19.119916000000003,0.23935529592344526,0.0
19.124504,0.2507152914173197,0.0
19.129108,0.2560677566545786,0.0
19.133696,0.25913261413995925,0.0
19.1383,0.2602764180158984,0.0
19.142896000000007,0.26142022189183756,0.0
19.14748400000001,0.2598657224248332,0.0
19.152076000000008,0.25267024684365036,0.0
19.156668,0.24764019430020026,0.0
19.161272,0.24722949870913513,0.0
19.165852,0.25156034478460054,0.0
19.170452,0.25679062530771385,0.0
19.175044,0.26406414415441415,0.0
19.179644,0.27145984771526016,0.0
19.18423200000001,0.2761572479331626,0.0
19.188832000000005,0.2777897906656845,0.0
19.193424000000007,0.275458041465178,0.0
19.198016,0.2719824883887322,0.0
19.202604000000008,0.25980110171272747,0.0
19.2072,0.252483441417399,0.0
19.211788,0.2472090194456575,0.0
19.216384000000005,0.23580488250315498,0.0
19.220972000000003,0.23412819832200493,0.0
19.225556,0.23539418691208983,0.0
19.230144,0.24013572857862037,0.0
19.234744000000006,0.2473312041598032,0.0
19.239332000000005,0.25890166726507957,0.0
19.243928,0.270472130370356,0.0
19.24852,0.2806544201714019,0.0
19.253112,0.2850735491441236,0.0
19.257712,0.28630563591731906,0.0
19.262296000000006,0.2881927877098711,0.0
19.266892,0.2872594514453339,0.0
19.27148,0.2851823113048575,0.0
19.27606,0.2844153012030941,0.0
19.280656000000008,0.29223193998674407,0.0
19.285248,0.30568955488457245,0.0
19.289836000000008,0.317881181192316,0.0
19.294432,0.3419656832991448,0.0
19.29902,0.3600426551493581,0.0
19.303624,0.3785303225906366,0.0
19.308204000000003,0.40163734698430004,0.0
19.3128,0.42106859032185456,0.0
19.317388000000008,0.4437310173075635,0.0
19.321988000000005,0.4692139323503616,0.0033414328278931473
19.326576000000003,0.4954740971266619,0.006774825908627377
19.331184000000007,0.5195688388652294,0.010385633701301304
19.335776,0.5468947642519514,0.01414359378009483
19.340376000000006,0.573976320210382,0.018099646753968187
19.344972,0.6063322981405541,0.022110934052255112
19.349564,0.641630948841961,0.026109923157398796
19.354156000000003,0.676563045400931,0.03026310194161591
19.35874,0.7156257600557032,0.03442774998238543
19.363344,0.7563651588916254,0.038618689094107865
19.367936,0.7962051232798998,0.04286392489788261
19.372524,0.8310591765733523,0.047162190042782416
19.377120000000005,0.865791045152659,0.05141276528612891
19.381696000000005,0.9035877712173463,0.055581977978262975
19.386296,0.9330893592735398,0.059931627636581004
19.390888000000004,0.9655336201009682,0.06429076584449125
19.395480000000006,0.9945023278519508,0.06871842190057458
19.40007200000001,1.021916536135929,0.0731460779566579
19.404660000000007,1.0435234421429551,0.07778159226986461
19.409251999999995,1.057524176977733,0.08252702149129998
19.413840000000008,1.0643294362313283,0.0841093150148796
19.418436,1.0681478812650604,0.08554711702348274
19.423028,1.071022750402517,0.08670342059612665
19.427616,1.0743863583965556,0.0876264570322641
19.432212000000007,1.0805704544476835,0.08836989321614534
19.436800000000005,1.0872874308040226,0.08916726778402301
19.44140400000001,1.0948257983424918,0.09020116679406245
19.445996000000008,1.1031855570630915,0.09145540750620909
19.450596000000004,1.109057480052149,0.09322662823898407
19.455196,1.119392673462557,0.0951909781139562
19.459784,1.1322700836848736,0.09747648832793493
19.46438000000001,1.148711329880892,0.09995905308920766
19.468968000000004,1.1678169776029648,0.10262456118111284
19.473568,1.1866443540798568,0.1056786514223985
19.478156,1.2146765426446289,0.10852811944218126
19.482755999999995,1.248848685811901,0.1113931284500946
19.487344000000007,1.2917369022104714,0.11419494237590333
19.491944000000004,1.3421973879644,0.11702568279843824
19.49654,1.4098354111208942,0.11940725503290717
19.501140000000007,1.4876218222615452,0.1217480477658245
19.505724,1.5738799372052024,0.12402430341737332
19.510316000000003,1.6683653865235746,0.1263770023033427
19.514908000000005,1.7704672466459337,0.12892699921445883
19.519504,1.8794863111042948,0.13151713734061166
19.524084,1.996932937917034,0.1339645478697037
19.528668,2.1169998248071997,0.13632144148824685
19.53326,2.2393984608978714,0.1384657701206628
19.537856000000005,2.369603496140455,0.14008425746914685
19.542444000000003,2.5047503010292322,0.1410927676721103
19.54704,2.6359667158018705,0.14188683229161492
19.551632,2.7678720974107542,0.14226939168201025
19.556228000000004,2.897523773084648,0.14242009586897725
19.560824,3.0249217428235537,0.1424205717257789
19.565411999999995,3.155462613313358,0.14205417607704265
19.570004,3.2775759214487836,0.14177471803767647
19.574596,3.396125393610507,0.14141883636232075
19.579176000000004,3.5075132920079377,0.14107583939411822
19.583788,3.612883420517013,0.14069097626698152
19.588376,3.7072498680429122,0.1405346686639327
19.592988000000005,3.798296849023402,0.14026035735314904
19.597572,3.8854914831532694,0.1398365781784605
19.60216,3.96589109766128,0.13938301843772943
19.606756000000004,4.045336896641277,0.13866456167879085
19.611352,4.114267753494679,0.13802529744184278
19.615948000000003,4.169330299859188,0.13753161415756637
19.620524000000003,4.2192745107829905,0.13698438812550334
19.625128000000004,4.265899255161383,0.13635106023908902
19.629708000000008,4.301031579700016,0.1358957944115951
19.634308000000004,4.32916865663713,0.13550898916830154
19.63888800000001,4.354274777905752,0.13506877674982282
19.643488000000005,4.3754505090582345,0.13459926924071736
19.648080000000007,4.3926958500945785,0.13409053259214054
19.65266800000001,4.405888616300638,0.1335589081403351
19.657260000000008,4.4135964929235545,0.13300887540026612
19.661856,4.419950098059129,0.13237356065559666
19.666456,4.419963520612542,0.1317949786699858
19.671052000000003,4.4183783022503205,0.13115860026289464
19.67564,4.412496139629524,0.1305156626268139
19.680236000000008,4.402194848036006,0.12987783307331513
19.68482400000001,4.3856755585744684,0.1292810107426559
19.68941600000001,4.365514389873714,0.12868221294322177
19.693996,4.346575068314415,0.12796001508551777
19.698592000000005,4.3186414022786375,0.12739904515930398
19.703184000000007,4.295282951746617,0.12667329777642472
19.70777200000001,4.277565477328775,0.12582243636832854
19.712368,4.258415688158074,0.12496300952485194
19.716956,4.236323226216139,0.12417083802255839
19.721552000000003,4.215374568150143,0.12333229068942013
19.726136,4.194181540655854,0.12251175695188371
19.730728,4.174054273771988,0.12172723562581558
19.735340000000008,4.155237136926835,0.12095628988522242
19.73992800000001,4.14067280289163,0.12012893770302557
19.744536,4.125497545285697,0.11935552094172137
19.749120000000005,4.107423756357156,0.11871581967293865
19.753708000000003,4.0951572697055685,0.11801667744343121
19.75830000000001,4.086777031721492,0.11729822742453541
19.7629,4.081505792671423,0.11656788049220655
19.767492000000004,4.080653682594076,0.11584200147898668
19.77207200000001,4.084342886203597,0.11510897721825739
19.776672000000005,4.094494457109427,0.11433188516257653
19.781251999999995,4.107266288092682,0.11359122438607044
19.78585200000001,4.117672468058542,0.11301428671590014
19.790440000000004,4.130332353959391,0.1125054902864036
19.79504,4.137806100785753,0.11221337877372178
19.79962400000001,4.142259131575364,0.11207214900711569
19.804216,4.14908805301411,0.11199366972115017
19.808803999999995,4.1605804728538685,0.11190231906580074
19.8134,4.177635825542288,0.11178654201054566
19.817988,4.199599046060013,0.11163623499162785
19.82258,4.221073527721154,0.11153177031177472
19.827168,4.241692716383277,0.1115106493314468
19.831756,4.2610900579039415,0.11160746592648589
19.836344,4.285395267253913,0.11166903820006356
19.840940000000003,4.315996517737417,0.11163475664740402
19.84553200000001,4.342389106859601,0.11171480856032112
19.850116,4.372135064344086,0.11176751456005993
19.854708,4.4011479135436975,0.11188926217152484
19.859288000000006,4.429916393315016,0.11203291941379433
19.863884,4.456641634762748,0.11222285086673202
19.868468000000007,4.479402584277452,0.11249629125631702
19.873056000000005,4.5047396524209535,0.11274217371391355
19.877664,4.531220524440396,0.1129516965102647
19.882256,4.560233373640006,0.11306897000487386
19.88686,4.596275372258026,0.11303207723641849
19.891448,4.634604978627924,0.11292514553190741
19.896035999999995,4.674689312444489,0.11273573626818624
19.90064,4.7108873975935435,0.11255780304132791
19.905228000000008,4.742177614913294,0.1124152945414572
19.909824,4.771380452460829,0.11226206983590094
19.914404000000005,4.801316398293239,0.11204618132454292
19.919004,4.830186583515228,0.11178992180492776
19.923592,4.858479746983375,0.11145419072823315
19.92818800000001,4.883008846498158,0.11111897372228013
19.932776000000004,4.904551131793078,0.11078511902715817
19.937376,4.9270708948011634,0.11037056707229675
19.941959999999995,4.942228856065293,0.1099993058491159
19.946552,4.95578817641379,0.10957188671652043
19.951148000000003,4.967748855846654,0.10908915310398519
19.95574000000001,4.981953001582768,0.10848770640670538
19.960332000000008,4.996357375298546,0.10780648372526423
19.964928,5.00724205448925,0.10710581122140891
19.969516,5.01513991946009,0.10639633950755353
19.974100000000007,5.01608667827804,0.10574873461423862
19.978688000000005,5.011226134819036,0.10513977729849378
19.983276000000004,5.00337877714017,0.10452305389094713
19.98786800000001,4.989113193613623,0.10398767485915089
19.992452,4.9771352178389545,0.10339110559242093
19.99704,4.966423230654369,0.1027533148694836
20.001628,4.953257309555134,0.10212418170329461
20.006208,4.942256811493631,0.10144715624454691
20.010804000000007,4.930601248412771,0.10075679422734012
20.01539200000001,4.916247381988967,0.10009162068499704
20.02,4.9011162658316625,0.09942244590811254
20.02458800000001,4.8840640960649155,0.09877924959882974
20.029200000000003,4.8658681224222295,0.09816278351001356
20.033792000000005,4.848449398513046,0.09753975542550347
20.038380000000004,4.829886870727923,0.0969419908753089
20.042976,4.810957788800363,0.09637056419377231
20.04756400000001,4.79039616414028,0.09586591727383206
20.05216,4.770367419785409,0.0953788712790288
20.056748,4.748950502126307,0.09493637254820539
20.061352,4.728310834200708,0.09449050376929809
20.065932000000004,4.716665510751587,0.09395400345182886
20.070528,4.706452502055326,0.09342772341098966
20.07512,4.697549623397776,0.09292206454069303
20.079719999999995,4.692244482530818,0.09237813218511871
20.084304000000003,4.682486310874249,0.09193774468690447
20.088899999999995,4.671095596485158,0.09156547103417859
20.093488000000008,4.661792261868283,0.09121676286874392
20.09808,4.649834765357093,0.09095538966065964
20.102672,4.642007886941704,0.09068209126487285
20.107264,4.641254299393352,0.0903544756400384
20.111852,4.645652949102597,0.09000089446651208
20.11644,4.651483913564699,0.08966017104390224
20.121027999999995,4.659768811941454,0.08931731566035506
20.12562800000001,4.673983197309308,0.08895146633302184
20.130216000000004,4.692328200772963,0.088578792331219
20.134808000000007,4.714026572598918,0.08819930757975379
20.139399999999995,4.736257824730084,0.08784296646919763
20.14398,4.7599213916141085,0.08750438994828853
20.148579999999995,4.787837761308082,0.08715061625010033
20.15316,4.821561433279006,0.0867890726958597
20.157740000000004,4.854141301373993,0.08646415904729571
20.162332000000006,4.887620603916626,0.08613620549795778
20.166923999999995,4.924819828963997,0.08577838973485816
20.171512000000007,4.9666384109637525,0.08538816689367759
20.176108,5.016019022687128,0.08492165912481485
20.18070400000001,5.070385545505325,0.08439262723481873
20.185308000000006,5.125118622465959,0.08384278498385858
20.189896000000005,5.180873318588388,0.08327799569725355
20.194500000000005,5.23879343774855,0.08269267313908613
20.199079999999995,5.29082821136624,0.08218775668769977
20.20368000000001,5.337222008869753,0.08174059121400233
20.208268000000004,5.385659044696851,0.0812686222542035
20.212868,5.433441015504594,0.08079253324528837
20.217448000000005,5.4779918026641825,0.0803206957510067
20.222048,5.5230313286803545,0.07982553316835979
20.226631999999995,5.564595301620081,0.07934804560007587
20.231228,5.605870763682886,0.07883720879535974
20.235820000000004,5.647879334030567,0.07828576496413155
20.240412000000006,5.686534536015946,0.07774187605387818
20.245008,5.720404054886168,0.07719326246075006
20.2496,5.751941824555882,0.07664109367770336
20.254188,5.783601778939743,0.07608599726512216
20.258776,5.810109496066007,0.07554770930936967
20.263364,5.833263844829973,0.07502103766452684
20.267952000000008,5.8493449027269,0.07452427561220794
20.272540000000006,5.86002935393794,0.07405569520492519
20.277131999999995,5.8698143707013335,0.07359334911746619
20.281728,5.879433061301952,0.07309061207587289
20.286316,5.88263352605489,0.07262596249156325
20.290916,5.885667664645053,0.07211719714490956
20.295496,5.8893127268059455,0.07156726671327641
20.300088,5.889726605318684,0.07100983902336692
20.304683999999995,5.888463799650272,0.07045263305053699
20.309272000000007,5.887445363410151,0.06988091051491944
20.313884,5.880908135769998,0.06933752607979166
20.318472,5.87371584311049,0.06877986163304317
20.323072,5.8664013657368335,0.06822998747589666
20.327668000000003,5.8560220308777975,0.06771304948714718
20.332260000000005,5.846009250161199,0.06717165545171541
20.336856,5.834974850282806,0.06663831451446069
20.341448,5.823163200670911,0.0660991439895627
20.346052,5.806732194106631,0.06557894013895421
20.350632000000004,5.790956252561709,0.06506843346654494
20.355232,5.770072215207818,0.06460696001430477
20.359812000000005,5.753807534806311,0.0641229115616888
20.364412,5.739463908014246,0.06362396404698936
20.369,5.7261419003839755,0.06311508397009455
20.3736,5.71155390416362,0.0626299805143007
20.378196000000003,5.699009146266851,0.06212304788820225
20.382788000000005,5.6887961375705896,0.061631141247385335
20.387372,5.681814312522482,0.06115325546049977
20.39196800000001,5.677042051960735,0.0606987583738522
20.396564,5.668061130037668,0.060286459444009614
20.40116400000001,5.661411957315108,0.05989261952345097
20.405756,5.658238337668995,0.05949752024761307
20.410348,5.6573964672233865,0.05911914557973387
20.41494,5.656432412063634,0.05874866468836096
20.419524,5.655223987475589,0.05839240532554765
20.424116,5.658390550411637,0.05803765613485844
20.428708,5.6651548511382765,0.057677317930638634
20.43329200000001,5.671186043580041,0.05736139823447239
20.437872,5.683757646583635,0.0570205658150488
20.442468000000005,5.699926987377818,0.05667609035903478
20.447047999999995,5.725579411505062,0.05629033747119687
20.451628,5.750987466204018,0.055924354134850175
20.45622,5.7772949553506185,0.05556093272254543
20.460808,5.801314836745341,0.05523070013985891
20.4654,5.828932455930657,0.054899413952101545
20.469992000000005,5.857082955421181,0.05459225198204485
20.474584000000007,5.889442116273027,0.054252420252125864
20.47918,5.921146212105515,0.053903596891635486
20.483760000000004,5.9561595348516745,0.0535232474227198
20.48836800000001,6.000000875911541,0.05309542654231867
20.492952,6.041510467770899,0.05265478111120461
20.497556000000003,6.083264429058549,0.05220497097505435
20.502136000000007,6.128327617259871,0.05172651538188933
20.506736000000004,6.171714121280043,0.051243646294100574
20.51132800000001,6.218287667499742,0.050736225423434575
20.515924,6.257176999281674,0.05026171884301066
20.520508000000007,6.291446974111221,0.04979750937779684
20.525104,6.327227306959145,0.04929952521202855
20.529692,6.35736666369289,0.0488194377916452
20.534288000000004,6.383253217616687,0.04832973355974857
20.538876,6.396181135130978,0.047861876594026014
20.543464,6.40461188040703,0.047394337406576934
20.54804800000001,6.409855583483555,0.046953856141613015
20.552644,6.414444221540724,0.04649807351120394
20.557232,6.410449210712479,0.04606704089437731
20.561824,6.399913789322407,0.045645734537016355
20.566420000000008,6.379528730456839,0.04526999131819616
20.570996000000008,6.355956629391743,0.04491968009941638
20.575596000000004,6.319714402794059,0.044616964292115854
20.580184000000003,6.276565211492112,0.04434475113727619
20.584776000000005,6.227286305219405,0.044107267465154254
20.58936,6.173920922299524,0.04389288186050419
20.593948,6.110705901904144,0.043718527618590984
20.598548000000008,6.048268131242266,0.04354727209268538
20.603136000000006,5.9814995145049235,0.04341280704408713
20.607724000000005,5.915752516929374,0.0432691976547718
20.61232,5.851804388249121,0.04312273655129974
20.616907999999995,5.783769782921695,0.042997700819692085
20.62150800000001,5.714591373718325,0.04288272736756831
20.626088,5.6392832495441985,0.0428024523089867
20.630688000000006,5.567572863160661,0.042720780237128574
20.635276000000005,5.4918981848440955,0.04265487559354514
20.639876,5.413403018470441,0.042593356940108386
20.644464,5.330166310430256,0.0425382722344971
20.649064,5.249872275161305,0.04246798912727719
20.653648000000004,5.174197596844741,0.04239169863205801
20.658240000000006,5.098278549099885,0.04233129373474321
20.66282,5.019661198012084,0.042265803825293526
20.667412,4.9446415847148755,0.04220583510278943
20.672011999999995,4.8669236680747225,0.04214003837055928
20.676604,4.791004620329867,0.04207625172464739
20.681196,4.709566781184978,0.04201237720677619
20.685788,4.6291505612018815,0.0419382925742611
20.690380000000005,4.543870614838109,0.041882149171101654
20.694976,4.452172442626658,0.04182864518619415
20.699563999999995,4.359574835967557,0.04176693027217336
20.704156,4.2612140684801325,0.041721594803102294
20.708752000000004,4.1600328129356186,0.04167996964190142
20.71334,4.0606504262864,0.041638605931295966
20.717935999999995,3.9658873965895665,0.04159670732146851
20.722524000000007,3.871657247197944,0.04158898792563546
20.727115999999995,3.7833124433487915,0.041537364496080496
20.731708,3.6950898242137846,0.04147176145751773
20.736296,3.6085438892599275,0.04141739941923624
20.740892,3.5210985198584233,0.04135139745717064
20.74548,3.4269905551809465,0.04130615987718112
20.750068,3.334026394379409,0.04123816535778539
20.754664000000005,3.2440049063491063,0.041138213331976724
20.759252000000004,3.15717046051833,0.040985981579795126
20.763856000000004,3.072134883582849,0.04082794995746819
20.768448000000006,2.9874658607898055,0.04061524052523959
20.773052000000007,2.910236683006236,0.04038325533494931
20.777640000000005,2.8327631357943743,0.04017328644965802
20.782236,2.757210642191955,0.03994355856619285
20.786816,2.686399690256066,0.03968585856130954
20.791416,2.6145671191583837,0.039420685910700325
20.796004,2.5473539050130865,0.03914462253043419
20.800604000000007,2.4839827980866716,0.03882980244065831
20.8052,2.4188128222649614,0.038492972774864465
20.809792,2.3541315852998337,0.03805929838234606
20.814384000000004,2.289939087191288,0.03753317612744871
