Time,Force,Position
21.154564,0.07023269655615086,0.0
21.15915599999999,0.07870364669225142,0.0
21.16373199999999,0.08693022740006065,0.0
21.168327999999995,0.09425812732712792,0.0
21.17291199999999,0.10277321891185665,0.0
21.1775,0.11451949414473975,0.0
21.182104,0.1274537147021902,0.0
21.186692,0.14079863085070582,0.0
21.19128,0.15557586175208013,0.0
21.195872,0.17472808017754807,0.0
21.20046,0.1903267022610527,0.0
21.205055999999992,0.20245052493501753,0.0
21.209631999999992,0.2125311092853953,0.0
21.21423199999999,0.21709290223574024,0.0
21.21882,0.21858983770070464,0.0
21.223415999999997,0.22188564206096478,0.0
21.228,0.2278797497641684,0.0
21.2326,0.2329744230197242,0.0
21.237183999999992,0.2353707929323365,0.0
21.241775999999994,0.24557356199685992,0.0
21.24637599999999,0.25422183159437894,0.0
21.250967999999997,0.26785601228672,0.0
21.25556799999999,0.2845550504644416,0.0
21.260159999999992,0.2995774044610131,0.0
21.26474799999999,0.3112463900952846,0.0
21.269344,0.31710807345260383,0.0
21.273931999999995,0.32202618091364704,0.0
21.278524,0.32755521194541865,0.0
21.283112,0.3302196134714728,0.0
21.287699999999997,0.3270767127205747,0.0
21.292292,0.32875339690172467,0.0
21.296879999999994,0.33476092715834016,0.0
21.301472,0.3403577618238905,0.0
21.306052,0.34775346538473645,0.0
21.31064399999999,0.35989071061211314,0.0
21.31524,0.37387096618341353,0.0
21.319827999999998,0.38777317848919657,0.0
21.324412,0.3989431856351466,0.0
21.329007999999995,0.4175191359736813,0.0
21.33359199999999,0.4308309039722135,0.0
21.33819599999999,0.4498719309821804,0.0
21.34278799999999,0.4670801872799622,0.0
21.347391999999992,0.4859312259420047,0.0102009802520341
21.35197999999999,0.5157859455872233,0.019615705752501843
21.356571999999996,0.5575437806632662,0.028474755721989445
21.36115999999999,0.6100609272941938,0.03699780242079081
21.36576,0.6645093671663015,0.045886572909065865
21.370348,0.72395395776497,0.054730990387083754
21.374943999999992,0.7915036980242078,0.06353725091837319
21.379535999999995,0.8692018262676022,0.0721272454489004
21.384132,0.9535727894187075,0.08056315882652759
21.38871199999999,1.0416739147062886,0.08904480528101406
21.393303999999997,1.138246743796876,0.09744714489629665
21.397896,1.2391606585946677,0.10591342227187811
21.402488,1.3444156590996637,0.11428710503335929
21.407068,1.4507364202150812,0.12271609042468896
21.411656,1.5653964607876205,0.13088163455148807
21.416244,1.689128889102156,0.13886380695972245
21.420836,1.809341622891618,0.14682316945500318
21.425419999999995,1.931264942679119,0.15472454377948316
21.430012,2.0476253296179596,0.16271960440704497
21.434604,2.1667620631652604,0.17062921640268852
21.43918399999999,2.287120643854019,0.1682107365490108
21.443775999999996,2.4020384764082614,0.16654897645640113
21.448372,2.5127815494180736,0.16533920859667703
21.452955999999997,2.6213931012070426,0.16431110073315663
21.45755599999999,2.736701150088874,0.16268743659934584
21.462144,2.8492226127305047,0.16105863741555693
21.466732,2.957402989664931,0.15944235887820127
21.471315999999995,3.058177423406772,0.15805311863807175
21.475908,3.1515459139560287,0.1568370354743277
21.480512,3.241839307388166,0.15550942728680353
21.485088,3.3268921806654514,0.1542237444176317
21.48968,3.4127120640445,0.15271160681149867
21.494268,3.4898158741922507,0.1513120462132202
21.498872,3.566298521137534,0.14975962798490164
21.50346,3.6330876171383544,0.1484773422235598
21.508059999999997,3.6928814655376554,0.14735298197293184
21.512644,3.750299423287822,0.14620071854853156
21.517239999999997,3.8068959898558576,0.14501870091976554
21.521832,3.8656138380129983,0.14366942624418327
21.52642799999999,3.9210563610733566,0.14233889867393645
21.531023999999995,3.970403070979842,0.14110430892383954
21.53562399999999,4.0129989027130994,0.1399207732947499
21.540215999999997,4.04770005239719,0.13885052357844502
21.544808,4.0738955964613845,0.13796424410756483
21.549395999999994,4.087577101524027,0.13731117685415525
21.553992,4.096961662328094,0.13666730488825887
21.558568,4.103070898035377,0.13599530932692494
21.563163999999997,4.10500537419823,0.1353086802136086
21.567756,4.1064850133213895,0.13451612957331716
21.572343999999998,4.104200588491184,0.13374708172401764
21.57694,4.096597600240609,0.13300949841215995
21.58151999999999,4.079100833065909,0.13248835636546025
21.586099999999995,4.059516686118991,0.13195577320934815
21.59068399999999,4.034003052180977,0.13151539180079858
21.595272,4.007301472918395,0.131042718677736
21.59986399999999,3.979289763617101,0.13054936389512672
21.604448,3.947558131811069,0.1301437806515024
21.60904,3.912473131642737,0.12977862578212446
21.61363199999999,3.872358078930955,0.12947992059319413
21.618227999999995,3.8286452884285813,0.12924998338098856
21.622824,3.7794137065261753,0.12915559249706982
21.627412,3.731980993519065,0.12902090334112842
21.632012,3.6841817263695167,0.1289351832887687
21.636599999999994,3.6385478822577015,0.12876155907141607
21.641196,3.595778667651604,0.12859114116959156
21.64578799999999,3.5505996605794823,0.1285381367985643
21.650383999999995,3.505586979670135,0.12854608167680737
21.65496799999999,3.46356111298065,0.12854106564798842
21.659559999999992,3.4231338872067987,0.12859214992907958
21.66414799999999,3.3856934756528085,0.12862267361524338
21.668744,3.352916562499833,0.12861389728961203
21.673331999999995,3.326069136337954,0.1285069864440342
21.677928,3.3038852085770896,0.12836402367071056
21.682516,3.288940897846036,0.1281371296740089
21.687108,3.280214584982999,0.12786591766036084
21.691696,3.2739863474832434,0.12764615018561057
21.69628799999999,3.2752420964415894,0.12732319135206085
21.700883999999995,3.2795288010684267,0.12707721494601296
21.705464,3.2927318069062252,0.12673996748465516
21.71005999999999,3.311375560878538,0.12637211750314906
21.71464799999999,3.339957235223606,0.12586884494901657
21.719239999999992,3.3750012768649835,0.12531307956198845
21.723824,3.4202276083074055,0.1246133704405201
21.728412,3.465908776789522,0.124030446978948
21.733011999999995,3.5166199978150887,0.12339075731217988
21.737599999999997,3.575714639746405,0.12263505118924165
21.74219999999999,3.640616583954673,0.12182359891602207
21.746796,3.707483723221011,0.1210449869693457
21.751383999999995,3.776149731382645,0.12025491167837711
21.75598,3.8461258695829916,0.11950860721962701
21.76057199999999,3.9204769953074323,0.11873022970107887
21.76517599999999,3.99572755547952,0.11795968571620404
21.76975199999999,4.076619091765787,0.1171134754302646
21.774352,4.153790705547316,0.116365478039987
21.77893199999999,4.2276089509665455,0.11567618961128234
21.783532,4.303592619423508,0.11493755506693758
21.78812399999999,4.377122353965818,0.11424351183447397
21.79272,4.446888024554763,0.11354134177008796
21.79730399999999,4.510479838724318,0.11294743744314428
21.8019,4.569941034798072,0.11239299810669853
21.80649599999999,4.629480274137343,0.11178740915853266
21.811091999999995,4.683334395913807,0.11123439303617597
21.815679999999997,4.7326472040034036,0.110707457948651
21.820276,4.783059674520312,0.11008321446309752
21.824864,4.831384765265003,0.10946098941021125
21.829452,4.878355584522355,0.10878370801998902
21.83403599999999,4.917964602035751,0.10815492894243996
21.83862399999999,4.957118782509452,0.107445066635272
21.843208,4.987522987934967,0.10682340546050823
21.847795999999995,5.009788141883022,0.10623968731315603
21.852392,5.01994995242059,0.10577276146541745
21.856971999999992,5.024060091252915,0.10536277791796304
21.861568,5.016966321122401,0.10505685260003948
21.866151999999992,5.0071301062003135,0.10472186951933811
21.87073999999999,4.992386023448923,0.10440918118873341
21.87534399999999,4.973100627010664,0.10408806299819445
21.87993199999999,4.949029547457247,0.10377772831223915
21.884511999999997,4.92581376090285,0.10339221693387576
21.889108,4.8998555295568815,0.10297421794262715
21.893708,4.873608787333993,0.10251206431670767
21.8983,4.839144950368127,0.1021519302879403
21.90287999999999,4.802882244506967,0.10180933505983823
21.90748,4.757503009455183,0.10158049515799304
21.912068,4.71069145965054,0.1013323541393558
21.91666399999999,4.656562249550568,0.10117715909680322
21.92125199999999,4.595770444174624,0.10111487173864658
21.925852,4.537799126855768,0.10100456101183765
21.93044799999999,4.477662386499182,0.10093481934183668
21.935039999999997,4.4254542300086515,0.10071351346802415
21.939624,4.382240417994599,0.10038461402590304
21.94421599999999,4.34454539738058,0.09998037812487659
21.948816,4.312491352880739,0.09949007446387252
21.953416,4.281625253705465,0.09902841471258754
21.958003999999995,4.252069284568905,0.09858534423579611
21.9626,4.2275433679757946,0.09810974631037972
21.967188,4.201140539221871,0.0977282296828229
21.971776,4.179767763011398,0.09731422405644763
21.97635599999999,4.158439128249552,0.09696378570424645
21.98094799999999,4.140874557441072,0.09662602916965958
21.985539999999997,4.123720682223658,0.09631986092420455
21.99012799999999,4.113762282587426,0.09593037724143319
21.994728,4.105236197704052,0.09555159340564987
21.999307999999992,4.108158391211809,0.0950603250488854
22.003899999999994,4.112024160615842,0.09462915254537063
22.008496,4.123618285906269,0.09413717680390274
22.013084,4.139998094311855,0.09363939609023891
22.01767999999999,4.159609086365595,0.09314430755347136
22.02226,4.183595065943429,0.0926193932045295
22.026847999999998,4.206603567808098,0.09219427207239062
22.031444,4.225281223597301,0.09187861555786196
22.03603599999999,4.25078780082525,0.0915333151712515
22.04062799999999,4.276827258358408,0.09122088038679897
22.04521599999999,4.308385507291602,0.09084705819522959
22.049816,4.344440928463033,0.09043665540541727
22.054404,4.383194652977409,0.09001073090569889
22.059003999999995,4.431431460824845,0.08946966260356229
22.063596,4.480567703119929,0.08893504866227565
22.068183999999995,4.537143790424487,0.08833127672982129
22.072776,4.598583604109722,0.08767795524392301
22.07737199999999,4.66554220919499,0.08698282938293948
22.081951999999998,4.731234825690172,0.08634091518531571
22.086548,4.803467852747181,0.08564308414142344
22.091131999999995,4.874923630070687,0.08496802866263314
22.095728,4.949444264879575,0.08425667752621767
22.100316,5.02457582325919,0.08351669590585248
22.104904,5.098152882171801,0.08277576687598677
22.109492,5.166333334398525,0.08208102204575088
22.114084,5.2270739416157745,0.08145810168769409
22.11867999999999,5.286626603508457,0.08080923212098678
22.123264,5.3498550464572485,0.08007986554861038
22.127856,5.405110764091354,0.07940851076388018
22.132444,5.453171006144278,0.07878257255997345
22.137036,5.498000064549048,0.07816078587647399
22.14162,5.539597939305663,0.07754531754373646
22.14620399999999,5.576165761518828,0.07694295177139296
22.1508,5.60079656648428,0.07643008733927581
22.155387999999995,5.619908580049699,0.07595813500760673
22.159975999999997,5.630925683586287,0.07553719982862332
22.164572,5.632948442646395,0.07516737982996374
22.169167999999992,5.63174001805835,0.0747954253927922
22.173759999999994,5.628322028983944,0.07440458617137115
22.17834,5.61615406486135,0.07404232199020366
22.182939999999995,5.597034994585868,0.0736970808239115
22.18752399999999,5.569288133976341,0.0733665810041227
22.19212,5.532424744176193,0.0730818716251588
22.19670399999999,5.496949527680274,0.07275731637127694
22.201304,5.461063615593288,0.07239931822083831
22.205887999999995,5.427587495972327,0.07198707009845386
22.210484,5.390269269132485,0.07160308376774613
22.215072,5.342446339797785,0.07129917275242971
22.219664,5.292047291834289,0.07099381272356414
22.224252,5.249454643022704,0.07060916676454937
22.228847999999992,5.205840375049325,0.07023154999829881
22.23343599999999,5.160549422894798,0.0698462843015094
22.23802,5.1180789587973585,0.06943563710991647
22.242612,5.084314328299479,0.06894562706137339
22.247207999999997,5.054880543877063,0.06838611318467702
22.2518,5.02401444470179,0.06780007043728807
22.256392,4.994825029707668,0.06720922633736842
22.260984,4.9597502691710735,0.06666709262969739
22.265572,4.922876639739184,0.0661244084625042
22.270164,4.887557509774299,0.06558562973905532
22.274747999999995,4.852771260114625,0.06506275988441237
22.279328,4.826979354931429,0.06450372283556961
22.28392,4.8083829253294175,0.06391383224778566
22.288499999999992,4.785944388508523,0.06334976977569345
22.293091999999994,4.767880839211722,0.06277782787831382
22.297684,4.753292842991366,0.062202892009947684
22.302283999999997,4.747044126228133,0.061588226526203486
22.306875999999995,4.751955176979109,0.06091301104158312
22.311463999999997,4.765860572206566,0.06021521951923498
22.31606,4.776701109948641,0.05955850213066893
22.32065199999999,4.790117766319515,0.05890462792070691
22.325247999999995,4.804722368014955,0.05829020495739431
22.329828,4.819859850015606,0.05770649573730706
22.334428,4.8318102898167306,0.057169503070846846
22.339015999999997,4.843027621332982,0.05668881677235743
22.343608,4.860052255126186,0.056232433235930045
22.348188,4.880796811424127,0.05576343725745775
22.352783999999996,4.9089812127315415,0.05526543051929295
22.35738399999999,4.9432172857442,0.054779313435439896
22.36198,4.98411595403283,0.054266199747242526
22.366572,5.027957295092696,0.05373227899222454
22.371155999999992,5.065791105895945,0.053254551944716885
22.37574399999999,5.103258362556759,0.05280630318658111
22.38034,5.14497842202752,0.05237173752288813
22.384927999999995,5.18248982013696,0.05198582705475092
22.38952,5.2197568488181085,0.05162386585150861
22.39411599999999,5.2501169127949945,0.05131317387335108
22.398704,5.277534304000645,0.051027146217609856
22.40329599999999,5.297389665482678,0.0507730819877383
22.40788399999999,5.315856853660478,0.05055239076878794
22.412479999999995,5.333302422676486,0.050341756087074606
22.41706399999999,5.348171873063697,0.05012375276062602
22.42165599999999,5.3574003473367275,0.04992483299016618
22.426264,5.363686148838524,0.04974300581481459
22.43084799999999,5.363431539778494,0.04957934918711803
22.43543599999999,5.35712525901322,0.049401881423921684
22.440024,5.345055817419621,0.049250576838791096
22.444612,5.326323780550051,0.049125542936705
22.44921999999999,5.298353029775711,0.04901895173797388
22.453816,5.262575879849461,0.04895357113634174
22.45841199999999,5.223733872437829,0.04891163476528918
22.462991999999996,5.183215180845047,0.04886059002977337
22.46759199999999,5.140364740051759,0.048782522267145925
22.472171999999997,5.089297204515495,0.04871237663859945
22.476768,5.037696788674021,0.048615036473905644
22.481351999999998,4.974692235890043,0.0485620348607452
22.485944,4.910133183639061,0.04849091513753641
22.490536,4.838911536112107,0.04844549484582905
22.495128,4.76691263885165,0.04838910491587795
22.499732,4.6916825579430395,0.04830306296386904
22.504327999999997,4.6109336856343965,0.048223939026735524
22.508915999999992,4.529940443897461,0.04816294902331248
22.513512,4.446371083531728,0.04808908468634686
22.518095999999996,4.357160747051815,0.04803757997131821
22.52268399999999,4.269094214447844,0.047964219387694275
22.527268,4.179517323825498,0.047940182629067095
22.53186,4.090062617917294,0.047902665507704376
22.53645199999999,3.997787423952002,0.04787800844925339
22.541043999999992,3.908210533329654,0.047852784383664144
22.54564,3.8159353393643625,0.04782734096406207
22.55021999999999,3.7237823301132167,0.047786890207761105
22.55481199999999,3.630485516986132,0.04776990602058441
22.559403999999997,3.53400166165952,0.047796035506252575
22.563996,3.442137163285294,0.047806655216233104
22.5686,3.350028295482776,0.04783640104247877
22.57318399999999,3.264704207670376,0.04782103598099932
22.577784,3.177214696820243,0.047849895973630666
22.582372,3.089847370684256,0.04786960043496139
22.58696799999999,3.002480044548269,0.04788168421758789
22.591564,2.91486834898399,0.047915627364632944
22.596156,2.828933337600861,0.04797085807829139
22.60074799999999,2.7425876306266677,0.04795326106110068
22.605327999999997,2.6585736728529805,0.047990035984309926
22.60992799999999,2.582243929517059,0.04796018438282856
22.61450399999999,2.506813620628785,0.04791882988167213
22.619104,2.432649300330596,0.047826224463310446
22.623696,2.357218991442322,0.04779160478128466
22.628291999999995,2.285508605058785,0.047742222416318356
22.632884,2.2091788617228634,0.04771654148065984
22.637476,2.1335041834062984,0.047749871149102
22.642064,2.0559084514802923,0.047800398287259
22.646663999999998,1.9802337731637267,0.047837784701709865
22.651256,1.9046812795613075,0.047862474931639455
22.655848,1.8233656251305637,0.04799335979789395
22.660436,1.7392294826427308,0.048188082265301434
22.66501999999999,1.6558705898884003,0.04840773718990017
22.66960799999999,1.5728782512765065,0.045988009896795225
22.674204,1.4906631623981148,0.04356731091415178
22.678796,1.408570258233869,0.04116473017259377
22.683384,1.3280318535366278,0.03876200084861048
22.68797999999999,1.2474934488393865,0.03633884772646128
22.692568,1.1664663052855622,0.033977757046186
22.69715999999999,1.0874824000553254,0.03157461437012337
22.701748,1.0073546909491486,0.029215312773435732
22.70633999999999,0.9298031004717705,0.02688027748514188
22.710952,0.853928194175542,0.024571415195243716
22.71554,0.7831613836882813,0.022217664697800368
22.72013599999999,0.7141934420963161,0.019865422743429867
