Time,Force,Position
18.079564,0.1477467937859748,0.0
18.084152,0.12215246977816582,0.0
18.088744,0.09721321078971334,0.0
18.093328,0.07382845126826523,0.0
18.09792,0.05019932231852576,0.0
18.102512,0.02914631199758418,0.0
18.1071,0.015410961971971084,0.0
18.111688,0.00629496889874292,0.0
18.116272,0.0007767136161061607,0.0
18.12086,0.0,0.0
18.125468,0.0,0.0
18.13006,0.0,0.0
18.134648,0.0,0.0
18.139244,0.0,0.0
18.143832,0.0,0.0
18.148428,0.0,0.0
18.153016,0.0,0.0
18.157612,0.0,0.0
18.1622,0.0,0.0
18.1668,0.0,0.0
18.171392,0.0,0.0
18.175996,0.0,0.0
18.180588,0.0,0.0
18.185184,0.0,0.0
18.189772,0.01108824484136346,0.0
18.194368,0.03416788801080727,0.0
18.198956,0.07001617924183359,0.0
18.203544,0.11773368408679458,0.011528260869120064
18.208132,0.17821983699333807,0.022098197308602532
18.212728,0.25212970298082066,0.032033638857859634
18.217316,0.3406070859251815,0.04139058014748505
18.221908,0.4436519858264205,0.05033258700848682
18.226496,0.559465533789242,0.059059227090762306
18.231088,0.6878033603853547,0.06765760959824482
18.23568,0.8316081383859937,0.07599673471199224
18.24026,0.9842172725151865,0.0844183097151913
18.24486,1.15217117333476,0.0926510294543694
18.24944,1.3354698408447137,0.10072651379893441
18.254032,1.5332138405974,0.10869426937645972
18.258616,1.7458919114494016,0.11651701732575535
18.263204,1.9663866210850531,0.12430885702276784
18.267812,2.1928549591604307,0.13205086582049716
18.2724,2.423620241494384,0.13977501259311703
18.276988,2.6591712069434967,0.14743539598780453
18.28158,2.883922438428165,0.15513371513738322
18.28618,3.0990140207852597,0.1628065158965605
18.290772,3.3021142048142744,0.1704709212002985
18.295356,3.495021859410504,0.1665790743896712
18.299948,3.677736984573949,0.16359868082810405
18.304536,3.8439635391710745,0.1613451752272641
18.309132,3.9933349690594433,0.15975617801444408
18.31372,4.128916131724435,0.15857339853194488
18.31832,4.251728646327845,0.15760598582817195
18.322904,4.363571381764968,0.15674956655153907
18.327496,4.457248862454623,0.15621311152190837
18.332088,4.547762963129901,0.1554516140116897
18.33668,4.623831731562446,0.15485958033201694
18.34128,4.683534114142818,0.15445543169201262
18.345872,4.728013914746955,0.1541672890509305
18.35046,4.757437459537631,0.15403546393438525
18.355052,4.779166550258803,0.15392323717381595
18.35964,4.79684306614969,0.15381071867268734
18.364228,4.812510245533879,0.15363353672088595
18.368812,4.822492307355263,0.1535389759437658
18.373408,4.834351281337458,0.15333596193890595
18.378,4.844245060261585,0.15312562463547294
18.382588,4.854383208614002,0.1528945129340326
18.387184,4.861045803889974,0.15272801355613505
18.391772,4.862433977194205,0.15266432698279905
18.396356,4.868152996573901,0.15245630910007404
18.400944,4.876770547276203,0.15210724492146335
18.405532,4.88497740238744,0.15173400531393305
18.41014,4.894205876660471,0.15133176607067703
18.41472,4.901469155875433,0.15092118695511392
18.419308,4.913473976756926,0.15039272842927115
18.423912,4.922125429276118,0.1499293161059141
18.4285,4.9264018942712156,0.1495440204552915
18.433096,4.930922728694606,0.14913486910107082
18.437672,4.94006292007038,0.14862645467555685
18.442264,4.950102545893803,0.1481003204104311
18.446852,4.963862094221963,0.1474976139240406
18.451452,4.974678969778887,0.1469719828593636
18.456048,4.979366130365052,0.14661752929017471
18.460648,4.985974344560656,0.146216495240232
18.465232,4.9886182668232335,0.14592022352062786
18.469824,4.992161623533458,0.1456076872342315
18.474412,4.992884492186594,0.14535853169169988
18.479008,4.9973272833444655,0.1450279239966549
18.483612,5.005612181721221,0.14460338029617073
18.488208,5.018638621764507,0.1440812329456376
18.492796,5.032075757398857,0.14358817533621185
18.497388,5.047067392500212,0.14308680244154182
18.501976,5.062181212315712,0.14257900101625298
18.506564,5.079504596617575,0.14206656870367418
18.511152,5.096705796205291,0.14157162288301112
18.515728,5.109698334431687,0.1411939095160955
18.520312,5.130907967401059,0.14066417884743657
18.524892,5.1577585764846114,0.14002807331409572
18.529484,5.180889263063426,0.13947344735789666
18.534072,5.206551926822409,0.1388373224309558
18.53866,5.233480579171477,0.13817752845905468
18.543268,5.2637184584342185,0.1374291984817621
18.547856,5.3016405521347245,0.1365251427835514
18.552444,5.340584264997023,0.1356071282516515
18.557028,5.382470650630558,0.13462548461578977
18.56162,5.422968862959861,0.13370170938993486
18.566224,5.4671869977939025,0.1327116004143536
18.5708,5.509606263732648,0.13175763092649814
18.575404,5.5529249641190415,0.13080140447758484
18.57998,5.588315080639376,0.1300262868913002
18.584572,5.622805762712065,0.12926844057126782
18.589164,5.6548425108701,0.12853726952267752
18.593756,5.689699747085227,0.12777047051242038
18.598344,5.723124668547494,0.127008322358808
18.602928,5.753074036933314,0.12629091726800915
18.607532,5.783389959461574,0.12553893639040767
18.612124,5.811251948075179,0.12482387846569828
18.616704,5.8324513414128125,0.12423038159328478
18.621288,5.853895104178738,0.12362067378855868
18.62588,5.87125239029749,0.12310128454039976
18.630468,5.88080327726433,0.12272675488790015
18.635056,5.888310925907582,0.12239646605248461
18.639648,5.891443587026741,0.12211837454591477
18.644244,5.893676813698254,0.12185361133608534
18.648832,5.895254975350407,0.12158377813807111
18.653424,5.898343495020939,0.12126013561934564
18.658012,5.900776949672114,0.12093247576951374
18.662596,5.905498012075167,0.12055053643113282
18.667192,5.9095640094588635,0.1201652274828758
18.671784,5.913996560984997,0.1197518278001301
18.676388,5.918673481939422,0.11932198756156291
18.680972,5.924005467913204,0.11889832056881554
18.685572,5.922919228039304,0.11855914743422519
18.690164,5.925552910670142,0.11817230130708985
18.694752,5.931906515805715,0.11773629882731734
18.699344,5.940836239570087,0.11727745817135601
18.703924,5.947722725010873,0.11685865149593065
18.708524,5.95485357987995,0.11642043236036988
18.713104,5.959941196425441,0.1160187752956473
18.717704,5.966050432132725,0.1155982138824322
18.722288,5.975102340611244,0.11512787606712702
18.726888,5.985053683537409,0.1146490581872152
18.731484,5.997581145092374,0.11415027372490298
18.736076,6.012151844970925,0.11362043298663688
18.740664,6.029176478764127,0.11308267558024689
18.745256,6.044035689519598,0.11259076250360764
18.749848,6.059017084989215,0.11209468583884842
18.75444,6.071955242135243,0.11163795058860398
18.759028,6.082972345671832,0.11120971115056426
18.763616,6.096932121979656,0.11073820020200421
18.768204,6.111913517449273,0.11025236350381168
18.772792,6.127139282347181,0.10975158975072999
18.777384,6.14596278503568,0.1092138558808793
18.781968,6.160044746057649,0.10874192453675022
18.78656,6.172205653470176,0.10829864012481812
18.79114,6.184610930310995,0.10784210330942179
18.795732,6.198160011027752,0.10736353621974945
18.800324,6.2168171875534775,0.10680679877245397
18.804912,6.238539221564583,0.10620192866758416
18.809524,6.261405059451628,0.10557658487096211
18.814104,6.282349843729231,0.10497455211277568
18.818692,6.303538997435125,0.10436146962555423
18.823284,6.3220298477980785,0.10377541507897599
18.82788,6.335779156494499,0.10324796640554391
18.832484,6.346952346562121,0.10274051438188114
18.837064,6.36106820940098,0.10219617452765849
18.841656,6.373140833916251,0.10168419539302778
18.846236,6.386235077593315,0.1011595716024181
18.850836,6.40100600545153,0.10062873460858608
18.855424,6.415532563881452,0.10011650373312836
18.86002,6.428793133721291,0.09963643339949528
18.864604,6.442953138008778,0.09915140634047499
18.869196,6.457357511724555,0.09865466506561399
18.873776,6.470862450992685,0.09816356513480434
18.87836,6.485511194136754,0.09765281920077337
18.882948,6.500404306709114,0.09713110688439236
18.887544,6.514153615405534,0.09663349079089975
18.892132,6.525370946921785,0.0961983754007171
18.896716,6.537487712885683,0.09576049458175642
18.901304,6.548460674973644,0.09534551346206298
18.905892,6.561843429527627,0.0948816060194479
18.910484,6.5733051304721695,0.09443919421766254
18.915072,6.588975492778031,0.09393942575819765
18.919656,6.6059118436739785,0.09341127983411965
18.924244,6.621948760122278,0.09289008290957365
18.92882,6.6343879387799864,0.09239475759890457
18.933432,6.649647605494783,0.09187623732211944
18.938012,6.662986218600139,0.09137848578235498
18.942616,6.673504343648405,0.09090544511317464
18.947204,6.685044087858467,0.0904227281356878
18.951792,6.699648689553906,0.08990512032510069
18.956388,6.717195964020582,0.08936296894664668
18.96098,6.731678381001878,0.08885875338559987
18.965576,6.746938047716674,0.0883543443310391
18.970152,6.760154476107885,0.08787627469334909
18.974752,6.773126535070803,0.08741531492658053
18.979332,6.78250085624313,0.08697375486768007
18.983932,6.789421243500805,0.08653429094765261
18.988524,6.795320011596687,0.08610990098958597
18.99312,6.804161452463804,0.08565912602070855
18.997704,6.814068653941342,0.08524159700546749
19.002296,6.825652539600031,0.08482180628898595
19.006904,6.833805013630902,0.08446056724184356
19.011496,6.845188671309926,0.08410254387864863
19.0161,6.860170066779543,0.08372792615867518
19.020696,6.876950331144455,0.08334409271113592
19.025288,6.890010673004629,0.08298651642036635
19.02988,6.9057693182077475,0.08261702471566194
19.034468,6.927291124239191,0.08220302724198389
19.039056,6.945337377194186,0.08180199210512129
19.043644,6.9579870234632955,0.08142884659912947
19.048236,6.966017312780021,0.0810865778399151
19.052832,6.976213025134479,0.08071599112823359
19.057424,6.990739583564402,0.08029227527104138
19.062016,7.010252053089147,0.07982619674638415
19.066604,7.029886707328039,0.07935688242111323
19.0712,7.056061772128755,0.0788483419009611
19.075788,7.085956759434209,0.0783203005888368
19.080376,7.115851746739664,0.07779607747635095
19.084968,7.142926245988029,0.07729418502234649
19.089556,7.170611668807123,0.07676538487956039
19.094144,7.200462514663949,0.07621624904198597
19.09874,7.229780480215563,0.07565271310299655
19.103336,7.256888881280818,0.07507969663983054
19.107932,7.280643913983773,0.07451174225388264
19.112524,7.309384857781549,0.07391032287770177
19.117116,7.340291224617056,0.0732848681021456
19.121708,7.367355484233682,0.07268555590386785
19.126304,7.390044756326215,0.07210061908603878
19.130896,7.416331766209338,0.07150617875301613
19.135496,7.4451948947212605,0.07090878460650268
19.14008,7.470993165747802,0.07033589719246627
19.14468,7.498834675097931,0.06974992112094561
19.149264,7.523489142248532,0.06920186802846472
19.15386,7.546222555789692,0.06867257193257693
19.158468,7.567157100435558,0.0681504482942802
19.16306,7.5834722881290375,0.06764895243996437
19.167652,7.601053464412603,0.06713307915361216
19.172248,7.619900629286252,0.06660144610174362
19.176836,7.6379705444264,0.06606714121095618
19.181432,7.652442721775956,0.06554363243502002
19.18602,7.664216595782569,0.06503016039708459
19.190608,7.679588207579773,0.06451137692508781
19.195184,7.6966365035581275,0.0639979213461399
19.19978,7.716627472307717,0.06347079913420796
19.204372,7.727013173010099,0.06299146424567886
19.20896,7.742018230664866,0.06250280285861814
19.213552,7.763275188004539,0.06196846858862099
19.21814,7.784532145344214,0.061435165649936035
19.222732,7.801414115159794,0.06090517278999745
19.22732,7.820583692727252,0.06035357370302255
19.2319,7.844861366103677,0.059766975387731326
19.236488,7.865419116975366,0.059194007578893516
19.241084,7.884422368380051,0.05861302745318419
19.245676,7.896763024508764,0.05805656594326565
19.250268,7.910247484513417,0.0574890324330257
19.254868,7.926796802003448,0.056902709489230686
19.259464,7.93553972034157,0.05635261253211814
19.264044,7.936598424241925,0.05583096127186647
19.268636,7.93687987840878,0.055303722119600704
19.273216,7.9378163975949905,0.05478546960564717
19.27782,7.934011375114669,0.05428011297361959
19.282412,7.923788126786668,0.05378551078301026
19.287,7.9039596104114604,0.05332272888085989
19.291592,7.875958140741904,0.05290759725298817
19.296188,7.850777159129437,0.052480864478163636
19.300776,7.814192040574468,0.05208795658364564
19.305372,7.767879469258147,0.0517313441551753
19.30996,7.718379855742297,0.05139516702636265
19.31456,7.6704347416934535,0.05106534006659062
19.319152,7.613417239902614,0.05078120191827728
19.323736,7.552313261464599,0.05051762913652844
19.328324,7.486756252236974,0.05029216222516317
19.33292,7.418911635257472,0.05008617963281478
19.33752,7.349801029687884,0.049895166009023086
19.342112,7.272639655538093,0.04974382258077025
19.346704,7.1874275128080996,0.049632600262824636
19.351292,7.101726631221523,0.04954456933839226
19.355888,7.0184796835496,0.049465733098241746
19.360468,6.931024074516357,0.04941475735921344
19.36506,6.838826923816583,0.04937418473750399
19.369656,6.7470404687078736,0.04935679643104745
19.374236,6.653088590561432,0.04935661313196625
19.37884,6.5628566349197275,0.04934844064713546
19.383428,6.476588971211051,0.049318876409238877
19.388016,6.388278069178788,0.04929936824650739
19.392612,6.302421101061176,0.04929270518834877
19.397204,6.217097013248776,0.04930561567590497
19.401808,6.1347155982076105,0.04930073024677328
19.406388,6.045427218462182,0.04933109088205275
19.410988,5.958959326773843,0.04935561781977457
19.415576,5.869426577600122,0.04940185093973136
19.420168,5.784879739521224,0.049418722938125104
19.424752,5.700332901442327,0.04943388435897287
19.429352,5.619872540010603,0.04941695429700389
19.433948,5.543009916369469,0.049401424651644474
19.43854,5.467291096604277,0.04937024701259595
19.443128,5.392061015695666,0.04930736403638226
19.447724,5.312333762548816,0.049244364427408885
19.452312,5.2305632710783785,0.04919956568011005
19.456904,5.149447844627299,0.049170880081240986
19.461492,5.067677353156863,0.04912517370340461
19.46608,4.986928480848219,0.04906858595018207
19.470668,4.90605742382543,0.049018847762856775
19.475264,4.820322640421965,0.04899516677067479
19.479852,4.731645184247265,0.048990623293139725
19.484448,4.639492174996119,0.04897987266974357
19.48904,4.546684100725615,0.04895017955406857
19.493628,4.445170192855555,0.048971063459684785
19.498224,4.346721142470874,0.04896373567639101
19.502812,4.247372657638545,0.04895724016955645
19.507396,4.1490457919680095,0.04894283510353124
19.511992,4.042135277412061,0.0489778094110671
19.516568,3.9340809589801733,0.04903837803567573
19.52118,3.821040729453463,0.04914514687476493
19.525756,3.705546566012101,0.049233361171300595
19.530348,3.5907074675900956,0.04935112956170451
19.534952,3.472681326968564,0.049531733869606256
19.539548,3.359396728013563,0.04967940184456894
19.544152,3.2481553673821484,0.04981568325893103
19.548728,3.13703619146488,0.049948975433865034
19.553324,3.0210532891669355,0.05015291067045562
19.557912,2.9021277140977557,0.050410325391254
19.562508,2.780381650971487,0.050715669068276764
19.567092,2.6568367189499225,0.05107580145391029
19.571692,2.5331696022142123,0.051525872601259216
19.576284,2.413222407983239,0.05196846621698997
19.580876,2.2949518979334163,0.05245134351990717
19.585464,2.179379691226537,0.053051129029073475
19.590056,2.061764246196071,0.05379950060169055
19.594656,1.942349932270308,0.0513331251708402
19.599248,1.821913999182752,0.04886479974279081
19.603836,1.7062196077617267,0.04636342708091478
19.608432,1.5869274785501102,0.04384391151072873
19.613016,1.4668580996049914,0.04130316430447729
19.6176,1.3521853273457596,0.03877187318476249
19.622188,1.2394336086959694,0.03621881217159204
19.626784,1.1315456164268551,0.03362008726840605
19.631376,1.0223916355676566,0.031053695763789017
19.635956,0.9169575772131948,0.028479012238694874
19.640548,0.8125456741379226,0.025896763922711064
19.645136,0.7173724849674201,0.02325275034413532
19.649712,0.6295169560922462,0.020564510745885008
19.654308,0.5480796530647529,0.017827779558358396
19.658896,0.47485944478023595,0.015024568111888507
19.6635,0.40817964705754534,0.012118937908643247
19.668092,0.34497540241130037,0.009218565164193872
19.672684,0.2853688955556469,0.006287933512149792
19.677276,0.23230279926181963,0.0032129037796309245
19.681864,0.18565492881567303,0.0
19.68646,0.14530309950306142,0.0
19.691048,0.11047006159048255,0.0
19.695648,0.08013419591614296,0.0
19.700228,0.058015424984779705,0.0
19.70482,0.04309212963459926,0.0
19.709416,0.028946084017921002,0.0
19.714016,0.01749834174418629,0.0
19.718608,0.008626718099249463,0.0
19.7232,0.0034750169590497147,0.0
19.727788,0.0,0.0
19.732384,0.0,0.0
19.736972,0.0,0.0
19.741568,0.0,0.0
19.746156,0.0,0.0
19.750744,0.0,0.0
19.755332,0.0,0.0
19.759928,0.0,0.0
19.764512,0.0,0.0
19.769104,0.0,0.0
19.7737,0.0,0.0
19.778288,0.0,0.0
19.78288,0.0,0.0
19.787468,0.0,0.0
19.792056,0.0,0.0
19.796652,0.0,0.0
19.80124,0.0,0.0
19.805828,0.0,0.0
19.810424,0.0,0.0
19.815012,0.0,0.0
19.819616,0.0,0.0
19.824212,0.0,0.0
19.828816,0.0,0.0
19.833396,0.0,0.0
19.837996,0.0,0.0
19.842584,0.0,0.0
