Time,Force,Position
19.614664,0.28793692443652746,0.0
19.619248,0.25711178378820915,0.0
19.623836,0.22628664313989086,0.0
19.628424,0.2036785972345489,0.0
19.633008,0.1809483666150613,0.0
19.637588,0.15785158185313666,0.0
19.642172,0.1327988483351597,0.0
19.646756,0.1085233645506849,0.0
19.651344,0.08784561855680154,0.0
19.655956,0.06896674145821388,0.0
19.660532,0.049843494931334886,0.0
19.665124,0.03468454033748429,0.0
19.66972,0.03043173752753637,0.0
19.674316,0.030920476384119055,0.0
19.678912,0.03447407272608231,0.0
19.6835,0.039870679411969416,0.0
19.688104,0.04801072421914979,0.0
19.692688,0.06430006013552779,0.0
19.697292,0.08886087187524905,0.0
19.701868,0.12153607957755697,0.0
19.706468,0.16661338119901037,0.0086791359616629
19.711052,0.21701948587257217,0.01753073614533627
19.715648,0.2799498691794251,0.026417273537404466
19.72024,0.3498857397195365,0.03521397359185849
19.724832,0.438641930026474,0.043632427091654075
19.729424,0.541476898433707,0.052038450667429424
19.734016,0.6571595514977617,0.060410207164334706
19.73862,0.7824238104238728,0.06885976688752597
19.743216,0.920989597716777,0.0771967455468681
19.747808,1.0688926214434462,0.08563998382851128
19.7524,1.2281761199274674,0.09407184837012926
19.756988,1.4015383965117842,0.1024001115139133
19.76158,1.5861240679926965,0.11063841152291536
19.766168,1.7774708572785756,0.11893285465940237
19.77076,1.977255448550572,0.1272523607117738
19.775344,2.191152719739753,0.1354562087902719
19.779924,2.4093808370043996,0.1436257828328185
19.78452,2.6253891501509465,0.15167509122882336
19.789104,2.838033855303455,0.1596427870161528
19.793684,3.045227572689709,0.1675182989751404
19.798292,3.239163903157798,0.1667719867714296
19.80288,3.42716050700305,0.1658373559039854
19.80748,3.609828307796194,0.16477872493181223
19.812068,3.7832030136042007,0.16380391887823073
19.816656,3.9390233882354684,0.16323566176640425
19.821248,4.0868946997372015,0.16255792447051978
19.825836,4.227472013128755,0.16178880541410165
19.830432,4.35912278567761,0.16094490822525725
19.83502,4.479515268183257,0.16015634646578436
19.83962,4.592491567864583,0.15921558372764466
19.844208,4.6921663391791135,0.1583321360858959
19.848808,4.777884517107494,0.15754178301303634
19.853388,4.850301166669083,0.15683089615157578
19.857972,4.9122367759209675,0.15608172357357067
19.862568,4.963691344863148,0.1553074880796811
19.86716,5.005319938514979,0.1545438134437635
19.871752,5.0457944886591335,0.15366854365363686
19.876344,5.077641248469247,0.15296354579627325
19.880944,5.103025640983051,0.15235349512197074
19.885528,5.121458927343964,0.15187670682463478
19.890116,5.139970256970395,0.1513286766374691
19.8947,5.156760760967049,0.15075492493489767
19.899276,5.168887766562689,0.15023543092717728
19.903864,5.1819922498714925,0.14963688250707538
19.908448,5.1962405370562355,0.1489958549304094
19.913036,5.205869467288593,0.14846250280888462
19.917628,5.206259683616182,0.148128397733705
19.922216,5.207505192942787,0.1477222432197387
19.926804,5.20527514919295,0.14737565954836926
19.931396,5.202634409852045,0.14700640385127656
19.935984,5.202525647691311,0.14653960570903127
19.940584,5.201639635797075,0.14607898241559047
19.945176,5.202019612492922,0.1455715873269176
19.949756,5.2067304352642365,0.14493830224680496
19.954356,5.211929996892133,0.14426487562490523
19.958948,5.215086320196443,0.14365144515381345
19.96354,5.212357297958281,0.14317901682714276
19.968116,5.2126931332055,0.14262671221213374
19.972708,5.214050587614513,0.1420461537580147
19.977292,5.221171202851849,0.14134094553620072
19.981876,5.22816963337504,0.14064451606368814
19.986472,5.233902075308145,0.13999433292232383
19.991068,5.243642950622908,0.13931189947603945
19.995656,5.247376295681056,0.1387717412632995
20.000248,5.253807944082147,0.1381877135962423
20.004844,5.259873038340801,0.13763215207034285
20.00944,5.273377977608929,0.13693164516221384
20.014028,5.285250374144537,0.13630979966475634
20.018612,5.2985550854330015,0.13568562895917974
20.0232,5.309450004255443,0.13514403640784473
20.027792,5.321410683688307,0.13463581561653126
20.032384,5.336191851178261,0.13407581172044228
20.03696,5.347541607040396,0.13361958413214012
20.041556,5.354193962684628,0.1333142247720996
20.046144,5.36113482920578,0.1330446533763258
20.050724,5.367586956870351,0.13281585432060597
20.05532,5.3753492145736335,0.1325972016730689
20.059908,5.3863426559250716,0.13235351173929819
20.064516,5.398646227315222,0.132120643072219
20.069104,5.406618952629908,0.13200379530795311
20.073708,5.420110469344626,0.13179709753474597
20.078296,5.440020211907024,0.1314904398436643
20.08288,5.459030520021774,0.13120459059633027
20.087476,5.483437434822411,0.13083710591783584
20.092068,5.506578361032964,0.13051556714786144
20.09666,5.534583013624192,0.13010606601698158
20.10124,5.562221112072985,0.12973320100098826
20.105836,5.591902448845365,0.12931938418861705
20.110416,5.624404273674832,0.12886355071229702
20.115016,5.660748205723184,0.12834418808035866
20.1196,5.6983581263616205,0.12779443619302414
20.124192,5.733802623962323,0.12730079939060548
20.128784,5.7753768365337885,0.12668646908173842
20.133376,5.8223035143425115,0.12595703234152225
20.137964,5.871517799903113,0.12517895871365764
20.14256,5.920976454892005,0.12438777531143144
20.147148,5.972067652613422,0.12354125400179754
20.151732,6.018906047524889,0.12274347701002476
20.15632,6.065089377416999,0.12194203692792703
20.160916,6.1126608806133405,0.12109264261814075
20.165504,6.154591407695503,0.12033978404377241
20.1701,6.189204274482337,0.11969311364801515
20.174692,6.218542719297429,0.1191053153585937
20.179268,6.246448849359663,0.11851834429083152
20.18386,6.274599348850188,0.11791843484259729
20.18846,6.29698668751239,0.11741098052410706
20.19304,6.314999038650496,0.11694925447850832
20.197648,6.3314568903216,0.11649511857782362
20.202236,6.347137492259201,0.11604858759223234
20.206828,6.359098171692065,0.11565304968696442
20.211416,6.36770548276263,0.11528396940256684
20.216004,6.376434978547339,0.11490703568138384
20.220596,6.379401313503724,0.11461491434903792
20.225188,6.3767266723459315,0.11439786429875681
20.22978,6.370454293397548,0.11421931441515233
20.23436,6.360706361372716,0.1140703633521004
20.23896,6.346871952700712,0.1139904338240694
20.243548,6.33495859763815,0.11388307054512431
20.248148,6.323411796718024,0.11375143975311316
20.252728,6.31378604940734,0.11359303831792719
20.257324,6.3044046715249475,0.11341841644730954
20.261904,6.296167097518493,0.11321815972327604
20.266496,6.292671065178569,0.11295578061679416
20.271084,6.291096086448088,0.11266821935455636
20.27568,6.289765477145897,0.11236608448977599
20.280268,6.292765713919173,0.11198232045757407
20.28486,6.298053558444326,0.11154935539248816
20.289448,6.304240837417125,0.11110924258891389
20.294044,6.308873616922923,0.11067326504526889
20.298624,6.315549634752307,0.11020539246783688
20.30322,6.324679586496342,0.10972924468799189
20.307812,6.337118765154051,0.1091939128803853
20.312392,6.352256247154702,0.10863324269578596
20.316984,6.368293163603,0.10806244143091231
20.321572,6.38318627617536,0.10751349562009777
20.326164,6.401799311252458,0.10692297298353945
20.330768,6.426542061300316,0.10624126473363019
20.335356,6.451773550204756,0.10553592987656552
20.33996,6.479825527166286,0.10480696136024295
20.344536,6.50722243910846,0.10407851411105594
20.349124,6.538339273555372,0.10331774827675551
20.353724,6.570477727164076,0.10254399046358956
20.358316,6.597752454392105,0.10183145247892601
20.362912,6.6229839432965445,0.10115374921991421
20.367488,6.648215432200987,0.10048169965722814
20.372088,6.67001550947761,0.099878678876924
20.376676,6.692592836487736,0.0992800440395864
20.38128,6.715414532926152,0.09867188902103019
20.385868,6.738236229364569,0.09806659277033107
20.390468,6.763223348840719,0.09743382334140846
20.395052,6.78563434968807,0.09681680509307651
20.399644,6.804980493050042,0.09624655852895653
20.404232,6.8258369944303885,0.09563986301214016
20.408828,6.848492364706031,0.09502184440028313
20.413424,6.878054699685938,0.09433107910316456
20.41802,6.906961969646489,0.09363711563873528
20.422608,6.932027132388156,0.09298936307534193
20.427192,6.956359186844949,0.09238749009183812
20.43178,6.977870753244654,0.09181542729143109
20.436372,6.996195277444832,0.09128821593953716
20.440956,7.008756640816685,0.0908159771795375
20.445544,7.0240163075314825,0.0903311264138189
20.450136,7.044384070055246,0.08978669057681472
20.454716,7.066017821169096,0.08921978594903071
20.459308,7.0847088995117105,0.08868299424338193
20.463892,7.105687585606203,0.08811017819996458
20.46848,7.124500848662963,0.08756916807522454
20.47308,7.141270873396137,0.08705379706783749
20.477668,7.157918713415165,0.08654674673369292
20.482268,7.1724011303964605,0.08607435007157792
20.48686,7.1880273512536945,0.08558504510814934
20.49146,7.20275413766328,0.08510119191663662
20.496052,7.2183803585205135,0.08461879090762163
20.500644,7.235516937396125,0.08410387387243402
20.505236,7.24689035544341,0.08363958017283805
20.509824,7.257119969614758,0.08319310018901264
20.514424,7.268249018233751,0.08274427888367979
20.519004,7.277823567385743,0.08229197249858411
20.523604,7.288952616004738,0.08184608955067393
20.528196,7.306089194880349,0.08134682289771947
20.532792,7.327312250403133,0.08080619933470815
20.537384,7.347758056192416,0.08026960023065831
20.541976,7.366815688677468,0.07976583774019509
20.546564,7.384851702000726,0.07927484062217117
20.55116,7.405830388095219,0.07876108507513954
20.555756,7.428075062779797,0.07823041444345205
20.560348,7.452607345216253,0.0776698840970553
20.564936,7.48188116931924,0.07708443602425147
20.569524,7.51049992840287,0.07649217394815082
20.574112,7.535643134410055,0.07590811658068322
20.578704,7.561441405436597,0.0753359150546252
20.583296,7.590060164520228,0.0747507666393584
20.587888,7.612793578061388,0.07421134408480304
20.59248,7.631440514955374,0.07371086774244302
20.59706,7.650209636563505,0.07320469072031056
20.601652,7.672698680676374,0.07268346858259954
20.606236,7.691345617570362,0.07218618542256339
20.610824,7.712157977502081,0.0716673695311694
20.615432,7.730638588233295,0.07114186824508341
20.62002,7.744255472583831,0.07065181957886808
20.624608,7.75864960666787,0.07016839356269154
20.629204,7.767158395209439,0.06972393146240718
20.6338,7.770925642084477,0.06930291808884641
20.638396,7.772527465921782,0.06890407108610332
20.642988,7.77322985531144,0.06850884480642828
20.647584,7.770745202501571,0.06814527202369357
20.652172,7.768138364977556,0.0677886326694334
20.656768,7.757969497729922,0.06746811217138686
20.661348,7.749355129949293,0.06715429487958265
20.665948,7.747036803302198,0.06682520171007435
20.67054,7.746761714978691,0.06648227319719399
20.67514,7.744687757759887,0.06614470159208125
20.679732,7.747233157493469,0.06579105144804583
20.684328,7.752476860569994,0.06543137307001251
20.688912,7.75849781338002,0.06507556903108458
20.693504,7.764763135618339,0.06471213799069375
20.6981,7.776791618684983,0.0643216970595491
20.702692,7.789475166770981,0.06394337368380511
20.70728,7.804979202914069,0.06355653335396416
20.711864,7.8207276084854485,0.06315909898356839
20.716444,7.836598198770974,0.06275964489450492
20.721044,7.858476319313115,0.06232385285032481
20.725632,7.889549012311399,0.06182807989882723
20.730224,7.924952551385147,0.061296159391376566
20.734816,7.96047827517304,0.06076170385623827
20.739396,7.993427880332136,0.06022490218408036
20.743988,8.02470080131008,0.05968807493566902
20.748584,8.060837448668705,0.059128602090713585
20.753172,8.097218465455617,0.058562328239163935
20.757776,8.123461333890113,0.05802001556537441
20.762364,8.143163791762783,0.057497906310178946
20.76696,8.160945196026011,0.05698363916123061
20.771548,8.17447379747929,0.0564647896909682
20.77614,8.185548465017918,0.055938911905643665
20.780732,8.194946448375397,0.05540942217695233
20.785324,8.197437467028612,0.054913485448689625
20.789928,8.191589206224704,0.05443494780204147
20.794508,8.181898838201914,0.053970538660969875
20.799104,8.166200939922508,0.053536489235434075
20.803684,8.148459803319517,0.05311238022086924
20.808284,8.12405607144055,0.05270728232795009
20.812876,8.097609101238,0.05231394063789193
20.817476,8.05926925523636,0.05197335127435521
20.82206,8.017864551749344,0.051648270557605735
20.826656,7.973272806062802,0.05134346799333199
20.831248,7.928192321519675,0.05105661427251175
20.835844,7.881723663672318,0.05078924402659655
20.84044,7.8284702258348435,0.05054290644543923
20.845032,7.7672882041313125,0.0503290644135273
20.84962,7.708560116342433,0.050122042400727373
20.854216,7.6499542132677,0.04990489953377825
20.8588,7.589427256583524,0.04969045161303886
20.863388,7.527634311309264,0.04948854914069207
20.867976,7.459711651064243,0.04931802587520647
20.872572,7.386680895010254,0.04917404967145168
20.877164,7.3119734547751145,0.0490212357295315
20.881752,7.238698329292835,0.04888238390263847
20.886344,7.158760608534584,0.048760176905270354
20.890936,7.07690183416689,0.04864225618106548
20.895528,6.990057148704375,0.0485468042914111
20.90012,6.902190844080068,0.04845418278424783
20.904708,6.805496521142055,0.04839810229375223
20.909304,6.711744870975275,0.04832625761822763
20.913892,6.609165202494792,0.048291817930283684
20.918496,6.502987796223717,0.04825519146447142
20.923088,6.396810389952643,0.04821824395272133
20.927688,6.28409257311974,0.048195202289429466
20.932284,6.170353137125046,0.04817776280271707
20.936876,6.0559586361109945,0.04814574610844149
20.94148,5.941808504525236,0.04809598339213218
20.94606,5.8232053421498655,0.04809650235188762
20.950656,5.701537322289115,0.048118702780592736
20.955244,5.5769266296571285,0.04815383316009465
20.959844,5.457057478691674,0.048173570196270596
20.964428,5.3393537507639515,0.04816768456794799
20.969028,5.219484599798496,0.048184793654645876
20.97362,5.09679496077595,0.048212857362701346
20.978216,4.977047994524639,0.04822419414071593
20.982792,4.85730102827333,0.04823586543441065
20.987388,4.743317222850343,0.0482182399401192
20.991984,4.627167994389625,0.0482305033923414
20.99658,4.513062004252494,0.048228638850345465
21.001164,4.397934394953569,0.0482292845964431
21.00576,4.286526708159381,0.04822753647293496
21.010348,4.174752467222756,0.04826056096686686
21.014932,4.0583588693337465,0.048309894043968474
21.01952,3.946706813111267,0.048337729780560584
21.024096,3.8377530602317314,0.048366279870235555
21.028688,3.7313754259809935,0.04840444483675131
21.033268,3.6229545534066694,0.04846189866395337
21.03786,3.5184979727653727,0.04849396471121103
21.042448,3.416984064895311,0.04850080875137364
21.047036,3.318168460368194,0.04850788953088982
21.051636,3.2155107486221928,0.04854465452231995
21.056216,3.115306970790844,0.04860160808895569
21.060812,3.0178014963024395,0.048670225158168254
21.065412,2.9232386945852693,0.04871056504337618
21.07,2.8323958153728364,0.04872133815324092
21.074596,2.744495608931638,0.0486906149970828
21.079184,2.6525089258432657,0.0487253164398265
21.083788,2.5662854035832177,0.04871502839760877
21.088368,2.4828823693802584,0.04868100566431379
21.092968,2.4000122154825103,0.048706958479687326
21.097548,2.318163680746556,0.04872154834403914
21.102144,2.2401572532294844,0.04870979145069764
21.106728,2.167669617112445,0.04868267626967505
21.11132,2.0953041657095524,0.04861230009586702
21.11592,2.018197172640128,0.04860276189625957
21.120512,1.9409679948565586,0.048629720301797276
21.1251,1.8646382515206366,0.04866082821818926
21.129696,1.784466400965832,0.0487911603395785
21.13428,1.7023734968015862,0.04896012829651677
21.138864,1.61721573515196,0.04652416965977577
21.143452,1.5367995151688643,0.044067820987459996
21.148052,1.4545844262904728,0.04161055582084326
21.15264,1.3714699029644335,0.039131390147539684
21.157224,1.2863121413148073,0.03666960979708653
21.161816,1.194125230246772,0.03424759382130534
21.166404,1.099650711426858,0.03186672459635637
21.170996,1.009384853968264,0.029442745912170408
21.175584,0.9182195620620224,0.027040812284719003
21.180172,0.8286519177416913,0.024662133906541532
21.184784,0.7429263806402432,0.022235539698668046
21.189372,0.6616980157770344,0.01980742051799496
21.19398,0.5831679542567689,0.017378302516413438
21.198568,0.507336196079447,0.014948114612311747
21.203172,0.4348578062644253,0.012574239539380149
21.207764,0.3707186959065256,0.010138375152638388
21.212352,0.3111989425010108,0.007664489793703856
21.216948,0.2578879406614963,0.005184487900584643
21.22154,0.2148372718885451,0.0026038581302923348
21.226144,0.17922644812506808,0.0
21.230724,0.15129983879935646,0.0
21.235324,0.1241504792071471,0.0
21.239912,0.0977783693484399,0.0
21.244512,0.07884610449920687,0.0
21.2491,0.06927473826888937,0.0
21.2537,0.07033025924757226,0.0
21.25828,0.07510570273099224,0.0
21.262876,0.08004747237718601,0.0
21.267472,0.0864215567762385,0.0
21.272068,0.09275249305638439,0.0
21.276664,0.09818399488888242,0.0
21.281264,0.10296043170202396,0.0
21.285856,0.10296043170202397,0.0
21.290456,0.10296043170202397,0.0
21.295044,0.10296043170202397,0.0
21.299628,0.10296043170202397,0.0
21.30422,0.10296043170202397,0.0
21.308816,0.10124885237426302,0.0
21.313408,0.09671678498941282,0.0
21.317984,0.09014147928097559,0.0
21.32258,0.08254455441074483,0.0
21.32716,0.07584706398816192,0.0
21.33174,0.07197006162266824,0.0
21.336336,0.06617200564773318,0.0
21.340924,0.056531842453915376,0.0
21.345528,0.044848440936510525,0.0
21.350116,0.034186658580899205,0.0
