Time,Force,Position
18.192364,1.523727269221763,0.04070188653847299
18.196948,1.4523834369806634,0.04007596671254687
18.201544,1.38001798557777,0.037887408971641036
18.20614,1.309695772498464,0.035689813698071136
18.210716,1.2411724283144534,0.03349763547537394
18.215292,1.1725268994162972,0.031313150011771144
18.219876,1.1076012930228782,0.029097819089127896
18.224464,1.049216097191285,0.02687158256427568
18.229056,0.9913637816649027,0.024702023300546286
18.233648,0.9380086383767601,0.022545895360984246
18.238236,0.8790125189744388,0.02043327375603734
18.242836,0.8255351909721504,0.018313755078626162
18.247416,0.7747561663128056,0.016216141238474015
18.252008,0.7283521291775545,0.014139587112270946
18.256588,0.6873446987281905,0.012092544400208918
18.261180000000003,0.6421286069175065,0.010142335334001338
18.265768,0.5965459609643856,0.008293012628842343
18.27036,0.5571371714306539,0.006549001106083169
18.274948,0.5275780193724204,0.004822714501582286
18.279544,0.5064803314854548,0.0031445727840213
18.284144,0.4794972980560192,0.0015527371822988913
18.288736,0.45995410963605776,0.0
18.293336,0.4470735164920684,0.0
18.29792,0.4376684764245247,0.0
18.302504,0.4251985788716005,0.0
18.307088,0.41657078853755897,0.0
18.311668,0.4129289092983395,0.0
18.316256000000003,0.40933117150774806,0.0
18.32084,0.4100745194243609,0.0
18.325428,0.4177792131256039,0.0
18.330012,0.4383747396025752,0.005083712920626772
18.3346,0.4710838491217725,0.010576723776873121
18.339188,0.5201593444931437,0.01631263167647959
18.343792,0.5795495540114451,0.022339381370406156
18.34838,0.6496651732677422,0.028637239747686883
18.352984,0.7341039400526261,0.035162358959518816
18.357572,0.8250594552141857,0.042124965839029874
18.362156,0.9207328498571252,0.04941138493541108
18.366752,1.0212904501442188,0.05689047076507599
18.37134,1.134127959636312,0.06429725819581517
18.375944,1.267173962199462,0.07160997419901417
18.380528,1.407103267281725,0.07902871489880792
18.385124,1.5585352318354855,0.08644699893480447
18.389712000000003,1.7250675936513349,0.09380780997127033
18.3943,1.9119306332523864,0.10105900942540195
18.398888,2.110951397344292,0.10834403145374921
18.403488000000003,2.31996446288932,0.11567095474690006
18.408068,2.541169154742091,0.1229539796506841
18.412664,2.7687920724425426,0.13019857391885176
18.417256,2.995671642226381,0.13739129806407996
18.421848,3.214690431777942,0.13948149663803558
18.426432,3.423927387487783,0.14114391855021405
18.431024,3.6230939984789856,0.1424991915050007
18.4356,3.8145220139520557,0.1435363580284428
18.440196,3.9971456732965716,0.14426158029097005
18.444784,4.17133153065497,0.14469452057682466
18.449372,4.344885985179163,0.14456403781503752
18.453952,4.5138447449361205,0.14404874303172766
18.458532,4.674732256849399,0.14329467187158754
18.463124,4.820519371500588,0.14261737294885307
18.467708,4.949573546157167,0.14208974690061663
18.472296,5.069945549399336,0.14143283412403312
18.476892,5.180858131493595,0.14070759022321777
18.48148,5.2760152513064105,0.1400350017775612
18.48608,5.353906550819402,0.13948560364259388
18.490664,5.420783929717479,0.13886129284794982
18.495252,5.474848519105346,0.1381901839820234
18.499856,5.517698959898634,0.13753129825325966
18.504436,5.554120935212505,0.13683922250662456
18.509028,5.58199316345785,0.13621092852079214
18.513608,5.608677446378627,0.1355702708380921
18.518208,5.632619284507832,0.13492481158169967
18.522792000000003,5.651286700665297,0.1343604457212003
18.527392,5.667622367622255,0.1338142350255745
18.531984,5.681259731236267,0.13331275761552397
18.536576,5.690399922612045,0.13288416104131218
18.541168,5.6912008345306955,0.13260272410099908
18.545764,5.688404008658758,0.1323770442113062
18.55036,5.680088391386787,0.132242071802368
18.554952,5.672916577990755,0.13207436852253243
18.55954,5.669053991508394,0.13181884633095003
18.564132,5.66531358974018,0.13155463300228373
18.568712,5.65695383101958,0.1313670881404612
18.573308,5.648594072298979,0.13117895362104173
18.577896000000003,5.639823617987314,0.13096634878265656
18.582492,5.631952598123295,0.13074029154752098
18.587084,5.626124816582865,0.13046902604048097
18.591664,5.621074284775937,0.13019471761267495
18.596256,5.613858329931276,0.12997370141211784
18.600836,5.6108951778965634,0.12970668119120013
18.605416,5.60907582973779,0.12941022824827186
18.610012,5.606523373294143,0.12916723814138864
18.614600000000003,5.6066692201934405,0.12888620846081073
18.619184,5.606937251806881,0.12859632705678548
18.623776,5.610803021210916,0.12825781656199356
18.628364,5.620065397300834,0.12784733215420194
18.632956,5.63562381452429,0.12735317429523463
18.637536,5.653880535090687,0.12682512664073442
18.642132,5.679577100666563,0.1261841704293601
18.646712,5.706583796281148,0.12555875831833885
18.651308,5.733468307181589,0.12494682838056384
18.655892,5.759209014206089,0.12436685161162502
18.660484,5.786382035983451,0.12378728006204834
18.665072,5.818052229999049,0.12315558908031123
18.669664,5.85385304211045,0.1224966131675416
18.674264,5.887366246469975,0.12190025704741043
18.678856,5.9241106344776515,0.12129704145554013
18.68344,5.960855022485327,0.12070149223007116
18.688036,5.999153909960009,0.12010537206434216
18.692624,6.037574982148836,0.11950911019250594
18.697212,6.072564642709844,0.11899832141365364
18.7018,6.109841911022732,0.11843248607514627
18.706392,6.151860721002151,0.1178104885912777
18.710988,6.197110714629726,0.11717888494771192
18.715564,6.242482892971446,0.11655126057090773
18.720156000000003,6.282991344932488,0.11600374036181256
18.724744,6.320557124122296,0.11551011243553974
18.729328,6.357223468864457,0.11503229171859392
18.733928,6.392868194444824,0.11458300203742657
18.738516,6.427080605272331,0.11413179009571292
18.74312,6.465012938604575,0.113644372936945
18.747708000000003,6.502945271936819,0.11315695577817705
18.752292,6.546107885792177,0.1125866114008279
18.756892,6.586572196304591,0.1120520965538125
18.761484000000003,6.625359822635856,0.11153420296726582
18.766088,6.662715134214263,0.1110092160974937
18.770668,6.691853351049691,0.11057160426471045
18.775264,6.71763819952282,0.11015504111215717
18.779852,6.743911786852531,0.10971370545367218
18.784452,6.771451362772329,0.10924915852787442
18.789036000000003,6.801400731158152,0.1087315608312128
18.793636,6.831472284258119,0.10821084346659633
18.79822,6.85332674261511,0.10777504885649458
18.802812000000003,6.869618268123438,0.1073534381324875
18.8074,6.881412621393528,0.10697295223835238
18.811996,6.896638386291437,0.10652715240371965
18.816584,6.909532401988837,0.10608305675205591
18.82118,6.92152698323859,0.10564829176930375
18.825764,6.928124957802456,0.10526043688169216
18.83036,6.9347229323663235,0.10487313759720165
18.834944,6.938211907996181,0.10449175394550349
18.839544,6.943089056930269,0.10407568446913744
18.844132,6.9420808603218855,0.10373408219868208
18.848724,6.941439217855941,0.1033727737419432
18.853316,6.941041944818288,0.10299884811249917
18.857904,6.949594874808486,0.10251854718429886
18.862496,6.965954203950594,0.10195049292871271
18.867084,6.982191348378557,0.10138707511756131
18.871676,6.993564766425844,0.10087860636620147
18.876272,6.999952273378309,0.10043295413067127
18.880856,7.00249767311189,0.1000270233714519
18.88546,7.005043072845472,0.09962274545692001
18.890052,7.009387341474349,0.09920346582230385
18.894636,7.0160633593037325,0.0987840943100075
18.899232,7.024904800170849,0.09833074306080619
18.903832,7.030925752980876,0.09790574980177191
18.908432,7.042587681905082,0.09743132261743011
18.913012,7.0534723610957855,0.09695667305481737
18.917604,7.069875831686522,0.09643851255110461
18.922184,7.085624237257902,0.09591368834582495
18.926784,7.098185600629757,0.09543564010285806
18.931368,7.1135674520587,0.09493823861076583
18.935968000000003,7.131114726525375,0.09440995086746981
18.94056,7.145352774078378,0.09393342460737028
18.945156,7.157547583307795,0.0934832963128342
18.949744000000003,7.159526200919276,0.0931608092045589
18.954336,7.155986027130725,0.09287998942617454
18.958936,7.15616577584691,0.09257046864736745
18.963528,7.159410382048475,0.09222362923457611
18.968116,7.164698226573628,0.09185193390013005
18.972708,7.175993601355396,0.09141516712471719
18.977296000000003,7.184468488080076,0.09100161746879093
18.981884,7.196663297309492,0.09056186828196021
18.986468,7.209757540986557,0.09011815966582594
18.991068,7.223384664968831,0.08969073172294044
18.99566,7.240365157313407,0.0892579400482023
19.00024,7.251460304115513,0.08888425394261558
19.004832,7.2660310039940645,0.08849873069985029
19.00942,7.278802834977319,0.08812651030257203
19.014012,7.296971272646461,0.08772888342737756
19.018608,7.317715828944402,0.08732320374730367
19.023188,7.334618278023459,0.08695332157730001
19.027792,7.351276357674226,0.0865982590731331
19.03238,7.369078241200931,0.08622481170815909
19.036956,7.38957842807058,0.08583897392503798
19.041564,7.411100234102024,0.08543894081243332
19.046164,7.437774277391062,0.08502657818154814
19.050756,7.466247189575396,0.08461092054658723
19.055336,7.498195654836176,0.08418861612789649
19.059936,7.531820804278106,0.083766796373315
19.064524,7.564057780415807,0.0833797091628092
19.06912,7.601036298220038,0.08296217629115511
19.073708,7.635316512681324,0.08256116132888379
19.078308,7.673561019075638,0.08213245276737033
19.082892,7.711927710184098,0.08170098917515768
19.087484,7.748739901825555,0.08127033112140931
19.092072,7.787839701218889,0.08080906616666458
19.096668,7.824607751411717,0.08034615046051567
19.101256,7.857900248528101,0.07989323688655327
19.105852,7.886695573406243,0.07946426440166518
19.11044,7.91508020269332,0.07901790766093435
19.115024,7.941665963085103,0.07857899053726901
19.119612,7.96951771206697,0.07812299066784643
19.124208000000003,8.001333752981866,0.0776393718656199
19.1288,8.03261691359155,0.07714608185177277
19.133376,8.068108735562555,0.07661256549766186
19.137972,8.09742670111417,0.07609851373652113
19.142548,8.119793560512894,0.07560084463856993
19.14714,8.138807051549316,0.07510870307736302
19.151736,8.156388227832881,0.07460848150440483
19.156324,8.17049385104,0.07411559712917537
19.16092,8.182678420637677,0.07363767748413834
19.165508000000003,8.192941936625914,0.07317072035597776
19.170096,8.195765607604676,0.07273956610408126
19.174692,8.197689844135791,0.07231216365092596
19.179288,8.195771973448021,0.0719062356528636
19.183884,8.193609733331963,0.0715117005127963
19.188464,8.190059319911672,0.07114165423726429
19.193056,8.190106644281974,0.0707606400511247
19.19764,8.18835509975698,0.07038437647310822
19.20224,8.185459751356046,0.0700215668612549
19.206828,8.184363271850408,0.06965319720471169
19.211428,8.176726381782945,0.06931218205535564
19.21602,8.165247384496599,0.06899237916454394
19.220612000000003,8.150703529724868,0.06869550561920995
19.2252,8.131418133286612,0.06842034219009363
19.229796,8.119450397143682,0.06812166670340856
19.234388000000003,8.111613279096554,0.06782710555738611
19.23898,8.102510172459342,0.06755069271534467
19.243568,8.091119458070251,0.0672996874760051
19.24816,8.083570850900044,0.06702910414251309
19.252740000000003,8.075367178710477,0.0667499416525635
19.25734,8.071127798453944,0.06644646914072506
19.261924,8.066888418197408,0.06614114507070881
19.266504,8.062771222655016,0.06583052527819079
19.271096,8.063517753493302,0.06549390453174327
19.275672,8.064142099617442,0.06516296788534814
19.280264000000003,8.067831303226962,0.06481094521716417
19.284848,8.072297756569984,0.06446421424287974
19.289436,8.078196524665866,0.06412966138048738
19.294036,8.084095292761747,0.0637948788560359
19.298628,8.091015680019423,0.06345404793984376
19.303216,8.10435429312478,0.0630956727150772
19.307812,8.118714525391928,0.06273087322112997
19.3124,8.13691686487796,0.062349867035684785
19.316992,8.162681234087612,0.06194300282902327
19.32158,8.181005758287792,0.0615611211289986
19.32618,8.200474086363908,0.06116962918407245
19.330768,8.220186783868316,0.06076775687022738
19.335368000000003,8.244885392467545,0.0603394625149077
19.339952,8.265619709133746,0.05993386813825052
19.344552,8.28521022192401,0.059541122565517
19.349144000000003,8.304678550000126,0.05915703136836471
19.35374,8.32954348476213,0.05876678213375135
19.358332,8.355063484543491,0.05838746234359441
19.362924,8.379561865163057,0.058017650121541836
19.367512,8.406347853534502,0.05762767490023196
19.372112,8.432478776886592,0.057232032951273236
19.3767,8.458854069666973,0.0568297639936539
19.381296,8.48673972046573,0.05640328780778587
19.385884,8.515769175140424,0.05596718410102503
19.390476,8.544021380081618,0.055529468426470864
19.395064,8.570474716127514,0.05509609605636729
19.399656,8.598971290497,0.05465444286225013
19.404248000000003,8.623992311790039,0.05421254270763868
19.40884,8.640429684197665,0.053798113706530745
19.413432,8.65915466435717,0.05336215876240215
19.418012,8.675303525887875,0.052924843159017416
19.422608,8.691330202704437,0.05249261538919172
19.427196,8.704658576178053,0.05206459451050663
19.431776,8.72105180713705,0.051621164956252824
19.436372,8.737567222810192,0.051172983722479394
19.440964,8.748563847083306,0.050731841205519136
19.445552,8.752364995775233,0.050292867930244664
19.450144,8.74807123443833,0.049853407780100396
19.454732,8.738014312273101,0.04942854992791253
19.459328,8.722072044565405,0.04902374483358283
19.463908,8.69934499686759,0.048637384774141604
19.468508,8.668156484998509,0.0482642932041396
19.473088,8.630960442872809,0.04791402846153981
19.477692,8.587756870490498,0.04758594531346861
19.482280000000003,8.538667952565712,0.04727462009888073
19.48688,8.484593123546107,0.0469807283523672
19.491476,8.4224675259463,0.04671927780272387
19.496068,8.356133266985172,0.04647906586131357
19.500648,8.288655204148109,0.046245887154756485
19.505244,8.213004188016692,0.046049350064740355
19.509836,8.130201837752724,0.045885415690640995
19.514428,8.041514141946283,0.0457393007582424
19.519016,7.945919481435581,0.045614660824477175
19.5236,7.841618987325321,0.04551090650240358
19.528188,7.733109831853739,0.04543064404268403
19.532772,7.620514199734985,0.04536863247353534
19.537364,7.505753144578496,0.04531923259669198
19.541968,7.39626651139375,0.0452736897545221
19.54656,7.284858824599562,0.045231266768159015
19.551148,7.170508465034139,0.04519672691108123
19.555744,7.055791551326279,0.04517806483249765
19.56032,6.941363148495339,0.04519025903466885
19.5649,6.823992072893162,0.045213348841376524
19.569496,6.707642616452781,0.045229048408625135
19.574084,6.5937470939270515,0.04525827297792977
19.578688,6.477031083344233,0.04529372933846963
19.58328,6.35761676941847,0.04533024778998094
19.587868,6.239224074654502,0.045358868276364234
19.592476,6.120831379890534,0.045387147986429295
19.597068,6.008324030669035,0.04538946336742058
19.601660000000003,5.899780973380564,0.04537255162230162
19.60624,5.79610164247277,0.04533411209170368
19.61084,5.692544496279122,0.04528495795841443
19.615428,5.590786218980768,0.045234450994157946
19.620032,5.4874734422154114,0.04516526433239094
19.62462,5.3849379151835555,0.045105569802250826
19.62922,5.285222876208789,0.04503580772045886
19.633804,5.181010664995785,0.044957608921643105
19.6384,5.078597322678076,0.04487752091226633
19.643004,4.976061795646221,0.044803714979231433
19.647596,4.87454788777616,0.04472055140837391
19.652196,4.77184603458153,0.0445883135264648
19.656788,4.674007907767578,0.04442609112237856
19.661376,4.57604759623948,0.04426627378138384
19.665976,4.474611731634936,0.04408995397069124
19.670564,4.379716277592218,0.04389587443687318
19.67516,4.287396942178298,0.043711817334064776
19.679744,4.194955422050232,0.04352973193968449
19.684344000000003,4.100715033026871,0.04333776913685084
19.688932,4.004309220965777,0.04316785221018487
19.693512,3.906104540009388,0.04298330229633319
19.698104,3.803158317386468,0.04280190764194956
19.702692,3.7006227903546125,0.04266474875162313
19.707284,3.600008316932199,0.04250776240555709
19.711876,3.5001710932432877,0.04235051879235356
19.716464,3.399800989249165,0.042141987125488486
19.721056,3.2975098316456015,0.04192751600688361
19.725644000000003,3.199593661566131,0.04172222845716203
19.730236,3.1028212953626,0.04147085551409078
19.734828,3.008092167482656,0.04117683704695715
19.739428,2.9134852243168576,0.04084513341008692
19.744024000000003,2.8221094647992135,0.0405440510431884
19.748608,2.7275466630820437,0.0402801887967819
19.753204,2.6347827302601696,0.04000683739532729
19.757792,2.5427960471717976,0.03973187424016342
19.762392,2.4472116262928343,0.039412456581150966
19.766972000000003,2.3548142476133966,0.03900435387737799
19.771572,2.263194118667462,0.03859716398059109
19.776152,2.1781144002833526,0.03814752479186602
19.780748000000003,2.091357997718094,0.037622237314981585
19.785328,2.006278279333985,0.037074831762095625
19.78992,1.9229974298451715,0.0364752065336708
19.794512,1.841104753660589,0.03573052833994801
19.799104,1.7568022850099818,0.03505286769433825
19.803692,1.6740543158263799,0.03439548615178497
19.808276,1.5995234413857538,0.03371110804081848
19.812864,1.526669251126278,0.0329999639713591
19.817464,1.4521383766856524,0.03102305566831412
19.822052,1.3759749595125041,0.029096942941441065
19.826652000000003,1.3023876609681542,0.027210131804955705
19.831244,1.2323981002143956,0.025366009485729618
19.835832,1.1652290275177264,0.023521594214931572
19.840432,1.101002627592292,0.021665708102011745
19.84502,1.0395967157239467,0.01982620391698187
19.849612,0.9839539646839255,0.017998553370701102
19.854204000000003,0.9307651475585565,0.016228621734639546
19.858792,0.8782313954525441,0.014532987859630688
19.8634,0.8274965122418274,0.012844489230701056
19.867988,0.7747183907075237,0.011210473350164426
19.87258,0.7292579294685484,0.009647978524043569
19.877176,0.6824092949253426,0.00813269575801139
19.881764,0.6408350823538783,0.006684490676815963
19.886356,0.602614238144714,0.005350230057935864
19.890948,0.5734657816775458,0.003973000327272089
19.89554,0.5520015396481428,0.0025900132860959173
19.90012,0.5313145473522424,0.001272343081700461
19.90472,0.5180674000658159,0.0
19.9093,0.5071520019798961,0.0
19.913896,0.5042873724741787,0.0
19.91848,0.5037544921689678,0.0
19.923076,0.5010561888260243,0.0
19.927656,0.4992573199307285,0.0
19.932248,0.4981135160547894,0.0
19.936836,0.4939048546934696,0.0
19.941432,0.48855238945621055,0.0
19.94602,0.48524316254253874,0.0
19.950604,0.4874527270288997,0.0
19.955192,0.48966229151526053,0.0
19.959788,0.4915053018591844,0.0
19.96438,0.48926183555593405,0.0
19.968972,0.49686800672818204,0.0
19.973564,0.5017758745574864,0.0
19.978152,0.5093820457297344,0.0
19.982744,0.5107363172170756,0.0
19.987332,0.5035069398190035,0.0
