Time,Force,Position
24.593556,0.03337550434529735,0.0
24.598151999999992,0.04064826952509178,0.0
24.60273999999999,0.050619338047829775,0.0
24.60732799999999,0.06238927546586347,0.0
24.611923999999995,0.07428139759804282,0.0
24.61652399999999,0.08821675805380924,0.0
24.62112799999999,0.10407317211901702,0.0
24.625724,0.11903015173657697,0.0
24.63031999999999,0.13705198883951747,0.0
24.63490799999999,0.15711706426604502,0.0
24.639508,0.18090206219730964,0.0
24.644096,0.20480924484271992,0.0
24.64869199999999,0.22757262361219102,0.0
24.653283999999992,0.2481705793439294,0.0
24.657875999999995,0.26521569240061044,0.0
24.662463999999996,0.28405967435258717,0.0
24.667055999999995,0.2998387988191833,0.0
24.671664,0.3177833463235122,0.0
24.676259999999992,0.3326630363424605,0.0
24.680851999999994,0.3376930888859106,0.0
24.685448,0.3469759442393086,0.0
24.69003999999999,0.3544599306974109,0.0
24.69463199999999,0.35630294104133475,0.0
24.699223999999997,0.3571243322234651,0.0
24.703811999999992,0.3575791692631584,0.0
24.70839999999999,0.353825344941532,0.0
24.712991999999996,0.347006663134525,0.0
24.717588,0.34096523106102017,0.0
24.722176,0.3316145720738434,0.0
24.72677199999999,0.3190768708871404,0.0
24.73136,0.29987657442446547,0.0
24.73595199999999,0.2812091582670013,0.0
24.740543999999996,0.2626639268236829,0.0
24.74513199999999,0.247183552865745,0.0
24.749723999999997,0.236689090002629,0.0
24.754316,0.22378483467348906,0.0
24.758903999999998,0.2106362099160577,0.0
24.7635,0.19495560797845662,0.0
24.768088,0.18070732079371424,0.0
24.77268399999999,0.1755755627995961,0.0
24.777275999999997,0.17608478091965635,0.0
24.781868,0.1786813788119318,0.0
24.786455999999998,0.19170463593354445,0.0
24.79105599999999,0.20375041534199173,0.0
24.795635999999995,0.21763920509436285,0.0
24.80023599999999,0.23864542716239928,0.0
24.80482399999999,0.2638264087748661,0.0
24.80942,0.29077235746573926,0.0
24.814007999999998,0.324346999615695,0.008551558425259198
24.8186,0.36352871606293985,0.01718733584317475
24.823199999999996,0.41330341790229574,0.025368903466246154
24.827796,0.46749724871437337,0.03340893136084501
24.83239199999999,0.5286863271279706,0.04125375597512494
24.83697999999999,0.5947052301053547,0.04901304119067453
24.841571999999992,0.6655539576465257,0.05660331370157129
24.84615999999999,0.7422099874646491,0.06409562363768653
24.85074799999999,0.8217306467884897,0.07160564909287877
24.85533999999999,0.9080802275510762,0.07892440475058354
24.85992799999999,0.9948405039047277,0.08637880900595318
24.864524,1.0773921188970597,0.09401638108115304
24.869116,1.1567566916898653,0.10164903863556618
24.873708,1.2382866875204035,0.10917417629545642
24.878303999999996,1.3117217733221112,0.11683766760541898
24.882879999999997,1.3838467290851058,0.12469148031724087
24.887476,1.4568269778471203,0.13245256859713803
24.89207199999999,1.5267762709406434,0.1400911132302847
24.896663999999998,1.5939389777939668,0.1476757401686445
24.90126,1.6608470755872602,0.15510886081758737
24.90585199999999,1.7190391001492555,0.154044778746861
24.91044,1.771091170108751,0.15296167278484837
24.91503199999999,1.812672439390281,0.15250609902009932
24.919623999999992,1.8490573299655872,0.1522207004932036
24.924215999999998,1.8756264848822843,0.15239973295666315
24.928803999999992,1.8958113157681906,0.15265881578454749
24.93340399999999,1.9073242148714271,0.1532310714237045
24.937983999999997,1.9136407352684397,0.153901289637643
24.94258399999999,1.9164375611403783,0.15458512308144343
24.947172,1.9098293469447731,0.15573905924146206
24.951772,1.903954241034042,0.1566974661003064
24.956355999999992,1.9007332970176267,0.15732439151608327
24.960947999999995,1.8958356688200608,0.15802193447296023
24.965544,1.8895057258696368,0.15871171942111476
24.970139999999997,1.883664521775795,0.159293481930857
24.974727999999992,1.8819097943291279,0.15954843279521236
24.979324,1.8773345788253712,0.15998456614580953
24.983907999999992,1.868795071388586,0.16071638949246217
24.98849599999999,1.864386182047603,0.16125431291766046
24.99308399999999,1.8593663691358915,0.16191964386694283
24.997684,1.8565561207105412,0.162559190129012
25.002272,1.8544009373045471,0.16321577995553782
25.006864,1.854944057241497,0.16372809743071584
25.011459999999992,1.8574082307878876,0.164104903316517
25.01604799999999,1.867190064629607,0.16403725957830353
25.020632,1.8790592782435416,0.1639588166863223
25.02522,1.8928495454669176,0.16373621368772126
25.029812,1.908316496871444,0.163444977630371
25.034407999999992,1.9255823171712656,0.16305593792591402
25.03899599999999,1.9495107327470593,0.1622114877528554
25.043592,1.9726618985893511,0.16140914450462102
25.048172,1.9965903141651449,0.16063881435000393
25.05276,2.0197414800074363,0.15987430048182671
25.057364,2.0424039069931452,0.15923897575223786
25.061956,2.0646997798364173,0.1586683600964051
25.066551999999994,2.0880172718414824,0.15807382724322164
25.071132,2.1170979246748725,0.15716771720938963
25.07572,2.1527189880700885,0.15591687540607524
25.080307999999995,2.1856417481223605,0.15486903198365895
25.08490799999999,2.222162245965224,0.15370852585686723
25.089504,2.2593378088274445,0.1525480840367486
25.094103999999994,2.3002332941944017,0.15121577116883841
25.09868799999999,2.3431720178849456,0.14977769737633395
25.103283999999995,2.384311872680195,0.14844649966382556
25.107871999999997,2.4250410318843785,0.1471517899385385
25.112468,2.463438441888055,0.14590044554950796
25.117056,2.5045341552346754,0.14456888245779634
25.12165199999999,2.5422765002189953,0.14334076598784765
25.12623999999999,2.5775649112886643,0.14218762404326735
25.130824,2.609377769281886,0.14119265553835197
25.135404,2.6405355622557525,0.14019708835666703
25.139999999999997,2.6670298568286057,0.1392975864441512
25.144592,2.6943794444004774,0.13825278164555765
25.149184,2.719886021628427,0.1371650554676502
25.15377999999999,2.750212183788423,0.1357735172545679
25.158359999999995,2.775386108690824,0.1345552916355096
25.16294399999999,2.791810058545038,0.13362356251173052
25.16753599999999,2.8020601519798634,0.13289625862457075
25.17212399999999,2.810100680928327,0.1321836807206345
25.17672,2.8124560923139836,0.13158459185877772
25.181307999999994,2.8128463086415714,0.13095216494768552
25.1859,2.8100053413210047,0.1303783154241514
25.19049599999999,2.804466070657494,0.12988820887782399
25.195091999999995,2.7972501158128336,0.12943187302708692
25.199688,2.7845153695681404,0.1291566172603064
25.20427999999999,2.7731687966276777,0.12877504332390508
25.20888399999999,2.757691605591413,0.1284683981197695
25.213475999999996,2.74299166428865,0.12815438211327293
25.21807599999999,2.729557711575972,0.12775170334678282
25.222655999999997,2.716368128291586,0.12730770718061316
25.22725599999999,2.705221783330786,0.12677144245382754
25.23184,2.6943639492469065,0.12630046058620867
25.236444,2.680319072963501,0.12598226676873542
25.241036,2.6678286961470987,0.12564645816386652
25.245631999999997,2.648309169912288,0.12560017698518736
25.250224,2.630466327858627,0.12552060278022406
25.254811999999998,2.616343408309703,0.12531672479093445
25.259399999999992,2.6042637270843665,0.12501943396808682
25.263996,2.591817491716593,0.12477872626984457
25.268584,2.5795375825115934,0.12462919473411786
25.273171999999995,2.570611041668894,0.12441012424442102
25.277759999999997,2.56516005390264,0.12410508214039077
25.282344,2.560364131155742,0.12381262785860116
25.28693599999999,2.556101088714055,0.12355146971321843
25.291527999999992,2.5580119026917583,0.12312799289251149
25.296119999999995,2.56021122754638,0.12277864566474887
25.300707999999997,2.562699063277921,0.12249747056564067
25.305304,2.566208518171256,0.12216955998837589
25.309887999999997,2.5698842992273647,0.12193563766895311
25.314475999999992,2.5739707758745394,0.12175603522008012
25.319072,2.57589182948398,0.12168707378727787
25.32366,2.579856121417009,0.12152987738384341
25.328268,2.5910158889312203,0.12117773115533209
25.33284799999999,2.5997658639794077,0.12096830298495666
25.33743599999999,2.611091957656393,0.12069657890773929
25.342036,2.624994169962176,0.12037629458311323
25.34662799999999,2.6400843275925263,0.12010807598838562
25.35123199999999,2.65534081138565,0.11993163512946052
25.35582,2.6731734138075716,0.11970213453915024
25.360424,2.6930492545530806,0.11938294701507196
25.365012,2.713824529746238,0.11905718689710383
25.369612,2.7343554355111035,0.11878736109142715
25.374199999999995,2.7615489365519417,0.1183318035490182
25.378796,2.795649402297042,0.11765993569169603
25.38338799999999,2.821943468890232,0.11723895857208086
25.387984,2.847582470464065,0.11680742397802302
25.392571999999998,2.87820738313272,0.11621295622800315
25.397168,2.912552218306112,0.115542368199693
25.401756,2.9491846612313823,0.11478200667783839
25.406348,2.985039854423151,0.11402704679531954
25.410948,3.024859339547948,0.11317016173920433
25.41554399999999,3.063779390225097,0.11234240443355169
25.420132,3.1013893108635333,0.11153340401717475
25.424716,3.142919381986369,0.11052048377184173
25.429308,3.1857154416992897,0.10944966703220733
25.433896,3.2232370794404694,0.10847227926340353
25.438488,3.256628099085847,0.10752895582988259
25.44308,3.290874411730244,0.10648674664399921
25.447675999999998,3.319968487117045,0.10550890426891564
25.452263999999992,3.3475080630368423,0.10453806659143466
25.45686399999999,3.372593705041987,0.10360624111077418
25.461452,3.3895844370183013,0.10281508079699217
25.466047999999997,3.3979473786605734,0.10215865007033695
25.470635999999992,3.3964165413787204,0.10167885106360144
25.47522399999999,3.4015041579242093,0.10095179380933217
25.47982,3.4067139591838456,0.10021115556542565
25.484412,3.4020299815193553,0.09963579468448398
25.489016,3.3929710163307703,0.09912411597304852
25.49361199999999,3.377616010008652,0.09871400478368772
25.49819999999999,3.359029820038378,0.09831470632962716
25.502796,3.3328816003444848,0.09807764700970364
25.507388,3.306322685059526,0.09778805129750598
25.511992,3.2722017400509475,0.09765645188113385
25.51657199999999,3.233872133681049,0.09764778114617385
25.521179999999998,3.195664712025297,0.09761154958840175
25.525767999999992,3.159378343978985,0.09753254741822895
25.53036799999999,3.1260346487039095,0.09737752356133021
25.534956,3.090892084533538,0.0972376742872253
25.53956399999999,3.06151268119149,0.09696411730120517
25.54416,3.033277081725381,0.09663937668388399
25.548759999999994,3.0040198630974793,0.09633711449180035
25.553352,2.982446858907342,0.0958636258217837
25.55794799999999,2.963083419203566,0.09540537682940743
25.562527999999997,2.9489944014715324,0.09487715107489386
25.567124,2.9335172104352676,0.09442136803742916
25.571712,2.9170184002372093,0.09399095449959802
25.57630799999999,2.9086145000679817,0.093440337198331
25.580899999999996,2.900987849632256,0.09289025612335823
25.585484,2.89503788337768,0.09232162444099354
25.59006399999999,2.8942401543807006,0.09170401697828222
25.594664,2.898306151764397,0.09096894205854797
25.59925599999999,2.9043373442061635,0.09029459018601306
25.603852,2.917686196943258,0.08949879392540995
25.608444,2.9337333530232965,0.0886632837420042
25.613036,2.9495361396750432,0.08787047895693835
25.617631999999997,2.968936664117381,0.08703922684299328
25.622224,2.9880928191314275,0.08624451103878955
25.626804,3.0086812888983334,0.08547922835113422
25.631392,3.0277594006468624,0.08481522931535514
25.635975999999992,3.048025457719959,0.08421382238184988
25.64056399999999,3.068824395098266,0.08364570182044664
25.64515199999999,3.0901562127817845,0.08312976066261116
25.64974399999999,3.1121430954846594,0.08263527868332539
25.654356,3.1337634240450973,0.08219065268004049
25.658948,3.1541177640154503,0.08180352222802469
25.66355199999999,3.178069841776395,0.08138203378062805
25.668147999999995,3.2047202228802827,0.08095020668574342
25.67274799999999,3.2301046153940858,0.08057017413818097
25.677328,3.2637061026508647,0.08010611155360957
25.681924,3.2962859707458505,0.07967322599674932
25.686503999999992,3.328499284698399,0.07929057666517561
25.69110399999999,3.3600575336315908,0.07889463986273965
25.695688,3.388795294507694,0.07854704506983669
25.700275999999995,3.4177774248120887,0.07818081409732158
25.704863999999997,3.4449606862211875,0.07783310810498362
25.70946,3.4693234595731965,0.07752992594346414
25.714048,3.494463482658709,0.07723469028371503
25.71864399999999,3.519481321030075,0.07695625388609414
25.72323199999999,3.544088463810376,0.07663627845808246
25.72782399999999,3.566486042104316,0.07628954927270522
25.732415999999997,3.588350740093045,0.07591062961229655
25.737003999999992,3.604818831395887,0.0755767699272631
25.74159199999999,3.616012500726988,0.07526820454973238
25.746183999999992,3.626795474467023,0.07491670800544338
25.75078,3.637045567901848,0.0745325599164548
25.755368,3.6439422929743723,0.07415486997648382
25.759967999999997,3.644542976913362,0.07382893691653035
25.764555999999992,3.646654018870728,0.07343182714046761
25.769147999999998,3.6387490971898218,0.07312152576152305
25.773744,3.6276129918607607,0.0727964969276682
25.778332,3.6160661909406353,0.07242641606451009
25.782936,3.6020654561058567,0.07204720058034626
25.787524,3.5862658523757838,0.07167780986716524
25.792112,3.568423010322123,0.07134379748117291
25.796708,3.5469824304778705,0.07102929111546205
25.801296,3.521166863109525,0.07072752620073798
25.805891999999997,3.4948184154359683,0.07039031960444873
25.810483999999995,3.465893849133614,0.07005634609700573
25.81508,3.4359476636694657,0.0697358488855393
25.819659999999992,3.4051020437576702,0.06941369596559711
25.82425999999999,3.3770769119029636,0.06905746265699858
25.828848,3.351994452819491,0.06865389260899359
25.833452,3.332919523992635,0.06814636861781694
25.83804399999999,3.3107797376803982,0.06768921423932847
25.84264,3.287740516920514,0.06723165123129514
25.84722399999999,3.264579111446483,0.06678187161474634
25.85182,3.241417705972453,0.0663254662607096
25.856424,3.219810799965427,0.0658835696940948
25.861011999999995,3.2001249475678426,0.06541113362245057
25.865599999999997,3.1828930290849105,0.06494627783952979
25.870196,3.164395122011893,0.06452282450610991
25.874788,3.147451714405879,0.06411349222986214
25.879372,3.1342282293046035,0.06367181274807046
25.883959999999995,3.121249113631619,0.0631992549753972
25.888552,3.1185303310251977,0.06264171522994483
25.893144,3.1240286431617537,0.06203464178660247
25.897736,3.1304263897459563,0.0614283679395147
25.902331999999998,3.1397668091013937,0.06078477989576289
25.906912,3.152704966247424,0.06013373650372502
25.91150799999999,3.1709175453651945,0.059484023939047226
25.91609599999999,3.187086886159378,0.05887438909754406
25.920684,3.202889672811125,0.05830650522400752
25.925279999999997,3.220002589501584,0.05779621863982403
25.929872,3.245699155077457,0.05721998217499958
25.934459999999994,3.2758928928915707,0.056637853786721926
25.93904399999999,3.305842261277391,0.056080448581094136
25.94363599999999,3.340166617187306,0.05552979659863851
25.948236,3.3735915386495727,0.05499216647751196
25.95282799999999,3.4085709595788436,0.05447522695511823
25.95743199999999,3.4455936188317016,0.05393818465521543
25.96201999999999,3.48429296226571,0.053411338328634816
25.96662,3.5237695554332205,0.05289829859396451
25.971208,3.5605478452577874,0.0523985076203505
25.975807999999997,3.5969595809399166,0.051937731732188
25.980388,3.6265865366319296,0.051548468493273665
25.984992,3.6541702540003547,0.05119672737823048
25.989575999999992,3.680487982778695,0.05088596357390949
25.994172,3.7036186693575086,0.05062703833282175
25.99875199999999,3.7202089453744964,0.05039936241789971
26.00334399999999,3.7300144414013667,0.050225899025483134
26.007935999999997,3.7399421221423825,0.05004175869569656
26.012528,3.751013606759337,0.04983459522987539
26.01712,3.759508972747495,0.04962050268819647
26.021708,3.75852125540259,0.04945992067309597
26.026295999999995,3.7518925619435075,0.04932489946566643
26.030888,3.746285487646219,0.04917743826949936
26.03548,3.735037437234751,0.0490553357031852
26.040072,3.717904041280813,0.048981112254612706
26.044667999999994,3.6989717764315797,0.04890730236632468
26.049248,3.6770968388111127,0.04885550226678578
26.05384,3.6517463481141985,0.048791894032313696
26.05843199999999,3.6231646737691308,0.04869052806530341
26.06302,3.592661945814621,0.048597376589009124
26.067624,3.56191484843182,0.04852985004203749
26.072203999999992,3.525648959648987,0.04847523302049816
26.076795999999995,3.4810437914090313,0.048446427563146766
26.081388,3.435783558149719,0.04838913728963886
26.08598,3.390767694318699,0.048305784019882794
26.09058,3.3486945032589133,0.048192185702960126
26.095172,3.3051889974462685,0.04803812812982299
26.09976799999999,3.2597624380241825,0.04789095756430395
26.10435599999999,3.208572717773772,0.047779435766695515
26.108956,3.152519271142686,0.04770411902759495
26.11353599999999,3.0981425086927494,0.04764407718626249
26.118136,3.0467084190140477,0.04755102608047985
26.122728,2.992331656564111,0.04748471334926575
26.127328,2.9383214482566125,0.047370870561913456
26.13192,2.887253912720349,0.04723070233456588
26.136515999999997,2.835286942736437,0.047087796195873756
26.141096,2.7802551152671438,0.04699044732373303
26.14569199999999,2.724978918369559,0.04692237514243232
26.150288,2.669091797901247,0.046929778298280156
26.154887999999996,2.614881361614085,0.046950402735384256
26.15947599999999,2.56103747946936,0.046925313405764335
26.164072,2.5155328767817564,0.04686832393880788
26.16866,2.476568684655979,0.046777734083385425
26.173256,2.4344174503306757,0.04675300711678505
26.17784799999999,2.388179739358198,0.04680438604773579
26.182439999999996,2.3397766053479874,0.04690748823612824
26.187031999999995,2.2976695124713125,0.047004935376003455
26.191624,2.251475942947464,0.047188254846352314
26.19621999999999,2.205038003995323,0.047436337274079345
26.200808,2.1624421722620646,0.047648204505917925
26.205408,2.116370787452361,0.047854529688373365
26.20998799999999,2.0682561643190707,0.04809729333004959
26.21457999999999,2.02320639867116,0.04827180564355679
26.219164,1.979588947776109,0.048510065283191454
26.223752,1.9360936815952037,0.04872555718275994
26.228356,1.8955410881855326,0.04888860592524001
26.232944,1.856132298651801,0.04902048663713563
26.237536,1.8158240746704217,0.049168201064425786
26.24214,1.7797245120503618,0.04918943307974431
26.246728,1.7397828422114192,0.04927361772713156
26.25132399999999,1.6971428690295332,0.04934843509806887
26.255903999999997,1.6489841044476143,0.04944431963470481
26.26050399999999,1.596983232646813,0.049599423583508676
26.26509199999999,1.5472699685978897,0.049642936320434365
26.269692,1.5045858539673753,0.049512567068721376
26.274284,1.4601028704415655,0.049390916144112854
26.278884,1.4129215835728124,0.049249091519094186
26.28347999999999,1.3689273389035852,0.04898755676206923
26.28806799999999,1.3282423211480296,0.04855292748385659
26.292647999999996,1.2837151961735918,0.04816209558713606
26.297244,1.2447068625991866,0.04771206276875587
26.301848,1.20377747541534,0.045149387762204826
26.306443999999992,1.1590059810126108,0.04263993936316032
26.31103199999999,1.1135794215905246,0.04010234674425377
26.315623999999996,1.0690522966160865,0.03758901430769686
26.32021199999999,1.0241586174992114,0.035130449379288456
26.32479999999999,0.9793871230964822,0.03266972138719511
26.32939199999999,0.9387021053409268,0.03017606200147624
26.333983999999997,0.8921317420429018,0.027771534832432714
26.338571999999992,0.8514467242873462,0.025304187480542792
26.34315999999999,0.8097400873699975,0.022866029243934875
26.347756,0.7689328849002965,0.020425524925789428
26.352336,0.7291473015923892,0.017945073402963904
26.35691599999999,0.6889951641420445,0.015538835019350996
26.3615,0.6456559844921739,0.013244952339863988
26.366092,0.6082021503847731,0.010919768987670542
26.370696,0.5698488818297244,0.008637109786900628
26.375275999999992,0.5321506782940323,0.0064043087358139055
26.37986399999999,0.4979280278347856,0.00426721361666069
