Time,Force,Position
22.770608,0.5513566529398619,0.0
22.775196000000008,0.5465709698247031,0.0
22.77978,0.5421518408519814,0.0
22.784372000000005,0.5349122238221703,0.0
22.788956,0.5267731723447115,0.0
22.793552000000005,0.5214546089243419,0.0
22.798136,0.5103728846756483,0.0
22.802724,0.4973701068175132,0.0
22.807320000000004,0.486943447588176,0.0
22.811908000000003,0.47357411558760387,0.0
22.816496,0.4590609797110926,0.0
22.821084,0.4443034744062899,0.0
22.825672,0.43158920742507434,0.0
22.830268000000004,0.4093918571107976,0.0
22.834848000000008,0.39295766762484496,0.0
22.839448000000004,0.377955792891751,0.0
22.844040000000007,0.364997156482244,0.0
22.848640000000003,0.35089471619679785,0.0
22.85323200000001,0.33732515621656256,0.0
22.857824000000008,0.3283749531887121,0.0
22.862408,0.3250657262750403,0.0
22.86700400000001,0.32494354156089467,0.0
22.871596,0.3241662918273925,0.0
22.876192000000003,0.32224523821795104,0.0
22.880787999999995,0.32146798848444896,0.0
22.88538800000001,0.32159017319859456,0.0
22.889976000000004,0.3227339770745337,0.0
22.894572,0.3218345426268859,0.0
22.899159999999995,0.3169708162462096,0.0
22.903756,0.3167264468179183,0.0
22.908348000000004,0.31828094628492265,0.0
22.91294000000001,0.3199576304660727,0.0
22.91753200000001,0.3213899452189313,0.0
22.922116000000003,0.3291183011053249,0.0
22.926708000000005,0.33083912673510313,0.0
22.931296000000003,0.33382594095496615,0.0
22.935884,0.3415542968413599,0.0
22.940476000000004,0.35263602109005354,0.0
22.945064,0.36690478753827355,0.0
22.949659999999994,0.37925250037705205,0.0
22.954248000000007,0.38559268295921517,0.0
22.958839999999995,0.38490371612296936,0.0
22.963432,0.38756811764902355,0.0
22.968024,0.3941968111081061,0.0
22.972628,0.4004589504247517,0.0
22.977208000000005,0.4086421433508387,0.0
22.981804,0.4174804012962822,0.0
22.986391999999995,0.4311823856224019,0.0
22.99099200000001,0.44807141214804797,0.0
22.995572,0.4640610042260461,0.0
23.000176,0.4790289771422507,0.0
23.004768,0.49080990785892903,0.0
23.009364000000005,0.49760492748078555,0.0
23.013948,0.49978059015025705,0.0
23.018536,0.5114393361527897,0.0
23.023136000000008,0.5247747663364725,0.0
23.027732,0.534923154320629,0.0
23.032328000000007,0.5439277384288462,0.0
23.036924,0.5527320945574004,0.0
23.041512,0.5685316982874741,0.003850278172047794
23.046104,0.5917372452101326,0.008251599912072879
23.050688000000008,0.6267237228494694,0.01301668526942183
23.055284,0.6689939589672455,0.01794167709041087
23.059876000000003,0.71548309607808,0.023123915248411096
23.064468000000005,0.7675793074862035,0.028525010625091496
23.069064,0.8231171701538835,0.034080624111103165
23.073644,0.8834848573853504,0.03980845069713546
23.078244,0.9453731422669323,0.045746771794257006
23.082832,1.0116025128557184,0.05181467583135385
23.087428000000003,1.0768985471799672,0.058174499972408054
23.092016,1.146124971620355,0.06461878758378478
23.096596000000005,1.2249227622910603,0.0710377892682811
23.101188000000008,1.3145579077821683,0.0774211650014898
23.10577600000001,1.4138866042177394,0.08374398721331124
23.110364000000004,1.5095836610458295,0.0902418863168139
23.11496,1.6061462505046782,0.09687028621550692
23.119547999999995,1.7041852961650137,0.10362181241785157
23.124151999999995,1.8061105904928603,0.1103743316125961
23.128736000000004,1.9095462428390828,0.1170705344457159
23.133336,2.0061088322979312,0.11991645910678789
23.137924,2.0961207715632155,0.12219132328700262
23.142523999999995,2.177128126720282,0.12406277743716486
23.147116,2.2451666058361024,0.12583968898371875
23.151708,2.3057550003107097,0.1273383963146153
23.15630400000001,2.3624910479346957,0.12848995950482336
23.160892000000004,2.4097337725938823,0.12954247692223597
23.165484000000006,2.450059292917066,0.1304507487656991
23.17008,2.4838341630466854,0.13115649852171635
23.174668,2.5106918288403017,0.13175233801006317
23.17926,2.5368061467173058,0.1320349670754064
23.183848,2.5573133902970206,0.13226444750913413
23.188436,2.5677163873412074,0.13261599428094192
23.19302400000001,2.5722679406598137,0.13297042359707734
23.197624000000005,2.566226508586309,0.1335301357434306
23.202212000000003,2.561240597491487,0.13377004168927206
23.206807999999995,2.5537124695847564,0.13382556303175652
23.211404,2.5495716118572154,0.1335546736823476
23.215992,2.5438321132140422,0.13319762783794936
23.220592,2.5391142337326618,0.13280099482714305
23.225179999999995,2.533907615394699,0.13248159181522506
23.229768000000007,2.5341417451912513,0.13210822141898343
23.234356000000005,2.5399388078364646,0.13166865661809035
23.238944000000004,2.5550187258350765,0.13104158172456193
23.243552000000008,2.574884326948847,0.1303644095308967
23.248140000000006,2.5926286464735124,0.1299001232301228
23.252752,2.614914279685045,0.12940379077903702
23.257344000000003,2.6436622801928875,0.12882112161869147
23.261948000000004,2.6759299752258032,0.12825338426141425
23.266536,2.7132277228021695,0.12759915774159977
23.271128000000004,2.75375665402669,0.12691771619098977
23.275735999999995,2.7976389536135104,0.1261774811220478
23.280328,2.848594544067368,0.12526187997287117
23.284932,2.9002051995405815,0.12437211270957511
23.289528000000004,2.955413592804388,0.12334879455575323
23.294124,3.0083343783163143,0.12248129947593926
23.298711999999995,3.0601113599523027,0.12168224786437336
23.303315999999995,3.1033046927028765,0.121186367811177
23.307896,3.1436775373963615,0.12079056677443265
23.312496,3.175955472061016,0.12059932020050997
23.317088,3.2085999608681077,0.12034620702637568
23.321684000000005,3.234415528236453,0.1202287243070176
23.326268,3.256100477508997,0.12018577854183017
23.330856,3.269812701466855,0.12032807711226687
23.335448,3.279272122614766,0.12054690434959651
23.340036,3.29060845592349,0.120612096043952
23.344628,3.298835790298205,0.12069626773356404
23.349216,3.3041984951672028,0.1207697528826268
23.353796000000003,3.311315927482868,0.1207121156187917
23.358391999999995,3.315202176150379,0.12069034781053185
23.362984,3.315079991436233,0.12070584025090968
23.367576,3.3119709925022245,0.12072192930676197
23.372164,3.305875179348352,0.12073552366676542
23.376744,3.2957709328128235,0.12078281187858425
23.381336000000005,3.2874214137239623,0.1207037371065335
23.385928000000007,3.2758407109869476,0.12065456156306333
23.390519999999995,3.263604943230576,0.12059435511289326
23.395108000000008,3.2577432598732563,0.12030129191037678
23.399692,3.253269749820168,0.11993008053312784
23.404284000000004,3.2510838475189576,0.11945531544598484
23.40888,3.251185552969626,0.11888508767953089
23.413464000000005,3.257172603962764,0.11814420139418096
23.418071999999995,3.2591953630228736,0.11751581544793942
23.422664,3.264282979568364,0.116779512482692
23.427264000000008,3.2692484113997082,0.11605455913616722
23.431848,3.27204842019332,0.11541565014814258
23.436448,3.277668917044021,0.1147023378760475
23.441036,3.2801023716951954,0.11410727395409422
23.445628,3.2806147727369286,0.11357308675283473
23.450216,3.28088280435037,0.11306984658623243
23.454816000000008,3.282949704859108,0.11253116540459904
23.459404000000006,3.2855494856730565,0.11201936628711619
23.463995999999995,3.2838184204115395,0.11166952939261121
23.468588,3.286340157959971,0.11125871242551132
23.473184000000003,3.2873515374900255,0.11094626174524638
23.477772,3.2917162853823805,0.11059105580186022
23.482364000000004,3.2977577174558856,0.11021577226110488
23.486956000000006,3.2993461187397792,0.11001982032817455
23.491544000000005,3.2967258586623527,0.10996888759629186
23.496132000000003,3.2982362166807286,0.10987595627392265
23.50072,3.29848058610902,0.10984610995726019
23.505308,3.2954157286236394,0.1099401881728885
23.5099,3.2987690969859393,0.10990284039191422
23.514488,3.301389357063365,0.10995435124280581
23.519076,3.3068301051978803,0.10994137805946219
23.523668,3.3159907758371334,0.10984900235626922
23.528251999999995,3.3262952503523247,0.1097154158513419
23.532827999999995,3.3414634512481927,0.10946040555093299
23.537424,3.353444609944534,0.10930989979933495
23.542016000000004,3.3654257686408755,0.10915939404773689
23.546604,3.3742198851376903,0.10911407963253097
23.55120000000001,3.3821145671868584,0.10908431502538776
23.555792,3.396916213940289,0.10887086712630786
23.560384,3.4127394798555133,0.10863442774469949
23.564976,3.4266416921612963,0.10844277331754425
23.569576,3.44193207777131,0.1081838015156001
23.57416000000001,3.4574668328096148,0.10790078172407644
23.578760000000003,3.4760664453333,0.10753116406071532
23.583348,3.50042921868531,0.10702742506023102
23.587940000000003,3.5242591117321087,0.10650952530388785
23.592536,3.542570213378874,0.10608572077271446
23.597132,3.5601040652921383,0.1056602429472644
23.601724000000004,3.5749396138624583,0.1052849946425179
23.606316000000007,3.5912855204511547,0.1048262214386225
23.610907999999995,3.603789319820968,0.10445468472550248
23.615504,3.612451011971899,0.10417232334906332
23.620088,3.6179256619233033,0.10399025335488014
23.624684,3.6204576391034733,0.10388041452977483
23.629276000000004,3.6260544737690235,0.10368632914341906
23.633864000000003,3.63177349314872,0.10347889006333515
23.638452,3.6417011738897354,0.10314671378460123
23.643048000000007,3.6544493426878404,0.10276022733950585
23.64764,3.6601683620675365,0.10255484657637734
23.652232,3.6613902092089936,0.10242009730367141
23.656828000000004,3.668741771321211,0.10212676240790039
23.661416000000003,3.6740500951098416,0.1018895843205773
23.666,3.6774373652890313,0.10169249208611832
23.670592,3.6781263321252773,0.1015351204196323
23.67518,3.6771386147803726,0.10139177118492987
23.67979200000001,3.679093570206704,0.10118954994205717
23.684372,3.6896321745184477,0.10082878966099465
23.68898,3.7031134516014266,0.10040926501388589
23.693572000000003,3.717616347846199,0.09996732998732069
23.69816,3.7328964938244735,0.0995325772123492
23.702756000000008,3.751363682002274,0.09901294371405168
23.70734400000001,3.7723628473602444,0.09839854731994607
23.71194,3.796549054917742,0.09770393874837745
23.716536000000005,3.8229006855129715,0.09695731293930304
23.721140000000005,3.849618870250638,0.09618413625110966
23.725719999999995,3.877236489435953,0.09540472092560255
23.730312,3.9020336205641777,0.09467760015419732
23.734904,3.9251540675112535,0.09396695190566635
23.739508,3.953626979695588,0.09311768177240877
23.744096,3.986963618260598,0.09218842507899039
23.748692000000005,4.009673369616609,0.09144694343776359
23.753280000000004,4.03430417458206,0.09068071033630277
23.75787200000001,4.059834413995159,0.08990403129679206
23.762460000000004,4.084465218960612,0.08913223233996385
23.767056,4.1094625780684995,0.08833627206020886
23.771640000000005,4.127020092166914,0.0876505947992467
23.776236,4.139958249312943,0.08703170809425824
23.780824,4.1494208533825265,0.0864398726211302
23.785416,4.160393815470486,0.08578972160021608
23.790008,4.170956081967381,0.08511051464058643
23.794604000000007,4.180374544588336,0.08446576919768545
23.799195999999995,4.187627584171559,0.08387390304971128
23.803780000000003,4.19295957014534,0.08331346610501773
23.80837200000001,4.193672199166737,0.0828027679178553
23.812960000000004,4.191442155416898,0.08233679125112703
23.817556,4.187657612200056,0.08186376564999427
23.822136,4.187715176202095,0.08134207685608622
23.826724,4.188017109632427,0.08079938261832906
23.83134,4.1856207397198135,0.08027962379027907
23.835928,4.178360643426526,0.07982708313465378
23.840524,4.177885327123355,0.07927918099878956
23.845108,4.169315100791354,0.07878696591398557
23.849695999999994,4.161111428601789,0.07826129375889239
23.854288,4.155073179449956,0.07768705622607787
23.858875999999995,4.146747322546246,0.07716965769228198
23.863472,4.139320900090184,0.07664051021738681
23.86806,4.1327939120817705,0.07610377518340188
23.87266,4.129986846578093,0.07553109456070166
23.877247999999994,4.1211722508178,0.07504830450813463
23.881851999999995,4.106350124800892,0.07465305685620335
23.886436000000003,4.09189455292642,0.07422306642127519
23.891036,4.077316796337803,0.07380192065683767
23.895620000000008,4.062861224463331,0.07336830992195156
23.900208000000006,4.050082336770011,0.07293054499448694
23.904804,4.038202883524336,0.07248376623363835
23.909400000000005,4.027222864726311,0.07202938742586061
23.913988000000003,4.012278553995257,0.07163090628458846
23.918584,3.9940250163505313,0.07130164095266667
23.923172000000008,3.9774481628869554,0.0709702668881847
23.927760000000006,3.9629145477469665,0.07060373012404515
23.932348000000005,3.9483809326069776,0.07023672300958386
23.936944,3.9457843347147024,0.06978250584609859
23.941531999999995,3.941921748232342,0.06936553937117133
23.946124,3.9369153578740423,0.06897448626931732
23.950716,3.928966294744508,0.06861572569749012
23.955304,3.918973993291387,0.06828454229032693
23.959896,3.910003311000059,0.06793721235708756
23.964484,3.8959245328997634,0.06766779975104448
23.969072,3.888263980647148,0.067354320551084
23.973668000000004,3.883301731737477,0.06702244655718965
23.978256,3.877972928685369,0.06672465662178649
23.982844,3.875342428976204,0.0664140730849569
23.987436,3.8715681253911,0.06613000164722496
23.992028000000005,3.8695926907012916,0.06583730734665727
23.996632000000005,3.8701933746402815,0.06554411108276394
24.001224000000008,3.871571308312773,0.0652593596578238
24.005816,3.8737264917187666,0.0649813111835445
24.010396,3.882666455114878,0.06463135977877285
24.014996,3.8893188107591117,0.0643349598952505
24.019583999999995,3.8956046122609074,0.06407304683308658
24.024184000000005,3.9024232940679147,0.0638435019421607
24.028776000000008,3.9052776839418932,0.06366621684109226
24.033376000000004,3.9110747465871074,0.06345825134257381
24.037972,3.919447927861119,0.06325247916161118
24.042559999999995,3.9365269427346887,0.06296575996385487
24.04714,3.9621896064936726,0.06261107197625379
24.051732,3.988507335272013,0.06228064023898077
24.05632,4.018789355983381,0.061905033256980206
24.06091600000001,4.048294126961248,0.061531313907527176
24.065504000000004,4.083684243481584,0.06110460677275284
24.070092,4.120218163877859,0.06065951903253992
24.074684000000005,4.157118638416572,0.06019327183103795
24.079276000000007,4.195940166564726,0.059714870254285554
24.083867999999995,4.233207195245875,0.05922498706176689
24.08846,4.269696974193523,0.05873400714458976
24.093052,4.303244080369935,0.058270945158639585
24.09763600000001,4.339200979012372,0.05775994180017596
24.102228,4.368739651807128,0.05727908790294906
24.106808,4.400688117067908,0.05674666438242902
24.111396,4.431981517309332,0.05619655141040369
24.11599200000001,4.460043733902601,0.055626272246032754
24.120580000000004,4.483608778257629,0.0550651316688527
24.125168,4.504231149841424,0.05453296547635979
24.129763999999994,4.521377968348774,0.05399896983591021
24.134352000000007,4.529163888237208,0.05351158104398217
24.138943999999995,4.529387778402022,0.05306734947853817
24.143536,4.524459431309239,0.05260904610956042
24.148128,4.517732215321162,0.05215292615104708
24.152712000000008,4.506141272952407,0.05173019007188512
24.157308,4.491607657812419,0.05133270803190716
24.161896,4.474131369901196,0.050955210151303436
24.166495999999995,4.452690790056943,0.050607865405212685
24.171080000000003,4.429451341317395,0.050260124198450155
24.175676,4.406089707863701,0.04991858899725084
24.180268,4.3819508246765055,0.049566373612203646
24.184864000000005,4.359077930079394,0.049181452502621244
24.18946,4.333140177996903,0.04882380269271759
24.194060000000007,4.310922348419148,0.04845250940369795
24.198652,4.285517476641868,0.04811730566112811
24.203240000000008,4.25921317041694,0.04777802274156498
24.207828000000006,4.235240613392517,0.04746602739695632
24.212416000000005,4.212289675529888,0.0471398319911412
24.217004000000003,4.188317118505466,0.04682066204669824
24.221596000000005,4.166920680109843,0.046510133163848104
24.226188000000008,4.147855990914725,0.046225945740750916
24.23077600000001,4.128424747577171,0.0459686166937774
24.235376,4.11222468788777,0.04573950481714935
24.239964,4.096801877931872,0.04551941134486982
24.244556000000003,4.080357448814182,0.04530607055009769
24.249148000000005,4.059948727763461,0.04512090729808443
24.253736000000004,4.04211612534154,0.04494646682394788
24.258332,4.023261903757824,0.044779589227783904
24.26292000000001,4.006983800802906,0.0446237556318698
24.267508000000007,3.9884180900961104,0.04450756293579289
24.272092,3.9687085755133755,0.044409721752869384
24.27668,3.9476108876264098,0.04435188476119588
24.281284,3.924225591987565,0.04433489572687698
24.28588000000001,3.8977754388633405,0.044345892303490106
24.290476,3.872224720186764,0.04435755283096497
24.295056,3.849127935424839,0.04439173755112611
24.299656,3.822555597586469,0.0444111857107215
24.304236000000003,3.796393955339164,0.04447519505076312
24.308836,3.7740744203107415,0.04451931476248684
24.313428,3.74893439722523,0.04457105089546881
24.31802400000001,3.7268592316250984,0.04459334779907616
24.322616,3.7097699771197896,0.04457622674238147
24.327203999999995,3.6917812881668324,0.04455811430539994
24.331804000000005,3.6699504919949923,0.04455817205043403
24.336396000000008,3.652983422203829,0.0445286928787511
24.340988,3.636016352412666,0.04449953831305778
24.345588000000006,3.6154515448309104,0.044466332649276775
24.350176000000005,3.5937429333732167,0.044455819121736254
24.354764000000003,3.5656160960678416,0.04444927910391017
24.359352,3.5406763009619935,0.044398097275124684
24.363952,3.5126716483707643,0.04437974247479662
24.36854,3.4847891804936806,0.04434971365293229
24.373132,3.4571510820448883,0.04429602772353452
24.377728000000005,3.4311896677772467,0.04425718049169214
24.382320000000007,3.4025299501666613,0.044214570504313225
24.386916,3.367207637280104,0.04420663920073428
24.391496000000004,3.331885324393546,0.044195125405551455
24.39608,3.2941090775923363,0.04415649028556323
24.400676000000004,3.2496702355151545,0.04414890881549076
24.405264000000003,3.205475762866264,0.04410956338813149
24.409872000000007,3.1567841179791345,0.04405936509914277
24.414463999999995,3.1015520625301787,0.04402221182534956
24.419056,3.0408012156811894,0.04399096661075323
24.423644,2.981316357422286,0.043911200080931016
24.42823200000001,2.9151689038874102,0.04385923812284351
24.432828,2.8493880044949718,0.043754086511845015
24.437420000000003,2.7800093673119415,0.043633030190747615
24.442015999999995,2.7100978498237005,0.04345561264733492
24.446604000000008,2.6390425284595205,0.04330644828553872
24.45120800000001,2.5652889037523963,0.04312653335937816
24.455788,2.4917796484735644,0.042908977598600295
24.460392,2.417615328175375,0.042631395931678924
24.464976000000007,2.3425515734295383,0.042335812741708855
24.469572,2.260414527816664,0.0419775467798454
24.474156000000008,2.179299101365584,0.04157386509516763
24.478752,2.102514520989969,0.04103098591302422
24.483348000000007,2.022665083128973,0.04050919077966985
24.487948000000003,1.9448588835915643,0.03990634030492213
24.492543999999995,1.868196487930095,0.039211242444784314
24.497132000000008,1.7845049428502164,0.03856835827470724
24.50172000000001,1.7017128322179862,0.03785596685596549
24.506308000000004,1.617776917709817,0.037124778540406474
24.510896,1.5385825448681776,0.03495588709536078
24.515491999999995,1.4579999987223082,0.03282782273245402
24.520084,1.3792163214717341,0.03069436847614998
24.524676,1.296346167573986,0.02860554673383419
24.52927200000001,1.2188726203621254,0.0265358568356228
24.533860000000004,1.1457740606743578,0.02450233140086638
