Time,Force,Position
23.283088,0.7380377958121864,0.0198457673241354
23.28768,0.6750773844768369,0.017188387223952512
23.292264,0.6168585148080179,0.014475467462284354
23.296856,0.5617045026245794,0.011716528170200925
23.301444,0.5120692818411737,0.008924847871747441
23.30604,0.4652545491148573,0.006069255347443911
23.310628,0.4257574766838694,0.003111527961842
23.315216,0.388592153453388,0.0
23.319812,0.3585001210899437,0.0
23.3244,0.3291072951944841,0.0
23.328988,0.30744282518541816,0.0
23.333572,0.29158565745330445,0.0
23.33816,0.27806023892169734,0.0
23.342756,0.2673994498958075,0.0
23.347344,0.25833730178555026,0.0
23.351936,0.2557375209716018,0.0
23.356524,0.25457005491051204,0.0
23.36112,0.25777757637351584,0.0
23.365708,0.2642162814846741,0.0
23.370308,0.2732752466732583,0.0
23.374892,0.2821339838821794,0.0
23.379484,0.29487896975861133,0.0
23.38408,0.3075459123695258,0.0
23.388672,0.31833594281962696,0.0
23.393264,0.3304802447570692,0.0
23.397856,0.3503631422126441,0.0
23.402436,0.3808051232434405,0.0
23.407028,0.42380528472441753,0.009314984655126049
23.411616,0.4729895422565227,0.01855379058474392
23.416216,0.5315007965906539,0.027522333002880067
23.420804,0.594475321346135,0.03643580984530162
23.425396,0.660647127932881,0.04537509409209376
23.429988,0.7278507933131595,0.054726248902270465
23.434568,0.8022601739063596,0.06422974452630067
23.439164,0.8833423894072705,0.0737058807233941
23.443752,0.9685654626357223,0.08327203048139611
23.44834,1.0683119113724242,0.0924302800129626
23.452936,1.1752640753220478,0.10158866274244498
23.457524,1.286068586122293,0.11070361307173282
23.462132,1.4031793776878116,0.1198828585561299
23.466724,1.537878402246961,0.1287121480118389
23.471312,1.6851797487049192,0.13735338091016133
23.4759,1.8479039051187753,0.1458499734824892
23.4805,2.0252736217550273,0.15422047486407342
23.485104,2.2102936510121554,0.16253998091644484
23.489684,2.393015832885666,0.17080160310319242
23.494276,2.5651008879184376,0.17911943366988797
23.498856,2.7323561183874223,0.17805453768129
23.503456,2.8933050680911334,0.1770450845581774
23.50804,3.0513452468404982,0.17621767599150578
23.51264,3.2071317196548748,0.17540775929847116
23.517232,3.3594765412096956,0.17454378691644912
23.521828,3.517452099246956,0.1730771291535438
23.526416,3.6757398303462856,0.1712739968329769
23.531004,3.83000888843222,0.1694114244006334
23.535592,3.981114566503779,0.16734262307463207
23.540184,4.121372650123197,0.16558650922815832
23.544772,4.25785643015751,0.16373080328670767
23.54936,4.385335626083607,0.16194568815211283
23.553948,4.5033554008617935,0.16009561381157603
23.55854,4.602432671159008,0.15862263255551784
23.563124,4.686653913622422,0.15730921011813132
23.567712,4.755486247946831,0.1561078416500898
23.572308,4.806275512237915,0.15510640087509514
23.576896,4.8487933007056565,0.1540801577512568
23.581488,4.885048949856753,0.15307819630602196
23.586076,4.916963513300645,0.15202151892487215
23.590664,4.941183622675033,0.15099379306150829
23.59526,4.958119973570981,0.15000178145307475
23.599844,4.964952077931399,0.14912952920916256
23.604444,4.96114705545108,0.14835477139604988
23.609032,4.9508355242258215,0.14761099437766567
23.61362,4.92698833483722,0.14711419943368217
23.618212,4.894757724542866,0.14675110394953708
23.6228,4.855287497218701,0.14647781737102147
23.627396,4.808988348455791,0.1463154875757403
23.631984,4.7529176054829,0.14635718669429004
23.636584,4.688096887461823,0.14656752178675456
23.641164,4.624131462439766,0.1466914398648128
23.645764,4.565807013531883,0.14665385910029335
23.650348,4.509525802947588,0.1465524330068103
23.654944,4.451323538753856,0.14649999979628928
23.659524,4.39647464292242,0.14637688545582528
23.664116,4.348288342366958,0.14607835027861513
23.668704,4.299857672383203,0.14578932982760975
23.673296,4.256701424371189,0.14538223825784005
23.677884,4.21959684806442,0.14485852673646377
23.682468,4.184213097387428,0.14436709313969712
23.68706,4.155946779026102,0.14379812669763806
23.691652,4.1333655782275835,0.14315434135715177
23.696244,4.122643351411262,0.1423204045676223
23.700832,4.118016937748811,0.1414448945134831
23.705428,4.12038577168788,0.14050354805421467
23.710016,4.123986692400144,0.13964808726549705
23.714612,4.133561241552135,0.1387632728810009
23.7192,4.146655485229199,0.13787894676868315
23.723788,4.173651941212046,0.13674750170310696
23.728392,4.210830686995939,0.13545697571161466
23.73298,4.252672931180845,0.13415388468454065
23.737572,4.293293328224295,0.1330027427966279
23.742164,4.33821066952632,0.13186459007339854
23.746752,4.391389247019951,0.13063594625353972
23.751348,4.44628865014336,0.12947884117559777
23.75594,4.503930498058339,0.1283701088444099
23.760536,4.561127748565365,0.12737401178330726
23.765112,4.618413281969647,0.12653534370239863
23.769712,4.6751320332518285,0.12583248164365862
23.7743,4.737535902096816,0.1250914541442327
23.7789,4.8039482043234605,0.12434914054372968
23.783488,4.872570071036466,0.1236226353765855
23.788076,4.936983276388152,0.12303089005005785
23.792672,5.0021737314733405,0.1224512518931722
23.797268,5.073005162672707,0.12179504974663938
23.801864,5.14755651637681,0.12107891409583185
23.80646,5.223373858671,0.1203399468526226
23.811048,5.30188950430813,0.1195743669282068
23.81564,5.373087489649935,0.11894708979012655
23.820224,5.437745064429911,0.11843623691432745
23.824808,5.497006032524001,0.11800718368118107
23.829396,5.554956870579377,0.11757003378800278
23.833992,5.611841948024332,0.11711209758076062
23.838584,5.66165373460225,0.1167437002303109
23.843176,5.710521945283893,0.11634630589111526
23.847768,5.75652552645982,0.11595170413179409
23.852348,5.803873139491346,0.11546082960998855
23.856944,5.844714243777937,0.11495222022848846
23.861532,5.883423826843684,0.11438312077755987
23.86612,5.916037596755559,0.11382787621147457
23.870716,5.941778303780059,0.11328906076217292
23.875304,5.96334425126013,0.11273004408732068
23.879908,5.979836004748124,0.1121531867219885
23.8845,5.991253564244039,0.11156329678580462
23.889092,5.991833768919551,0.1110454180099199
23.893692,5.986562529869482,0.11051157245055733
23.898284,5.972130620180161,0.11002959664900278
23.90288,5.951602897336968,0.10954576111458049
23.90746,5.930498152739936,0.10899285395892604
23.91206,5.909960190265005,0.10834406908792876
23.916648,5.88872302132209,0.10763276062312413
23.921248,5.865109961730038,0.10686917915568427
23.92584,5.833113481232237,0.10614659875945187
23.93044,5.802461032590039,0.10532330049467618
23.935024,5.761015370576066,0.10459951848725554
23.939616,5.710575364085615,0.1039585231704782
23.944208,5.657026358661155,0.1033087162409122
23.948804,5.602700103503194,0.10264808886241111
23.953392,5.544898295268788,0.10200379460425428
23.957988,5.484398183691435,0.1013760402642938
23.96258,5.420955399342849,0.10078096080081772
23.967172,5.355469376670676,0.10020921056889638
23.971764,5.294358341522596,0.09958994243458577
23.976348,5.233902371393873,0.09896727262728511
23.980936,5.173979281570361,0.0983530600924793
23.985532,5.115488506499707,0.09773511723509319
23.990124,5.063826652867799,0.09706495834417667
23.994712,5.016539786759985,0.09634881991658363
23.999312,4.967253823777211,0.0957159991615083
24.0039,4.919933055852508,0.09510382073092917
24.008492,4.874577482985874,0.09451389354285601
24.013084,4.831719985482519,0.09396668735520723
24.017672,4.799044777780212,0.0933631927730641
24.022276,4.767968210993536,0.09281402862667
24.026864,4.7492393570456395,0.09216895938491779
24.031476,4.745678703993611,0.0914011701866642
24.036068,4.747314429647806,0.09066715042770933
24.040672,4.7581108259412535,0.08991090782358661
24.045268,4.779089512035746,0.0891207884481333
24.049856,4.806652750140692,0.08832000861312876
24.054452,4.841455605275452,0.08752112150672613
24.059032,4.883620262154167,0.08672063936355748
24.063624,4.924929626033863,0.08598925517473875
24.068216,4.972046292190511,0.08525954563017411
24.072816,5.030611236738288,0.08447689828772743
24.077396,5.095638548582376,0.08371140155234559
24.082004,5.1668397168458515,0.08293840861177662
24.086596,5.237962841843812,0.08224384340438648
24.09118,5.321267353517775,0.08145904613191791
24.095776,5.411645156058776,0.0806689084189253
24.100372,5.506275761409724,0.07988482408088034
24.104964,5.602583050941822,0.07911166068959313
24.109556,5.700689209369218,0.07835858754347823
24.114148,5.803414724748997,0.07759399824693232
24.118744,5.906795305148132,0.0768652043029568
24.123336,6.004534909433089,0.0762081373650295
24.12792,6.100064949231686,0.07554766866744117
24.132512,6.19428485899157,0.07488981024110698
24.137104,6.284007596513215,0.07427159625516987
24.1417,6.377816810682034,0.07363010857694283
24.1463,6.471459698688078,0.07296409784753884
24.150892,6.5657135102648505,0.0722830012385407
24.155484,6.66621922152653,0.07154587675524522
24.160084,6.764148814159412,0.07082888075165361
24.164664,6.851529562848812,0.07015316450443719
24.169244,6.935024062870699,0.06947361536745701
24.17384,7.0105458375779035,0.06882976542562208
24.178416,7.086922905284127,0.06814871551284479
24.183004,7.151362955742637,0.0675314255489429
24.1876,7.203210923934075,0.06695911272343441
24.192184,7.252194262619797,0.06636882675419088
24.196788,7.301011275142746,0.0657522200682618
24.20138,7.3446760504081,0.06514672751979014
24.20598,7.380490285072913,0.06455501298707363
24.210568,7.4136842596603,0.06393199399568882
24.215168,7.4437692353136775,0.06329576547116564
24.219756,7.471155907624112,0.062667286481557
24.224352,7.491347104353365,0.06205676373735411
24.228936,7.504709379643872,0.061441034187868365
24.233536,7.508300060724397,0.06084231399997623
24.238128,7.508537373442622,0.06024095447245936
24.242724,7.497859288074928,0.05966263548489803
24.247312,7.478186858230754,0.05909939088387594
24.251904,7.453484375843133,0.05852429739363424
24.2565,7.427882459007862,0.05794493738367549
24.261092,7.398682804381999,0.05736778333346236
24.26568,7.3658854119655475,0.05678992447370653
24.270272,7.328346477882563,0.056226741586228
24.27486,7.285943817418902,0.05567894223730189
24.279436,7.242763907221739,0.05511714205829956
24.284032,7.1935764667679605,0.05458639642886696
24.288624,7.137604246324065,0.05408092464850607
24.293216,7.077912103375432,0.053578775002030746
24.297796,7.0159323526749215,0.05309557486915766
24.302388,6.946434713699419,0.05267296468345226
24.306972,6.875548901419685,0.05226915239955711
24.311556,6.805440338873454,0.051865569355410944
24.316152,6.735742471918288,0.05147990804442895
24.32074,6.668498538877774,0.051096610052416225
24.325344,6.598844813371234,0.050737716918314496
24.329936,6.5226948187515,0.050433461385025656
24.334532,6.449653823065772,0.05014740082252858
24.339132,6.380499076047555,0.049886676568589285
24.343724,6.313309524087409,0.049659214368579195
24.348328,6.2495955252037065,0.0494315779602253
24.352904,6.1842489835874845,0.04923989056615846
24.357504,6.120212572009974,0.049070236168427366
24.362092,6.05376636796644,0.048931488207542964
24.366692,5.997580496989469,0.04876702224370666
24.37128,5.947324113003596,0.048618224774368037
24.375876,5.900543282094169,0.048473046926823346
24.38046,5.857770884566398,0.04835333043178677
24.385052,5.814387563467899,0.04826617690461817
24.38964,5.774479795445846,0.04818461007668318
24.394236,5.7413568074139105,0.04807241263235387
24.398836,5.7117093724584205,0.04796583946446766
24.403432,5.680918133626992,0.04787178767048118
24.40802,5.650781959814921,0.04779155162425946
24.412612,5.622855350489209,0.04773950105540774
24.417204,5.6020020320305335,0.04769449704559011
24.421788,5.5879334935619775,0.04761970538023956
24.426368,5.5775848775981585,0.04753732741650706
24.43096,5.56159528552016,0.04746898157583563
24.435556,5.5435624551185745,0.04741556727125205
24.440132,5.520299344193876,0.04740708589788859
24.444724,5.499978906040412,0.04738332152309317
24.449316,5.482356771229892,0.047359548068533056
24.453892,5.469476178085902,0.04732025515898596
24.458488,5.446090882447058,0.04731897507019102
24.463076,5.416942425979889,0.047341471015807435
24.46768,5.385872915903281,0.047371520495028636
24.472272,5.3467084957978415,0.04740283888806023
24.476872,5.3074218909782545,0.047444712869815185
24.481476,5.266336417263373,0.04748695256158772
24.486072,5.217444544396581,0.04757107372029153
24.490668,5.158047969034933,0.04770308889970558
24.49526,5.095464351473759,0.04787444861724548
24.499852,5.03247003832152,0.048010041629707366
24.50444,4.965222922359333,0.048129781219480215
24.50904,4.887837658044728,0.04827389691440252
24.513616,4.805588667349448,0.04844655287723819
24.518216,4.717043635520633,0.04861883221383212
24.5228,4.629642407567755,0.04877521186857136
24.527396,4.536067323195489,0.04893391665984963
24.531976,4.440937739356219,0.04908651911805683
24.536568,4.344009286621653,0.04923667094798414
24.541168,4.239763173591759,0.049405827441515164
24.545764,4.1269334116764504,0.0496327979102149
24.550352,4.01614688808473,0.04985160399546476
24.554936,3.9086695914066807,0.05001242734098781
24.559524,3.7986161760998343,0.050164298758403794
24.564124,3.694203736907166,0.05029493762995434
24.568712,3.5892584174092867,0.05039649338876314
24.573304,3.4817369792826094,0.05048656132317841
24.5779,3.3754815297460183,0.05054527063113594
24.582484,3.2790757176849237,0.05051148371307565
24.58708,3.180460341137469,0.05043125249216116
24.591668,3.078657922390488,0.05040070529881122
24.59626,2.978410003110512,0.05039971596822802
24.600856,2.8820041910494187,0.050377715174578674
24.605444,2.784943313968968,0.05032525235359184
24.610052,2.686738633012578,0.0503086894632328
24.614644,2.5894333865038366,0.05028020128177187
24.619232,2.499690169718714,0.05018693934948227
24.623824,2.4139112448666205,0.05002725419619665
24.628424,2.32608908169094,0.049903332337583345
24.63302,2.241209591286494,0.0497324293392999
24.63762,2.164258684748105,0.04942632333174574
24.642212,2.091027700714453,0.04908133157104627
24.646792,2.011789186424186,0.048826438768479974
24.651396,1.9321841179914825,0.0486425553433809
24.655976,1.850657995949337,0.04846860956065839
24.660564,1.7710529275166327,0.04822387304830025
24.665156,1.6950455968745195,0.04794489899955329
24.66974,1.6195711465376177,0.047753101231797324
24.67432,1.5402545889818329,0.047556571649668346
24.678916,1.4653130189501418,0.045118581472273885
24.683512,1.3892276450425112,0.042659392454192244
24.688112,1.3135088252773177,0.04017886777039926
24.692704,1.240488308855068,0.03769473491324342
24.697288,1.1708211607951182,0.03522768009062556
24.701876,1.1046295658116143,0.03273247571720009
24.706464,1.0374163516663168,0.030258412891094436
24.711048,0.9729014408639629,0.027831818683220957
24.715632,0.9080199759191719,0.02545468057284238
24.720228,0.8422390765267331,0.023052219329921488
24.724808,0.77993373021074,0.020677734563066996
24.7294,0.7152185914287229,0.01838857034202818
24.733988,0.6502590832184143,0.01613100396614935
24.738576,0.59273942001758,0.01382495595278978
24.743172,0.539961298483276,0.011456838905864367
24.747752,0.49270196834900515,0.009091274833457313
24.752344,0.4448317146440059,0.006807732276161468
24.756928,0.39659490679656956,0.004569595819854566
24.761516,0.354243444491603,0.002256424588832312
24.76612,0.3121014564683169,0.0
24.770716,0.2726577717879743,0.0
24.775308,0.24428656505430826,0.0
24.7799,0.2193909113970879,0.0
24.7845,0.1966606807776003,0.0
24.789084,0.1748298846057605,0.0
24.793684,0.15516451147165342,0.0
24.798264,0.13509768904849842,0.0
24.802856,0.11388706274940423,0.0
24.80744,0.09549692450739926,0.0
24.812036,0.08262557766542707,0.0
24.81662,0.07065366527110269,0.0
24.821212,0.061624425648013244,0.0
24.825788,0.05451623963436517,0.0
24.830372,0.0474080536207171,0.0
24.83496,0.04119930205471688,0.0
24.839552,0.033968931326923135,0.0
24.844136,0.029803418084509956,0.0
24.84872,0.027681143165683826,0.0
24.853304,0.0244150643709185,0.0
24.857884,0.024415064370918504,0.0
24.862472,0.024415064370918504,0.0
24.867068,0.020005181700213988,0.0
24.871656,0.014573679867715943,0.0
24.87624,0.008775623892780887,0.0
24.880836,0.003999187079639354,0.0
24.88542,0.0,0.0
24.89002,0.0,0.0
24.894596,0.0,0.0
24.899196,0.0,0.0
24.903772,0.0,0.0
24.908372,0.0,0.0
24.912964,0.0,0.0
24.91756,0.0,0.0
24.922152,0.0,0.0
24.926744,0.0,0.0
24.931332,0.0,0.0
24.935924,0.0,0.0
24.940508,0.0,0.0
24.9451,0.0,0.0
24.949688,0.0,0.0
24.954284,0.0014230684508414698,0.0
24.95886,0.0014230684508414696,0.0
24.963452,0.0014230684508414696,0.0
24.968044,0.0014230684508414698,0.0
24.972628,0.0014230684508414698,0.0
24.977212,0.0014230684508414698,0.0
24.9818,0.0014230684508414698,0.0
24.986384,0.0014230684508414698,0.0
24.990984,0.0014230684508414698,0.0
24.995572,0.0014230684508414698,0.0
25.000164,0.0014230684508414698,0.0
25.004748,0.0014230684508414698,0.0
25.009336,0.0014230684508414698,0.0
25.013936,0.0014230684508414698,0.0
25.018516,0.0014230684508414698,0.0
25.023124,0.00142306845084147,0.0
25.0277,0.00142306845084147,0.0
25.0323,0.00142306845084147,0.0
25.036876,0.00142306845084147,0.0
25.041476,0.00142306845084147,0.0
25.04606,0.0,0.0
