Time,Force,Position
22.92578,0.07026517370863083,0.0
22.93038,0.06691180534633077,0.0
22.934972,0.0635584369840307,0.0
22.939564,0.05803964558399791,0.0
22.944156,0.05419753836511517,0.0
22.94874,0.05268718034673897,0.0
22.953332,0.05355271297749745,0.0
22.957928000000003,0.05806012484747548,0.0
22.96252,0.06326674318543819,0.0
22.967112,0.07685678242915105,0.0
22.971696,0.08820335536961367,0.0
22.976276,0.1004935042063523,0.0
22.980856000000003,0.11552609783466261,0.0
22.985452,0.13639193711560163,0.0
22.99004,0.1605331014933232,0.0
22.994636,0.18909339484376647,0.0
22.999224,0.2183528946621944,0.0
23.003812,0.24743036457391093,0.0
23.008416,0.2760632370776729,0.0
23.013008,0.30899305384001097,0.0
23.017608000000003,0.34826305318451206,0.009012961723248912
23.022204,0.3932181700918198,0.0173097970434428
23.026808000000003,0.4452126760492754,0.025558482163507368
23.0314,0.5107089383531875,0.033593960479364526
23.036,0.5800575475077211,0.041805080380263926
23.04058,0.6590216643412002,0.049871214911822274
23.045176,0.7452253982044905,0.057754716223243546
23.049764,0.8358482610405027,0.06555782162080864
23.054368,0.9329334911728233,0.07322047562941686
23.05896,1.0278974397160394,0.08104840941599437
23.063556,1.1318998741843624,0.08871390770763124
23.068152,1.241098687358909,0.09641043000857259
23.07274,1.3622786592297973,0.10383249884431456
23.07734,1.4873448797681967,0.11121078142473995
23.081936,1.6152757298123135,0.11860823110533769
23.086524,1.745826839933856,0.12599500500525682
23.091124,1.8851720665522138,0.13332438340790168
23.095716,2.0316347254862372,0.1406522685323792
23.100304,2.181372709517043,0.14804227021930172
23.104892,2.3277234233686595,0.15561875032087577
23.109492,2.4723635512222364,0.15431351335127716
23.114076,2.614760212772563,0.15376800299258236
23.118668,2.7569905481601156,0.15321510130043128
23.123264,2.8889503108493666,0.15290650718582643
23.127844,3.0202889103361503,0.15233519326388645
23.132436,3.1427892518774905,0.15193926923391898
23.137024,3.26197012687342,0.15157753850375671
23.141612,3.3744001236961214,0.1513259820050656
23.146204,3.479179807897946,0.1512316203075271
23.150792000000003,3.581417275287863,0.15096289054741674
23.1554,3.6749386694464814,0.15082199063613733
23.159988,3.764485532040333,0.15058184268485283
23.16458,3.8376321069651214,0.15071516218686612
23.169176,3.899486490029814,0.15095533857322085
23.173768000000003,3.9573663415297395,0.15109260938615723
23.17836,4.010616596445541,0.15113300078023317
23.182944,4.056905505576712,0.1511131075286063
23.18754,4.093412580866164,0.15109369838616704
23.192128,4.124879363980427,0.15093651084017062
23.196732,4.157069015747825,0.150465735739063
23.201320000000003,4.18548436393012,0.1497968972802308
23.20592,4.206693996899491,0.14908081667787912
23.210512,4.220864240818717,0.1483845184469023
23.215108,4.232780778802953,0.14762788981202363
23.219696,4.236391939146956,0.146942427707383
23.224288,4.240447696898913,0.1461376554609464
23.228884,4.232400111240383,0.1455750953309152
23.233484,4.2231204388086585,0.1449181568961139
23.238076,4.209666006832503,0.14425318976774634
23.242668,4.1935913147789226,0.14356487096413456
23.247256,4.172853124324328,0.14291967153851323
23.251848000000003,4.1461854468786346,0.14237961082433243
23.256436,4.124092984936699,0.1416426021139809
23.261028,4.102367077137201,0.1408572223781132
23.26562,4.0763883665277545,0.14014900843073777
23.270212,4.040926572585247,0.1397135490624938
23.274804,4.001744856138002,0.139367263652958
23.279396,3.9651392583195553,0.13896181489187406
23.283988,3.923669934120432,0.13870365804494125
23.288576,3.8792579371500735,0.1385193765125777
23.293164,3.8343572013231326,0.138379321177467
23.29776,3.789867161087257,0.1382750579714476
23.302348,3.746565066175948,0.138190957203649
23.306956,3.7098475232750943,0.1379893255729878
23.311552,3.6753836863092295,0.13785660185915147
23.31614,3.6410861755061386,0.1377748571421494
23.320736,3.6159493353423002,0.13754731670416004
23.325324,3.592288951379948,0.13739196720059696
23.329928,3.574602195857323,0.13720654685655528
23.334524,3.5667311759933056,0.1368814065198844
23.339116,3.565733219016663,0.13651049109768035
23.3437,3.572752128803333,0.13604787062901227
23.3483,3.581003125363199,0.1356933267792951
23.352888,3.5981704231340252,0.13523638237560123
23.357488,3.6235989570964566,0.13467874786106018
23.36208,3.662152453631169,0.1338666463304695
23.366676,3.700916417777283,0.1331783480782537
23.371268,3.744343880324409,0.13247835802327873
23.375856,3.7939893407395537,0.13171812336272934
23.380444,3.847931745413275,0.13098045716382942
23.385036,3.9052716598979234,0.13027288978263943
23.389628,3.9720166144501157,0.12943572359565203
23.39422,4.0426478176698195,0.12858736353907496
23.398808,4.108703805385765,0.12793544370098145
23.403396,4.182854703130542,0.12714300870681836
23.407984,4.25921516536168,0.12636675570335495
23.41258,4.336230692612175,0.125621335035258
23.417172,4.418642826548557,0.1248009173317082
23.421764,4.502198764360878,0.12396336280427209
23.426360000000003,4.575616553820781,0.12335085401521496
23.430948,4.648912158566539,0.1227657115027497
23.435536,4.721674883007085,0.12218804323716594
23.440124,4.79427128128486,0.12156772933695026
23.444704,4.863636495914477,0.12100102076346089
23.449316,4.926461299982269,0.12056923176408088
23.453904,4.986832170135409,0.12018186611276992
23.458492,5.052144809934743,0.11962868435236376
23.463088,5.1112835933146865,0.11916705161626999
23.467676,5.173198723303091,0.11861458107119631
23.472272,5.228284931852751,0.11813300206018018
23.476852,5.280750880324986,0.11762615127603902
23.481448,5.324056158157966,0.11721112313213812
23.486036,5.3649855453418125,0.11675919971784961
23.490628,5.4063595299336145,0.11621349946616705
23.49522,5.4394722783338105,0.11574029050287625
23.499824,5.468943147494787,0.11526357057567649
23.504416,5.494117072397189,0.11477500450144973
23.509012,5.51229574969807,0.11431168238594015
23.513604,5.525033678864436,0.11386313206132083
23.5182,5.539770704905761,0.11331802551201171
23.522796,5.545957983878562,0.11278877289933478
23.527384,5.5474817644503505,0.11227208414391089
23.531984,5.545241481068774,0.11175354537864299
23.53658,5.536661015105034,0.11125397157330162
23.541168,5.526848462368099,0.1106726922870916
23.545764,5.510040662029644,0.11010100619745784
23.550352,5.486526124966587,0.10957286500218558
23.55494,5.460391327826105,0.10900733254721622
23.559528,5.425873109779873,0.10849327327527064
23.564124,5.3935983580368925,0.10786115884176045
23.568716,5.360380030397635,0.10717834177977127
23.573308,5.325851572719663,0.10647049612197342
23.577904,5.28412763946051,0.1058336406799022
23.582484,5.239050337839058,0.10520888213144826
23.587076,5.191519102302951,0.10458640648381473
23.591664,5.136792391185662,0.10403756632263715
23.596244,5.081166245620726,0.1034882804960477
23.600848,5.02439629617985,0.10295792263193729
23.605428,4.968403596472477,0.10241738685297475
23.61002,4.910734212583954,0.10187445733289917
23.614624,4.860260304276613,0.10123949977474868
23.619212,4.809664211255128,0.10060429673840342
23.623816,4.758457194662913,0.10001046793246793
23.628396,4.7112586114523545,0.09939886756615059
23.632992,4.664104169690425,0.09883847388228821
23.63758,4.618670553558273,0.09832155915490665
23.64218,4.573647633017187,0.09782733407635831
23.646772,4.5352092644865545,0.09729967064148701
23.65136,4.5041326976998795,0.0967411548072589
23.655956,4.473633152667043,0.09626046796477873
23.660552000000003,4.44665330215928,0.0958108007472574
23.665144,4.426258003661973,0.09533634725779572
23.66974,4.415800625537418,0.09482366778756311
23.67434,4.41360448360447,0.09428545205381507
23.678936,4.418770143415478,0.09372963645075866
23.683536,4.441680122751151,0.09302780571410532
23.688132,4.468109796611897,0.09236450781931875
23.69272,4.496260296102422,0.09175237880566284
23.697308,4.53075097817511,0.09115186331968265
23.701904,4.574035776744615,0.09056315033950878
23.706488,4.621984073715132,0.09000822137523597
23.711076,4.676516922696103,0.08945266295500083
23.715672,4.741842985048848,0.08882285756745699
23.720264,4.815141772716279,0.08816259343733161
23.724856000000003,4.897190535431896,0.08746550563484161
23.729456,4.988233642623992,0.08671490205807914
23.734044,5.089825593759572,0.08592107613358525
23.73864,5.195015282685743,0.0851344389868863
23.743228,5.298039548574182,0.08440551445994182
23.74782,5.406582605862652,0.08364548530464382
23.752416,5.5159029128846235,0.08290731951491
23.756992,5.626122654354245,0.08219206781643171
23.761596,5.7359317002328,0.08147304073575418
23.766196,5.839322520263675,0.08081513605095429
23.770784,5.94410151359878,0.08014352505230525
23.775384000000003,6.0380872935621115,0.07955982227485545
23.779976,6.133583431543819,0.0789413780488159
23.784572,6.231611546705696,0.07826903486312475
23.789160000000003,6.323954544304766,0.07760278992400448
23.79376,6.408569186017442,0.07696751277001673
23.798348,6.486887786596585,0.07637804689649078
23.802948,6.558255281022835,0.07581754903811097
23.80754,6.618829562077312,0.07532071621961386
23.812132,6.669632248921807,0.07487389145853544
23.816724,6.713728199041702,0.07444050426448784
23.82132,6.747153120503969,0.07405158783048205
23.825916,6.7719502516321946,0.0736868004507098
23.830512,6.785954169388646,0.07336797739141095
23.8351,6.798892326534674,0.07301684970546804
23.839692,6.8069226158514,0.07266352513145262
23.844284,6.808368353157671,0.0723039295302532
23.848876,6.801841365149255,0.07196812249243273
23.853468,6.785420598216715,0.07166678195788634
23.858056,6.769610754854902,0.07133031075242337
23.862636,6.7455838167501145,0.07102848296435399
23.867228,6.722045617501908,0.07069751332953618
23.87182,6.694376800157899,0.07035995136621072
23.8764,6.666175102508679,0.07000427565224011
23.880996,6.636418905392455,0.06963763131218634
23.885584,6.607518001275252,0.06922130642080367
23.890176,6.578328586281128,0.06877228482719519
23.894764,6.550527344591235,0.06829071072519576
23.899352,6.5248915259390765,0.0677803183360885
23.90396,6.4945141656203855,0.06729035800414628
23.908552,6.459639633063454,0.06680849630525033
23.91314,6.4287293924395525,0.06629201981894235
23.917736,6.396020282920356,0.06577616626183432
23.922324,6.367153280620041,0.06523165693533814
23.926928,6.336365224710285,0.06469554977076795
23.93152,6.3016128768675,0.06418520557629796
23.936112,6.270991147120518,0.06368065776892912
23.940692,6.242168286268832,0.06316652100364628
23.945292,6.221440335445977,0.06262798591510582
23.94988,6.201489634356624,0.06209247404462934
23.95448,6.185913920791364,0.061550765222093066
23.959072,6.16960509894123,0.06104930352283229
23.963668,6.155628026291603,0.06056151597473098
23.96826,6.1402627803377445,0.060103680515735586
23.972852,6.13209300996507,0.059632068496865615
23.97746,6.124866815488669,0.05920540624001804
23.982056,6.118828566336838,0.0588099425888037
23.986644,6.115899316119014,0.05843688487653745
23.991244,6.117345053425284,0.05806534102565634
23.995832,6.132771046302856,0.05764686608164496
24.000428,6.157069198942759,0.05722337096915539
24.00502,6.182799666335522,0.05682113353240433
24.009604,6.2116391326622935,0.05644098706461358
24.014192,6.245753020960805,0.05606541779207957
24.018784,6.284119712069266,0.0557006888701707
24.02338,6.328782444311262,0.05532955969392438
24.027964,6.376387849324492,0.05494818358468757
24.03256,6.430167110757112,0.05457101787660985
24.037148,6.485623056370881,0.054205093993964726
24.041732,6.541611882289861,0.05386144479949269
24.046316,6.596579089047049,0.053527513121406564
24.0509,6.65730945663256,0.05317318062152671
24.055488,6.7194721389709295,0.052840642779342424
24.06008,6.782412071042802,0.05251622123127708
24.064672,6.842042776201003,0.05223222619871263
24.069264,6.900774046911555,0.051950547244268744
24.073856,6.961426371231548,0.05166480960011164
24.078456000000003,7.017459338599157,0.051390609877515175
24.083048,7.069528014033738,0.05114159570861441
24.087648,7.110192552525815,0.050933164709734934
24.092224,7.142395626846626,0.05074862908950498
24.096828,7.169979344215051,0.05057300445167004
24.101416,7.194986942954678,0.05039254069935592
24.106016,7.211655262237183,0.05022889479363422
24.110612,7.218840498186627,0.050092556748138076
24.115208000000003,7.220629127450184,0.049958588340367954
24.119788,7.21011418532359,0.04985861255352222
24.124376,7.189705464272871,0.04976125213133918
24.12898,7.162223452355114,0.049658800743866215
24.13358,7.130244268199118,0.049556598741601364
24.138172,7.0938900965190275,0.04944772227280054
24.142772,7.046376157324727,0.04935828080014355
24.14736,6.989212808634591,0.04925657104493562
24.151948,6.924076734629769,0.04914718477550866
24.156536000000003,6.847248012805525,0.04903811201411134
24.16112,6.760403327343011,0.048934541890164475
24.165716,6.6597005710233415,0.04885047856171446
24.170308,6.551557969694196,0.04877972126808733
24.174904,6.432377785564986,0.04872339081027264
24.179492,6.3088226139116825,0.048658315278260436
24.184084,6.179748650858347,0.04860183620801799
24.188672,6.044256461957329,0.04855140059836882
24.19326,5.902468231922778,0.048497568275574124
24.197856,5.755161210488194,0.048449481209643895
24.202444,5.60642187430075,0.048378277623691165
24.207052,5.453840430894425,0.048318704854075474
24.211648,5.30240279136404,0.04824030739238227
24.216236,5.1449576215770385,0.04820860558009651
24.220832,4.981504921533421,0.048222004808805445
24.22542,4.812411245375624,0.04825777438603025
24.230016,4.6402527117324475,0.04832344564359953
24.234604,4.468460732231708,0.04834862695595316
24.2392,4.296180013874386,0.04842009134886402
24.243792,4.126231044717568,0.048523902363761875
24.248392000000003,3.959635443923053,0.048666437606253034
24.25298,3.8012569378715138,0.04879410138546033
24.257584,3.647497788772359,0.04892081415052159
24.262176,3.496436943016148,0.049065775235144694
24.266772,3.3526937575552656,0.049207165897685354
24.27136,3.211404506009036,0.049385785214919826
24.275952,3.0756340458628384,0.049561979999524754
24.280544,2.9470590612978236,0.049741047080593216
24.285136,2.823636313990405,0.04995739171776502
24.289724,2.7065096078165207,0.050180006226527546
24.294324,2.593635704452585,0.05044663573792634
24.298912,2.4843595388792403,0.05072178335912401
24.3035,2.381379414439431,0.0509856305704192
24.308092,2.28878180778033,0.05119142356608174
24.312684,2.2018251772354076,0.05138111050154003
24.317268,2.1250066950429036,0.051525284815749535
24.32186,2.0529297545169296,0.051632261966287396
24.326452,1.9860050512485516,0.05175407612562822
24.331044,1.9240662590749955,0.05179204949294228
24.335636,1.8631490860632334,0.05181732076897223
24.340228,1.8052967705368514,0.05177938564908362
24.344816,1.7445017822392344,0.051797104314693525
24.349424,1.6873045317322086,0.05181455001910955
24.354016,1.6367698765011551,0.05173577838286962
24.358612,1.5871346557177497,0.05165536857978456
24.3632,1.5403199229914333,0.051549630020682836
24.367788,1.4945268094269106,0.05140111072816594
24.372384,1.446035392519444,0.05125336973325363
24.376972,1.3967667258784753,0.0510814432263937
24.381568,1.3446775711804175,0.0484478919542662
24.386148,1.2956532739677404,0.04578031539148618
24.390748,1.2448301078597672,0.0431041590655075
24.39534,1.191308638408851,0.040450441895424356
24.39994,1.1370099192244323,0.037819584668909834
24.404528,1.0836106344876613,0.03517821043265636
24.409124,1.024814743065003,0.03256597593496392
24.413716,0.9687171549852887,0.029973598330659806
24.418312,0.9076336558107524,0.027406461233372415
24.4229,0.8470830369414266,0.02488996525846732
24.427492,0.7864102333579553,0.022367510880005135
24.432088,0.7284357331174277,0.019869731127746076
24.436684,0.6713606673245479,0.017331375015968885
24.441275999999995,0.6132639823698748,0.014786766752480852
24.445868,0.5550451127010557,0.01231208930374688
24.450456,0.49772567747988467,0.00983387321076852
24.455048,0.4432267303158027,0.0073517710686144
24.459627999999995,0.39105953235222735,0.004905532012756681
24.46422,0.3444111257886847,0.0024548621810777703
24.468812,0.30058320728223137,0.0
24.473392,0.26509456823289995,0.0
24.477988,0.22833994059348364,0.0
24.482575999999995,0.19518305074465883,0.0
24.487164,0.1650311731886488,0.0
24.491747999999998,0.13643379509964312,0.0
24.496336,0.110534720353581,0.0
24.500924,0.08901063313161246,0.0
24.505516,0.06736436119549827,0.0
24.510112,0.05148125008770818,0.0
24.514712,0.037519192589359464,0.0
24.519312,0.027277057595747833,0.0
24.523903999999995,0.017812172335638386,0.0
24.528492,0.012067209580266011,0.0
24.533088,0.010042169329630713,0.0
24.537668,0.007894944364849745,0.0
24.542264,0.007546588295364479,0.0
24.546856,0.007076047511733542,0.0
24.551455999999995,0.006849876156393947,0.0
24.55604,0.005602085639260828,0.0
24.560632,0.005131544855629891,0.0
24.56524,0.001840516014909727,0.0
24.569832,0.0004705407836309378,0.0
24.57442,0.0,0.0
24.579012,0.0,0.0
24.5836,0.0,0.0
24.588192,0.0,0.0
24.592772,0.0,0.0
24.597372,0.0,0.0
24.601955999999998,0.0,0.0
24.606539999999995,0.0,0.0
24.611132,0.0,0.0
24.61572,0.0,0.0
24.620312,0.0,0.0
24.624904,0.0,0.0
24.629496,0.0,0.0
24.634091999999995,0.0,0.0
24.63868,0.0,0.0
24.643288,0.0,0.0
24.647876,0.0,0.0
24.652463999999995,0.0,0.0
24.657059999999998,0.0,0.0
24.661652,0.0,0.0
24.666256,0.0,0.0
24.670848,0.0,0.0
24.675448,0.0,0.0
24.680028,0.0,0.0
24.684628,0.0,0.0
24.689215999999995,0.0,0.0
24.693819999999995,0.0,0.0
24.698408,0.0,0.0
24.703008,0.0,0.0
24.707592,0.0,0.0
24.712184,0.0,0.0
24.716772,0.0,0.0
24.721368,0.0,0.0
24.725956,0.0,0.0
24.730552,0.00047054078363093773,0.0
24.735139999999998,0.0004705407836309377,0.0
24.739723999999995,0.0004705407836309377,0.0
24.744312,0.00047054078363093773,0.0
24.748912,0.00047054078363093773,0.0
24.753499999999995,0.00047054078363093773,0.0
24.758095999999995,0.00047054078363093773,0.0
24.76268,0.00047054078363093773,0.0
24.767267999999994,0.00047054078363093773,0.0
24.77186,0.00047054078363093773,0.0
24.77644,0.00047054078363093773,0.0
