Time,Force,Position
24.538452000000007,1.0767619776337642,0.02244573847805286
24.543043999999995,1.00329686380356,0.02044522817631791
24.547632000000007,0.9307311844210037,0.018461385709421994
24.552236000000008,0.8576767661818645,0.016539823245686456
24.55682400000001,0.787320651285669,0.014639741528013124
24.56142,0.7280021191895389,0.01278899269204066
24.566000000000003,0.6674175985033239,0.010988177898606746
24.570592000000005,0.6063443389605264,0.009291126354650799
24.575184000000007,0.5529552938554942,0.007590495985939568
24.579768,0.49919969460802527,0.0059754800810410446
24.584364000000008,0.44699859482756055,0.004443391391809625
24.588948,0.4054243822560961,0.002892518817577554
24.593548,0.3692467763705189,0.0014327864505766558
24.598136,0.33948739633262226,0.0
24.60274,0.31091596161929297,0.0
24.607332,0.2865973297159116,0.0
24.611932,0.2707843034324261,0.0
24.616528,0.2658086319693429,0.0
24.621123999999995,0.2650077200506902,0.0
24.625716,0.26850375239061347,0.0
24.630312000000004,0.27965009735141294,0.0
24.6349,0.30596464320808014,0.004613335334273387
24.6395,0.3373533830568256,0.009576043483022765
24.644088,0.37393850161179504,0.014904869761907441
24.648675999999995,0.4126551413876078,0.02067863857319215
24.653268,0.44504183821299614,0.02722901560476385
24.657852000000005,0.485323217087552,0.03390362150916566
24.662436,0.5317004091159796,0.04063518734545377
24.66703200000001,0.5772664495940159,0.047724357111678564
24.671616,0.6288061185117781,0.054881172620683004
24.676208000000003,0.6843983622598251,0.062281511469069004
24.680803999999995,0.741877757800424,0.06976528530698652
24.685392000000007,0.7956033290193965,0.07780948833452822
24.689988,0.857189680470647,0.08590238259918591
24.694572000000008,0.9347317221830065,0.09366269135197272
24.699164,1.0219334130229396,0.10146975193016902
24.703772,1.1109442123899071,0.10947485013645458
24.708355999999995,1.2065837052159574,0.11733106176548698
24.712952,1.3047212734052882,0.12525499894213105
24.717544000000004,1.4013926250248707,0.13340582301682752
24.722144,1.4965977600747051,0.14169050544568362
24.726748,1.5880490708029134,0.1455075759983732
24.731336,1.6879279438854997,0.14884319838704652
24.735932000000005,1.7921037612266622,0.15183395292152582
24.740511999999995,1.903641380311781,0.15429715165148736
24.74511200000001,2.0293255811309745,0.15576996750270825
24.74970400000001,2.1581187808841764,0.15706883960670456
24.754304000000005,2.2907982293048894,0.15823824176375467
24.758888,2.4340265216690855,0.15887114519312212
24.763487999999995,2.579220009091351,0.15945374453910346
24.76808,2.733041286847658,0.15967176478412304
24.772676000000004,2.8932807904516453,0.1596690176000331
24.777272,3.062226127655192,0.15902628787174924
24.781868000000003,3.2249432273589838,0.15823938102242777
24.786456,3.3687958658473196,0.15777574520050167
24.791052000000008,3.501756768434886,0.15721043771923068
24.795644,3.6284452920740686,0.15635012660111774
24.800236,3.742731721794106,0.15557829230940143
24.804828,3.852222228767245,0.15464660147069728
24.809416,3.959859485764721,0.1533966676658664
24.814004,4.061923570281799,0.151967935250646
24.818600000000004,4.155960548403824,0.15038884437727248
24.82319200000001,4.234364248958548,0.1489256426801199
24.827788,4.306784081441808,0.1473176772589849
24.832372000000007,4.370277373082369,0.1456863068012441
24.836963999999995,4.419491658642971,0.14424279285893638
24.841556,4.461622413704797,0.1427716926575977
24.846143999999995,4.494748584658405,0.14132408092853568
24.850736,4.512451945656116,0.14005589449563285
24.855332000000004,4.522416711135693,0.1387248412833868
24.85992,4.517980285821166,0.13751461074626528
24.864512000000005,4.498287376713517,0.13649659679924583
24.869108,4.4743755666128076,0.13541928395438954
24.873695999999995,4.448664887616801,0.13437624434891154
24.878292,4.426063207554805,0.13329796225229193
24.88287200000001,4.4078365150169025,0.13214234337525713
24.887468,4.3859340414228924,0.13112262683079867
24.892056,4.3647307742968655,0.1301671577957499
24.896656000000007,4.34267221417182,0.12929164770526702
24.901247999999995,4.321801599371341,0.12843976023917617
24.90584,4.301996745181284,0.12762081864386568
24.910432,4.2912303769163325,0.12670443685044555
24.915028000000007,4.287625582415675,0.12579528566726073
24.919619999999995,4.286030124421718,0.12497816301726158
24.924216,4.286199633506163,0.12427275019339991
24.928812000000008,4.2901773479926035,0.12362131486454417
24.93340000000001,4.29730820286168,0.12302469947466595
24.937988000000004,4.3057933292180985,0.12250745884774464
24.942584,4.317964476262365,0.12205314639799053
24.947171999999995,4.336764316765712,0.12160450258726231
24.951760000000007,4.36423608905173,0.12110729077115334
24.956344,4.400379793120419,0.12055246360249788
24.960940000000008,4.431992423133977,0.12022015077231922
24.965532,4.465492204940088,0.11998952741893974
24.970128000000003,4.5029223768623385,0.11980919817677062
24.974712,4.53864196278655,0.11979301379144319
24.979299999999995,4.583400034635867,0.11969705797529351
24.983896,4.63192217043855,0.11959579951550263
24.98848,4.686007239089894,0.11946813478684494
24.993068000000008,4.7464324903234,0.1193267132276088
24.997664,4.8125428591197155,0.11915407516774489
25.002244000000005,4.880085542668887,0.11901361628381395
25.006836000000007,4.948283291237416,0.11888323626122828
25.011432,5.016647365968719,0.11880271075885353
25.01602,5.086565940167025,0.11871739670390605
25.020616000000004,5.157506133527125,0.11860681122965079
25.025196000000008,5.230245195782522,0.11848240082475688
25.029792,5.30964685331389,0.1182567030413128
25.034375999999995,5.396322029691958,0.11788399902063904
25.038976000000005,5.478866587974224,0.11754983481460048
25.04356,5.55499292040881,0.11730533609830789
25.048152,5.6291540577853265,0.11704498461580856
25.05274800000001,5.70813478009389,0.11664890174324033
25.057344,5.7885817189722015,0.11615386359506169
25.061927999999995,5.866408397773088,0.11563678858344983
25.066524,5.945334739001285,0.11504706000585514
25.071120000000008,6.018942516809113,0.114475608512611
25.075716,6.091851088148956,0.11385914815414153
25.080296000000004,6.155843358277838,0.11329181369248856
25.084892,6.207199404691021,0.11282516559399808
25.089484,6.2524596379503325,0.11237205117354568
25.094083999999995,6.28778195083689,0.11198424673626753
25.098672000000008,6.322238731092689,0.11151055450565377
25.103268,6.352354425641285,0.11097431083496229
25.10786,6.377762480340238,0.11040018931239894
25.112452000000005,6.401938448265997,0.10976224511999645
25.117044000000007,6.41449981163785,0.1091856498102137
25.121635999999995,6.413525516846358,0.10869815695019404
25.126228,6.400570063358524,0.10829623561892739
25.13081200000001,6.38511653450741,0.10785608241563521
25.135392,6.370474157206686,0.10731062281669913
25.140004000000005,6.351657020361533,0.10673512635717393
25.144592000000003,6.326255331505926,0.10618686391784617
25.149184000000005,6.29157078729692,0.10568789669268919
25.153772000000004,6.2514454949533995,0.10518740210046254
25.15836,6.204980020027715,0.10469240674007681
25.16295600000001,6.154628296434522,0.10419248946133643
25.167548,6.096426032240786,0.10374519732302073
25.172144000000003,6.03883469161778,0.10325021811089391
25.176732,5.9817320898513575,0.10271559076402798
25.181332,5.922297738884429,0.10217204641453427
25.185912,5.861064519022201,0.10163830216743976
25.190512,5.7928021497415685,0.1012041685567427
25.195108000000005,5.72687152966144,0.10075773882424778
25.199708,5.661473789886523,0.10031839662101376
25.204304000000008,5.592111758178578,0.09992695691618794
25.2089,5.529167952318313,0.0994618935912446
25.213488,5.471376383715645,0.09895735584158417
25.218076,5.418081987351213,0.09840187829241141
25.222672000000003,5.366997155473145,0.09784792049601179
25.22726,5.316855899491353,0.09732998080726062
25.231852000000003,5.270112153320487,0.09684333292960703
25.23644,5.22455635247419,0.09637836266859617
25.24102000000001,5.185340734210056,0.09590529336713219
25.24561200000001,5.153486917689879,0.09540833059736765
25.250204,5.1259300454282775,0.09493911153460757
25.254796,5.103691736587045,0.09448248633195074
25.259392000000005,5.092657336708653,0.093958347877128
25.263971999999995,5.091560857203015,0.09340800207398463
25.268568,5.096438006137102,0.09288426123509762
25.273160000000004,5.1053677299014755,0.09241172851092833
25.277752000000007,5.123580309019246,0.09190157844781997
25.282348,5.150054124328622,0.09136802557501257
25.286936,5.180169818877218,0.09086826222748921
25.291532000000004,5.21482682711268,0.09039042274418907
25.296116,5.255046768196802,0.08991586037072653
25.300704,5.30160689186309,0.08945711057540773
25.305312,5.3536077636638915,0.08901470159004693
25.309904000000003,5.409006145275621,0.08862191224475659
25.314499999999995,5.465470287497771,0.08827129544100394
25.319084000000004,5.528885535872814,0.08789843834310511
25.323684,5.593733099000716,0.08754193564889445
25.328276,5.66553176828151,0.0871578182161867
25.332876,5.741827609800541,0.08675415531498513
25.337468,5.81992232021487,0.08635434318307234
25.342064000000008,5.8987942803627,0.08595965390668268
25.346656,5.981386163015268,0.08554557932831709
25.351256000000006,6.05989156902066,0.08519746089014175
25.355847999999995,6.131079314730725,0.0849126893009587
25.36044,6.204799037620958,0.08457968262036847
25.365027999999995,6.281827987424865,0.08419970026221621
25.369624,6.35885693722877,0.08383159373046045
25.374224,6.433676322546316,0.0834551216395279
25.378820000000005,6.503343470606266,0.08309889493015139
25.383408000000003,6.573743726951089,0.08270931438274318
25.387996,6.645532156600144,0.08229548056030075
25.392588000000003,6.709592230362805,0.08190928149088703
25.397176,6.774874151266922,0.08146619314863061
25.401764,6.8363920082176755,0.08100732303159296
25.406360000000006,6.901585646224536,0.08049045669049999
25.410951999999995,6.954065017250182,0.08004440284763287
25.415540000000007,7.006866800969635,0.07954343003154946
25.420144000000008,7.0509186096409024,0.07907397288857959
25.42473200000001,7.089163116035217,0.0786137028835865
25.42932400000001,7.122133200457791,0.0781759674023991
25.433912000000007,7.1522386553746475,0.07771601442408935
25.438500000000005,7.174737939119256,0.07726863825625736
25.443096,7.195882951376523,0.07676381715969066
25.447680000000005,7.214818399147429,0.07624298238317022
25.45228400000001,7.225003871870147,0.07574757980775919
25.45688,7.227460988706472,0.07526661264083577
25.46146,7.221779054065338,0.07477598678631582
25.46606,7.217729662156727,0.07424586644360016
25.470640000000003,7.213391759371196,0.07368551204065943
25.475235999999995,7.202102750432774,0.07313869096123043
25.479828,7.185783688950901,0.07259274401146561
25.484432,7.170075551039757,0.07201210231874157
25.489016000000007,7.143085460900255,0.07149080108579015
25.493616000000003,7.116584109617337,0.07094151108395823
25.498208000000005,7.081865663591442,0.07042267581087805
25.502800000000008,7.054298551698101,0.06983595714894762
25.507396,7.021501159281647,0.06929849601447573
25.511988,6.993689677960015,0.0687192170020781
25.516576,6.963834958314797,0.06815405500751068
25.521168000000003,6.932303554488429,0.06758395767870044
25.525768,6.907312561223886,0.06698378179571064
25.53036400000001,6.883221002406992,0.06637656649080578
25.534952000000004,6.8583963353052235,0.0658045343943288
25.539536,6.837291590708192,0.06521478344624361
25.544124,6.821461268082903,0.06461461838911058
25.548724000000007,6.810905367429354,0.06400614523490955
25.553308,6.8042357154433155,0.06341523194179761
25.557896,6.792213598220018,0.06287846901068343
25.562488,6.781745980463726,0.06234899686502254
25.567076,6.774265176927297,0.061840973558457364
25.571672000000007,6.765396200086637,0.06135726724037715
25.576260000000005,6.75951403746584,0.06089821676747191
25.580848000000003,6.762626219321521,0.060419261307945046
25.58544000000001,6.770646269006508,0.05995921933221031
25.59002,6.783574186520798,0.05951432891114716
25.594624,6.7960133651785055,0.059097808127217114
25.599220000000003,6.813971335236246,0.058666852340003225
25.603808,6.8332394353326995,0.058262250285089225
25.608404000000007,6.859825195724482,0.05784323693640002
25.613,6.89156319337386,0.05743043808765012
25.61759600000001,6.91819309521427,0.05706065143303035
25.622184000000004,6.951651918493426,0.05670384019288948
25.626784,6.990385163744325,0.05635003747277354
25.631364000000005,7.031572342909874,0.0560106597717264
25.635964,7.075213455990077,0.055684976890656906
25.640547999999995,7.117710765194339,0.05537594390264961
25.64514800000001,7.164949616065132,0.05505522311489663
25.649732,7.218973246926043,0.054708082130830504
25.654328000000007,7.27532862698746,0.05437986912467738
25.658924,7.33384943008661,0.05403606226085499
25.663512,7.397766839871648,0.05368974006037739
25.668116,7.4625836841043345,0.053347324149132104
25.67271600000001,7.526623278603517,0.05300609047372123
25.677308,7.582079224217288,0.052695060034809504
25.6819,7.636102855078199,0.05237139386544465
25.686488,7.689104866777315,0.052056671148175124
25.691075999999995,7.7421068784764335,0.05174706842367765
25.695664000000008,7.791755521813251,0.05143162384433675
25.700256,7.836784808197683,0.05112863966407333
25.704852,7.8744964342867885,0.05083467097188691
25.709444000000005,7.909387572318802,0.05054721202573295
25.71404,7.93888210366493,0.050265037973080184
25.718627999999995,7.960281724982227,0.04998691636652591
25.72322,7.971421013232961,0.04972784103482539
25.727808,7.977285879511954,0.049465920522221714
25.7324,7.978653573552706,0.04920443739385731
25.736992,7.969883119241041,0.04895566447717868
25.741584000000003,7.950607962434521,0.04873464497579592
25.746192000000008,7.923237895599171,0.04851359968629724
25.750784,7.889205233487849,0.048307982663271826
25.755388,7.847854911081198,0.04810713943834224
25.75998,7.799309113093364,0.047904882596985505
25.764572,7.7430791006677655,0.04772249627953779
25.769168000000008,7.685416773489307,0.04752058478562819
25.77376,7.6218691007683805,0.04733791060580834
25.778356,7.550881583037979,0.0471633825592514
25.782944,7.466035994450423,0.0470012009000984
25.787544,7.374527810586895,0.0468504328624773
25.792136,7.274558162552098,0.04671196517165001
25.79674,7.1748328839455935,0.04655608809442052
25.801328,7.069588813939055,0.04640137381274179
25.805927999999994,6.952163357256515,0.046265624451913505
25.810516000000007,6.829096924459795,0.04613583124790719
25.815107999999995,6.708195914700806,0.0459807373078991
25.819692000000003,6.5805101249517,0.045844476017129834
25.824288,6.4479606088219175,0.045722150333866056
25.828876000000008,6.313245669654402,0.04561500215142432
25.833472,6.176609676877447,0.04551197845358096
25.83806,6.0411174879764316,0.045385681299456325
25.842648,5.905625299075416,0.045253118022240024
25.847235999999995,5.766413187669663,0.0451198067509518
25.851816,5.625402207368613,0.04497376740262653
25.856416,5.483491792619915,0.04482200023525738
25.861016000000006,5.340437573995279,0.044676171863454496
25.865607999999995,5.194562867313553,0.04453221559097352
25.870196000000007,5.0504870295271225,0.044383399240439894
25.874800000000008,4.910786179264786,0.04424065096943516
25.87938800000001,4.769697155698219,0.044130862138800755
25.883980000000008,4.630284816312803,0.044027939383927475
25.888568000000006,4.490383738070803,0.04395391469349673
25.893156000000005,4.3542025823335395,0.04386457960336633
25.897752,4.22582782574819,0.04371955806503485
25.902339999999995,4.101828056686931,0.04358434367918633
25.90694000000001,3.975418495159649,0.04349112383588772
25.91153200000001,3.8499083680800146,0.0433964334509923
25.916124,3.729139782666912,0.0432761611549843
25.920720000000003,3.614134358082133,0.043116817872095856
25.925312000000005,3.5037482904497375,0.04294515443588102
25.929908,3.3909524303513194,0.042820042931605504
25.934496,3.2740700936057268,0.04274005816258384
25.939096000000006,3.159886060203078,0.042653192275382855
25.943684000000005,3.044436038210344,0.042590984693119734
25.948288000000005,2.9309070698270516,0.04250008157763208
25.952876000000003,2.821098023948496,0.04238471825244414
25.957476,2.7168077694699733,0.04225813210983078
25.962064,2.613416949439098,0.042118805112566916
25.966656,2.5120693677318107,0.04192959215423932
25.971252000000007,2.418528185176435,0.04166059891118226
25.975848,2.328706925125795,0.041370490533681234
25.98044,2.2409289033987423,0.041028106770709796
25.985036000000008,2.154705381138694,0.040712100787179815
25.989628,2.0696698042032136,0.040480313475201396
25.994228000000007,1.9848785966960243,0.04017583871021942
25.998816000000005,1.904051681121863,0.039796824626493324
26.0034,1.828865741661881,0.03936405989426028
26.007992,1.7554786710971941,0.03889847705424551
26.012588000000008,1.6790267430471266,0.03844282706262453
26.01718,1.6065391069300876,0.03788608090943065
26.021767999999994,1.5340514708130488,0.03727866392417102
26.02636,1.4683486146861278,0.036560069877706866
26.03094,1.4080423652450935,0.0358557637678541
26.035532000000003,1.3512116688805047,0.03516028758584744
26.04012,1.2931149839258316,0.03309394463742753
26.044708,1.2329750606475713,0.031059598295312303
26.049316000000005,1.1727129526551652,0.029036247272299153
26.053904000000003,1.1161707671674963,0.02703277303435431
26.058512000000007,1.063104134756273,0.025076721360842383
26.063104,1.0097931329167584,0.02317663964316905
26.067692000000008,0.956359946363098,0.021293981114406228
26.072288,0.9047256287047334,0.0194571499094157
26.076888,0.8532134957605146,0.017613262169395228
26.08148,0.8037446011398829,0.015732350971506284
26.08607600000001,0.758528509329199,0.013918970393363829
26.090672,0.7167879705949608,0.012163696565056819
26.09526,0.6758246815942248,0.010461025719466853
26.099860000000007,0.6344948384510518,0.008813966470055855
26.10444,0.5977843522602637,0.007192471722068914
26.109048,0.5598078774793906,0.005681201939150875
26.113636,0.530415051583931,0.004203808647295228
26.11824,0.5038427137455607,0.0028052325646488207
26.122832,0.47751474533548166,0.0014066564820024133
26.12742,0.4579715569155203,0.0
26.132012000000003,0.4459903982191788,0.0
26.136607999999995,0.44054965008466346,0.0
26.141196000000008,0.4380515747213831,0.0
26.145792,0.43710799882510715,0.0
26.15038,0.4379632918241268,0.0
26.154964000000007,0.4379191503754987,0.0
26.159552000000005,0.4426165505934011,0.0
26.164152,0.4470695813830123,0.0
26.16874,0.4542209155155668,0.0
26.17333600000001,0.46059499991461944,0.0
26.177927999999994,0.46823507290375677,0.0
26.182508,0.47293247312165915,0.0
26.187107999999995,0.4803281766825052,0.0
26.191696000000007,0.4891120535475817,0.0
26.196292,0.4940538231937755,0.0
26.20088,0.49965065785932583,0.0
26.20546,0.5070463614201719,0.0
26.210068000000007,0.513176076390933,0.0
26.214656000000005,0.5209824755428442,0.0
26.219256,0.5257240172093747,0.0
26.223848000000004,0.5283001358381726,0.0
26.22844000000001,0.5269119625339421,0.0
26.233044000000007,0.5234805509061244,0.0
26.237632000000005,0.5173508359353634,0.0
26.242228,0.5101995018028087,0.0
26.246815999999995,0.507667524622639,0.0
26.25142,0.5024372440995257,0.0
26.256007999999994,0.4982285827382059,0.0
26.260608000000005,0.49696259414812105,0.0
26.265196000000003,0.4982727241868341,0.0
26.269788000000005,0.4981946809213166,0.0
26.274384,0.5004042454076776,0.0
26.278980000000004,0.49901607210344695,0.0
26.283564,0.5029023207709579,0.0
26.288160000000005,0.5125517302667928,0.0
26.292756,0.5196250211338301,0.0
26.297356000000008,0.5206907817442518,0.0
26.30194400000001,0.5188138695834384,0.0
26.30654,0.5129726654895967,0.0
26.311132,0.5071314613957552,0.0
26.315724000000003,0.5016568114443506,0.0
26.320312,0.5012902573019136,0.0
26.324912,0.5057874295401528,0.0
26.3295,0.5162921320350075,0.0
26.334084000000004,0.5280628231199471,0.0
26.33868,0.5361135917001496,0.0
26.343267999999995,0.5448194252997086,0.0
26.347864,0.5495609669662391,0.0
26.352452,0.5475177286426521,0.0
26.35704,0.5463739247667129,0.0
