Time,Force,Position
21.883560000000003,0.4386222919525396,0.0
21.888152,0.43130463165721117,0.0
21.892736,0.4247642210953848,0.0
21.897328,0.4191232449812064,0.0
21.901928,0.4190010602670607,0.0
21.906524,0.4128713452962995,0.0
21.91112,0.4154474639250974,0.0
21.915712,0.42235442862936073,0.0
21.9203,0.42787322002939354,0.0
21.924888000000003,0.4344577720398479,0.0
21.929476,0.44305166055700007,0.0
21.934068,0.451445321094489,0.0
21.938656,0.4601716339575256,0.0
21.943252,0.46898622971781845,0.0
21.947836,0.4827528347560439,0.0
21.952424,0.5051913715769389,0.005138844468129253
21.957016000000003,0.5318046679422646,0.010419815783445908
21.961608,0.5587506166331376,0.016186098467817378
21.966196,0.589094075134939,0.022079758065097734
21.970792000000003,0.6246339123429643,0.02803900570245596
21.97538,0.6672911818666548,0.03404348715937714
21.979968,0.7178431334395129,0.04003919299135575
21.984564,0.77232547512851,0.046184833437516074
21.989152,0.8277955341624113,0.052675434360963315
21.993748,0.8852749297030102,0.05926672709665841
21.99834,0.952570060902218,0.06584022707060669
22.002936,1.0190981819996625,0.07264520715588355
22.007512,1.0945528439398067,0.07952660679542456
22.012112,1.18146602390282,0.08646916040983206
22.016704,1.2730088004499576,0.0936146339053692
22.021308,1.3724462590462625,0.10076508966310653
22.0259,1.480555649425237,0.10790021822565782
22.0305,1.5959046568340225,0.11501442360500146
22.035088,1.7132188593008775,0.12217642280076374
22.03968,1.8341749410069519,0.1293448884986197
22.04426,1.9540313602857156,0.1314489814077847
22.048856,2.0743426166041723,0.13351209224704527
22.053456,2.204591793295384,0.1350286642665089
22.058052,2.3402817181211106,0.13635784950956797
22.06264,2.4814123910813524,0.1375538083627857
22.067228,2.6272065624426073,0.13864319435312483
22.071816,2.7738221249859927,0.1397680871527506
22.076396000000003,2.922402882587447,0.14078739320552672
22.080996,3.0788341807894413,0.14142429941178067
22.085596,3.236697793744294,0.14197932640562047
22.090188,3.3941948525567094,0.14256561428006803
22.094768,3.5497267163110555,0.14298166435160115
22.099368,3.693389366451467,0.14332808790218188
22.103956,3.8226066843491466,0.14366332945695337
22.108548,3.948294068090013,0.14369739760762848
22.113144,4.066609410455184,0.14363252786652406
22.117732,4.174365669245134,0.14357383496239537
22.122344,4.27185135533678,0.1435598016678283
22.126932,4.363563640968366,0.14347597306306528
22.13152,4.447415146367671,0.14333706372927654
22.136116,4.525326925144141,0.143075001701938
22.140704,4.59766553144021,0.1426521139023358
22.145296,4.656991120246406,0.14228105791031914
22.149888,4.704491636887296,0.14197675650793054
22.154496,4.737346593305789,0.1417995566993093
22.159076,4.755555989501886,0.14174572676028324
22.163676,4.765127355732204,0.1416381249214114
22.168252000000003,4.771579483396774,0.14135670154663796
22.17286,4.76837196193377,0.14105529495491165
22.177448,4.758203094686135,0.1406772369090142
22.182048,4.739562523635495,0.1402972715293977
22.186644,4.720012278505468,0.13973917714445716
22.191232,4.701195141660315,0.13910995718241095
22.195824,4.6858094164429795,0.13835485394863228
22.20042,4.6625731506251045,0.13772830543133796
22.205016,4.63177485508361,0.13726917542572473
22.209616,4.6033863520081395,0.13671022254297938
22.214208,4.574831522769895,0.13609449042375332
22.218804,4.543045509883496,0.1355090072436566
22.223392,4.512036746730599,0.13491077556262124
22.227976,4.4809057988635566,0.13431714391805774
22.232564,4.448631047120575,0.13375589844028762
22.237160000000003,4.418810229292245,0.1331595587292336
22.241752,4.3909104650733575,0.13251186172627963
22.246344,4.368285122826211,0.13176797548141866
22.25094,4.349912583389013,0.13095404864487692
22.255528,4.332605804562236,0.13017139762006022
22.26012,4.3072482571552575,0.1296075000345798
22.264712000000003,4.2816904817686146,0.12913123259478682
22.2693,4.255277413382952,0.1287354374786123
22.273896,4.234793831988387,0.12824991899726906
22.278484,4.213088403452367,0.12788128721283573
22.283072,4.192204366098476,0.1275724046342692
22.287668,4.173818404107865,0.12730103166334256
22.292256,4.163693678308859,0.12693339032101564
22.29686,4.165794480634487,0.12637038068750478
22.301452,4.165163077800281,0.1260026238940836
22.306056,4.168950803938797,0.12563310205829395
22.310636,4.179200897373621,0.1252063508257757
22.315236,4.189372947542928,0.12486049037642669
22.319824,4.198323150570778,0.12463160048215945
22.324424,4.2097714289619095,0.12444558205349089
22.329004,4.2247394018781135,0.1242776901142464
22.333592000000003,4.240406581262303,0.12418478875409297
22.338184,4.2571395212569145,0.1241324406056509
22.34278,4.27878032908083,0.12403649059052758
22.347368000000003,4.305573374162341,0.12387574144209715
22.351964,4.3399725904161,0.12361610453978256
22.356564,4.377192294726947,0.12329871686872271
22.36116,4.419442051581246,0.12292570681884878
22.365748,4.46210250402661,0.1225987705327789
22.370344000000003,4.507216890386625,0.12225342393035538
22.374932,4.553108526480143,0.12190732690139537
22.379528,4.595524609497215,0.12161243961401871
22.384116,4.6351202044571975,0.12138082805102635
22.388712,4.666376519960059,0.12130712974212363
22.393308,4.700409182071381,0.1211138354369646
22.397896000000003,4.7337867791633474,0.12091976049159343
22.402488,4.763688823178867,0.12077466749759887
22.407076,4.793302356317467,0.12058994727933618
22.411668,4.827735474388116,0.12024564905241125
22.416252,4.863268254886076,0.11981297734756033
22.42084,4.896835840325966,0.11936594278151168
22.425444,4.931380903479023,0.11883859906777898
22.430032,4.9639607715740075,0.11828987009985531
22.434644,4.991344260962769,0.11774779109629814
22.439236,5.012143198341076,0.11726109411412033
22.44384,5.032365113965545,0.1167054200620232
22.448436,5.0485785962083565,0.11617137302138425
22.453024,5.062171818373743,0.11561239626200887
22.457632,5.068403238795173,0.1151006632708593
22.46222,5.0689495416537955,0.11462179993117835
22.466816,5.063155661930255,0.11416561459561027
22.471404,5.056296021596293,0.11366981590042809
22.476004,5.044772882861318,0.11318272696655267
22.480592,5.0320617988017755,0.11266458811516877
22.485192,5.018162769417666,0.11211800397465063
22.48978,4.998334253042457,0.11162301138991211
22.49438,4.977684345485119,0.11106608040603203
22.498976,4.955724307889066,0.11048823161345123
22.503576,4.930166532502424,0.10995502659236364
22.508168,4.898967781001603,0.1095080616890375
22.512764,4.861595173081392,0.10912827484859024
22.517352,4.819725392922943,0.10880169047837865
22.521948,4.782841523859315,0.10836801995383964
22.526536,4.74420292734902,0.10801376074506591
22.531132,4.70544214612458,0.10766620958149407
22.53572,4.666314810757701,0.10734088201118425
22.540308,4.632584082076711,0.10694370452654434
22.544896,4.59746518009149,0.10659351089078269
22.549496,4.567498515363865,0.10619545137175891
22.554084,4.542928457322127,0.10572925841287956
22.558664,4.5280078087762226,0.10516301432516639
22.56326,4.518650093078979,0.10458458059870575
22.56784,4.519719036611075,0.10391474610145855
22.572432,4.529537955191356,0.10316762548273065
22.577024,4.540056080239623,0.10249311054411915
22.581604,4.559079810907784,0.10176057106132666
22.586212,4.578436193901494,0.10112801187834634
22.590792,4.600290652258485,0.10054817695614578
22.59538,4.626808609016489,0.09997842234849852
22.599976,4.6628537905561815,0.09933958910652894
22.604568,4.71075794607807,0.09863149385605616
22.609164,4.769088760829296,0.09785383377447807
22.613744,4.823743794524412,0.09720235008671524
22.61834,4.887393172696008,0.0964686083479138
22.62292,4.9642896981540305,0.09564818820913866
22.62752,5.044950287565418,0.09486339621716601
22.632108,5.12769825674902,0.09412866912644884
22.636712000000003,5.214332474600133,0.09340462206222772
22.641304,5.307917798604138,0.0926628378556528
22.6459,5.40743260959924,0.09192680244120273
22.65048,5.506336497023615,0.09126200505613195
22.655076,5.608060872505079,0.09059429798486977
22.659668,5.706842575215307,0.08999265056029651
22.664264000000003,5.803581039601948,0.08944441550965666
22.668852,5.904283795921617,0.08885558084275325
22.67344,6.006130356117226,0.08826885832162217
22.678032,6.115006065731244,0.0876012559487047
22.68262,6.228090436706582,0.08688465446475357
22.687212,6.338598689053122,0.08619201559295069
22.691804,6.445753573037362,0.08553074077151529
22.696396,6.55016601223003,0.08486622339900307
22.700988,6.6491818447368125,0.08425448016778109
22.705576,6.751262534728974,0.08361457743371616
22.71016,6.84933479133948,0.0829914548573577
22.714736,6.9328939120734745,0.08246757117134744
22.719332,7.011667349692309,0.0819463551516584
22.723916000000003,7.085777288910132,0.0814228087018533
22.728528,7.158166402498175,0.08086623497312148
22.733116000000003,7.222172095180468,0.08033361801634956
22.737704,7.276894932509365,0.07982562106896839
22.7423,7.325277587256098,0.07930883676820291
22.746892000000003,7.365032451668789,0.07881949947440016
22.751488,7.398324948785171,0.07832589608507756
22.756076,7.429774435557629,0.07780581140880183
22.760676,7.459380911986164,0.0772616467714481
22.765252,7.481503401956596,0.0767241483637096
22.769856,7.49716352463072,0.07618448435550611
22.774444000000003,7.506361280008535,0.07563972999356104
22.779044,7.509096668090041,0.07508260616161301
22.783628,7.505125319446947,0.07452629294794826
22.788224,7.493059060775021,0.07399822472872854
22.792816,7.475429869254436,0.07345307932645988
22.797408,7.449050702685663,0.07292459815039992
22.802004,7.4164976796975,0.07240805116048858
22.806596,7.384799949708357,0.07184267114288279
22.811184,7.348971601623413,0.07126883689342751
22.815772000000003,7.3104449501955235,0.07069977527646065
22.82036,7.265744442348247,0.07013870751072605
22.824956,7.215525143100936,0.06959369467046322
22.829548000000003,7.161585921348888,0.06905888061285477
22.83414,7.110589372368075,0.06849712684132021
22.838732,7.061636061710851,0.06791161660497406
22.84332,7.013215631358835,0.06733559784805437
22.847912,6.956211552121408,0.06680080731369686
22.8525,6.891523258446213,0.0663043402335552
22.857096,6.82544679146679,0.0658281423594653
22.861688,6.757204901449633,0.06536746691807184
22.866276,6.6874526534141,0.06493359003381072
22.870888,6.624895880959751,0.06447368354003678
22.875476,6.565692476867699,0.06401065498714482
22.88008,6.510086810566242,0.0635317056282742
22.884668,6.460410631255882,0.06305210760696725
22.889256,6.4171526777932,0.06254612536612573
22.893852000000003,6.379291331016407,0.062023243328530056
22.898444,6.345438417621271,0.061513197952451526
22.90304,6.3145723184459985,0.061023986283769344
22.90762,6.285138534023583,0.06054741852058773
22.91222,6.266620147687088,0.06004202198878153
22.916808,6.261959832207748,0.059493421924926605
22.921408,6.262451753986004,0.05894483136410782
22.925996,6.261311133031738,0.058437646979145164
22.930596,6.259681773220889,0.05795629093887977
22.935192,6.263693389524218,0.05745439642904954
22.939784,6.282340326418204,0.05692016737911437
22.944368,6.31165829196982,0.056379825018559294
22.948964,6.345473429759675,0.05583346667631534
22.953556,6.384196435378834,0.055309307922973505
22.958152,6.42549555962679,0.05478849352552262
22.96274,6.464384891408723,0.05430796680965781
22.967332,6.5067497762671005,0.05383490658816632
22.971924,6.55132422561184,0.05338902956159387
22.976508000000003,6.59193438302355,0.0529688507229372
22.981096,6.634099039902265,0.05256635527705911
22.985692,6.67679657708619,0.052187590960494266
22.990284000000003,6.719494114270117,0.051812816977549365
22.994864,6.761414401720541,0.051432056999720054
22.999464,6.804234123618614,0.05105204329934475
23.00404,6.835816034736956,0.05075044302361728
23.008636000000003,6.854850005036858,0.050503039227829456
23.01322,6.874128344765051,0.05024435626326214
23.017812,6.895572107530976,0.04996717047702208
23.0224,6.914317566953956,0.04969008866737867
23.026996,6.927055496120323,0.04944750100304382
23.031584,6.925568800287097,0.04924735125887337
23.03618,6.912022902492012,0.049068594878044894
23.040772,6.894512712763899,0.048908726160535806
23.045372,6.867885993845162,0.04875589371680928
23.049956,6.837539352421688,0.04860850521514073
23.054552,6.80167391959818,0.04846689065200992
23.059144,6.756325403441611,0.04835088875513003
23.063744,6.702759792542067,0.048241150331084406
23.068332,6.647273128033081,0.048136792395424614
23.072932,6.580382326581592,0.04806541400196501
23.077524,6.506951114568277,0.04800630796074983
23.08212,6.4240368192219,0.04797284312500814
23.086716000000003,6.342144143037317,0.04792791156505592
23.091312,6.252034372109759,0.04788644800875428
23.095904,6.161880459733572,0.04779591423019328
23.100488,6.0700498631762345,0.047695342444059874
23.105068000000003,5.9732333555240755,0.047618102641446475
23.109656,5.86566777594877,0.04758922293201043
23.114248,5.755814588621586,0.047589794184207466
23.118844000000003,5.641464229056163,0.04758995555053519
23.123424,5.528135488652534,0.047583744997277695
23.128016,5.415828367410699,0.047567565875854825
23.132612,5.301844561987713,0.047540941923641
23.1372,5.186839137402934,0.04752347031610614
23.1418,5.07285533197995,0.04749154554458278
23.146388,4.958871526556964,0.04745853941241771
23.15098,4.8478303939052125,0.04740715618902132
23.155576,4.735767642091667,0.04736484482674269
23.160164,4.619984967773386,0.047332216904457665
23.164768,4.507267150940485,0.04727165947041831
23.169356,4.391484476622204,0.0472465853043674
23.173948000000003,4.281342778418101,0.04720044418241359
23.178532,4.1632724963479415,0.04721636566045215
23.18312,4.0496993865160205,0.04722672505941203
23.187716,3.9384580258846067,0.04726162220304241
23.192308,3.8287711647201967,0.04732028410772248
23.1969,3.7189621188416413,0.047395231999452794
23.20148,3.615937852953203,0.047430934361825564
23.20608,3.515734075121855,0.0474653161935496
23.210668,3.420027469528746,0.04750060594390284
23.215268,3.3250981136691387,0.0475537270250522
23.219856,3.2318454419906817,0.04761808211961856
23.224452,3.1403916392075204,0.0476761439408894
23.22904,3.0566220508621247,0.047672546516560686
23.233636,2.971464289212498,0.04772537425820797
23.238224,2.8900264500676083,0.04776122682864729
23.242816,2.8074448070467803,0.047827441137813224
23.247408,2.7302597707118386,0.047904435782696465
23.251992,2.6594929602245787,0.047972092496073704
23.256584,2.594122756423205,0.04803365345640463
23.26118,2.532061779535503,0.048018777614615815
23.265768,2.471799671543097,0.04799628246364087
23.270364,2.4203655818643957,0.04787331650061153
23.27496,2.370363806938552,0.04780383500609397
23.279548,2.318563163117414,0.04773069684873776
23.284144,2.2658630848486276,0.04766132359347141
23.288736,2.2153284296175744,0.04752675481375651
23.29332,2.1656932088341687,0.047380558469035626
23.297908,2.116546726907346,0.047138923501788076
23.302492,2.0682996794281707,0.046891966601341206
23.307088,2.0201748166631415,0.046614184469895646
23.311684,1.9689850964127318,0.04640177704289086
23.316272,1.9117878459057065,0.046317530573147886
23.320868,1.8514035531991544,0.04631851823358171
23.325456000000003,1.7924074337968332,0.04620857953119361
23.330052,1.730468641623277,0.04614782820994463
23.33464,1.6695514686115145,0.04606278662455703
23.339236,1.6081014152945412,0.045861988097108605
23.343816,1.5450968625105632,0.04555389488286245
23.34842,1.4772285833459093,0.04315324223844888
23.353004,1.4118142380959071,0.040793533502497245
23.357604,1.342557785627023,0.038454789338846565
23.362196,1.2672938029015226,0.036177592277456976
23.366784000000003,1.1914969398708117,0.03386087364851913
23.371364,1.1191756299165467,0.031548047684575246
23.37596,1.0544163496859018,0.029217173493354467
23.380564,0.9874916464175237,0.026936253042325976
23.385152,0.9186458895397045,0.024682138165415937
23.38974,0.8530313163100395,0.02250761324460806
23.394324,0.7854956894709328,0.020338053980878665
23.398912000000003,0.7227016042983571,0.01818192604131663
23.403504,0.6705344063347817,0.01595939002299288
23.408096,0.6300157147420001,0.013625533369532629
23.41268,0.5896192078633644,0.011259194743015857
23.417268,0.5497555812899395,0.008968605803917989
23.421848,0.5165545499924865,0.006647225207948087
23.426428,0.4851523875903291,0.004331653815539918
23.431024,0.45518253994103064,0.002112269057053086
23.435612,0.42562338788279713,0.0
23.44022,0.40105014691938573,0.0
23.444804,0.38121844762250484,0.0
23.449404,0.3640850516685675,0.0
23.453996,0.3537364357047479,0.0
23.458584,0.34404288476028466,0.0
23.463188,0.3317732151870236,0.0
23.467776,0.3143954498047949,0.0
23.47238,0.3024142911084533,0.0
23.476972,0.29108819743146824,0.0
23.481572,0.2735669961379981,0.0
23.48616,0.25976571734926507,0.0
23.49076,0.24651857006283864,0.0
23.495352,0.22850862991278584,0.0
23.499956,0.20743383227735243,0.0
23.504544000000003,0.1890573379848626,0.0
23.509144,0.1726018973018141,0.0
23.513724,0.1541032182951786,0.0
23.518320000000003,0.13740340818383878,0.0
23.522908,0.1217252172342925,0.0
23.527504,0.10962187382380528,0.0
23.532096000000003,0.09574255176955468,0.0
23.536688,0.07892055694406919,0.0
23.541276,0.06401961572802509,0.0
23.545872000000003,0.047974870636041785,0.0
23.55046,0.03385117915349985,0.0
23.555052,0.02334647665864513,0.0
23.559644,0.01590663164917097,0.0
23.564236,0.008711156067988158,0.0
23.568828,0.008422645191068662,0.0
23.573416,0.01625029554007563,0.0
23.578008,0.025221749765021794,0.0
23.5826,0.03507138724052001,0.0
23.587188,0.04739620982776623,0.0
23.591792,0.05779997880557108,0.0
23.59638,0.07012480139281731,0.0
23.600976000000003,0.08130582010412434,0.0
23.605556,0.09620676132016844,0.0
23.610148,0.11290657143150826,0.0
23.614752000000003,0.1324268695999373,0.0
23.61934,0.1453074627439267,0.0
23.623944,0.16266233787462303,0.0
23.628532,0.1771967249482301,0.0
23.633128,0.1938965350595699,0.0
23.637716,0.20789804182796617,0.0
23.642316,0.2210001141487146,0.0
23.646904,0.23395875055822155,0.0
23.651508,0.24986005973896339,0.0
23.6561,0.26461756504376605,0.0
23.660696,0.2751664089872489,0.0
23.665288,0.2828947648736425,0.0
23.669884,0.28845769772230345,0.0
23.674480000000003,0.29054507749451863,0.0
23.679072,0.29299901140917084,0.0
23.683676,0.2982734333809123,0.0
23.688272,0.29880631368612315,0.0
23.692864,0.3025262361908603,0.0
23.697456000000003,0.2997057481337711,0.0
23.702044,0.28842379590541417,0.0
23.706632,0.27252248672467233,0.0
