Time,Force,Position
24.67602,0.0,0.0
24.680612,0.0,0.0
24.685199999999995,0.0,0.0
24.689796,0.0,0.0
24.694384,0.0,0.0
24.698975999999995,0.0,0.0
24.703584,2.6841545056324913e-05,0.0
24.708164,2.684154505632491e-05,0.0
24.712772,0.0038957903089953975,0.0
24.717364,0.008664173520582321,0.0
24.721951999999995,0.012655306998667064,0.0
24.726548,0.01856749408619318,0.0
24.731136,0.02435749645957363,0.0
24.735732,0.030269683547099746,0.0
24.740328,0.03732567451056506,0.0
24.744924,0.04642490379761741,0.0
24.749512,0.05732300197996547,0.0
24.754116,0.06527842739107863,0.0
24.7587,0.0714349839068961,0.0
24.763296,0.07824660544207007,0.0
24.767876,0.08607984613903756,0.0
24.772468,0.09469033656950722,0.0
24.777055999999995,0.10330082699997689,0.0
24.781648,0.11395455575403361,0.0
24.786244,0.1265293381175317,0.0
24.790836,0.14078080466217985,0.0
24.795424,0.15578267939527382,0.0
24.800008,0.17363188373051336,0.0
24.804592,0.18556890097822676,0.0
24.809183999999995,0.19840535267358803,0.0
24.813772,0.21189686938830582,0.0
24.818356,0.22256789804593438,0.0
24.822944,0.23348329613185426,0.0
24.82752,0.24427650950362848,0.0
24.832104,0.24996162706643504,0.0
24.8367,0.24886196463912402,0.0
24.841288,0.24494181415472374,0.0
24.845892,0.24498595560335187,0.0
24.85048,0.24568516207133656,0.0
24.855068,0.24699529211004956,0.0
24.859672,0.2462621838251755,0.0
24.864256,0.246550694702095,0.0
24.868848,0.24671702086486882,0.0
24.873428,0.24087581677102718,0.0
24.878015999999995,0.23209193990595064,0.0
24.882604,0.22073194441207625,0.0
24.8872,0.20667364557525827,0.0
24.891791999999995,0.19339259647194249,0.0
24.896384,0.18137753595871153,0.0
24.900968,0.1648653032072414,0.0
24.90556,0.15141792794115178,0.0
24.910163999999995,0.13976942157035785,0.0
24.914756,0.13261808743780318,0.0
24.919356,0.12407858000101797,0.0
24.923948,0.12363398259306345,0.0
24.928528,0.13103992578564821,0.0
24.933119999999995,0.1413104984839504,0.0
24.937708,0.15330189681203077,0.0
24.9423,0.1709784127029177,0.0
24.946892,0.19103081924293935,0.0
24.95148,0.2177899625075611,0.0
24.95606,0.24471543193495665,0.0
24.960648,0.2774482036393045,0.005788086333670142
24.96524,0.317909331230046,0.011571779186464022
24.969824,0.3622567074882984,0.017414923533743874
24.974412,0.4101237782716248,0.02341014273515625
24.979004,0.46265434745596407,0.029494860943533416
24.983592,0.5095880819747531,0.036088385115859004
24.988176,0.5608187607521182,0.04271789976378854
24.99278,0.6183896221116466,0.04933452290041658
24.997368,0.6729397674344223,0.05624256110027883
25.001964,0.7274118694916808,0.06337010068903114
25.006547999999995,0.7764093215975346,0.07081692874736216
25.011148,0.8318249995510688,0.07796317020048249
25.015736,0.8846645588758052,0.08506038157901735
25.020332,0.9368490531811854,0.09204895119282
25.024916,0.9888672213237913,0.09895664159963428
25.029516,1.0390423791224737,0.10580653735681793
25.034099999999995,1.0809563007295513,0.11293710742280853
25.038692,1.1173072894879679,0.12024098114386637
25.043284,1.147728791255287,0.12762861970683032
25.04788,1.1760629132503908,0.13505837997552966
25.052468,1.1996113521303358,0.13663050378264832
25.057052,1.2241372687234462,0.13781003541339082
25.06164,1.2456763710966932,0.13896815676608354
25.066236,1.262796344497219,0.14009616796354005
25.070823999999995,1.2781954922679661,0.14103425577350362
25.07542,1.2955937369136725,0.14146353761951883
25.080003999999995,1.308572852586657,0.14191798667571195
25.084584,1.3197089579157177,0.14226458802262032
25.089172,1.3299014873485022,0.14241800038365157
25.093756,1.3422152983703914,0.14210225095466686
25.098336,1.3582048904483897,0.14127216604223572
25.102944,1.3692866146970832,0.14070773386664875
25.107532,1.3767706011551857,0.14036765873162774
25.112128,1.3827000881462836,0.14008290871263368
25.11672,1.3879745101180252,0.1397919614517193
25.121308,1.3903062593185316,0.13973541585079616
25.1259,1.3993006037950102,0.139171303788848
25.1305,1.41021600188093,0.1384338880718326
25.135096,1.4205985196616389,0.137628058786402
25.139672,1.4321248413182872,0.13669599424137252
25.144276,1.4372329371272548,0.1361856798577674
25.148864,1.4327357648890153,0.13650000030915505
25.153464,1.427461342917274,0.13684441129224525
25.158044,1.4251295937167674,0.1369166770021694
25.162644,1.421121160335111,0.137073280349445
25.167235999999995,1.4191559652770416,0.13702142315599417
25.171828,1.419234008542559,0.13677010907581572
25.176412,1.4176353676269262,0.13660090338995004
25.181008,1.4180799650348808,0.13623837364620336
25.185596,1.4146824552239525,0.136182109627664
25.190188,1.406543403746494,0.136478447440775
25.194776,1.3975049178213872,0.1368312900689602
25.199368,1.3926750932576004,0.13677130371075688
25.203956,1.3864129539409549,0.1367053327146604
25.208535999999995,1.3783519457290137,0.13674451372608123
25.213131999999995,1.3728229146972422,0.13645101125917236
25.217707999999995,1.366638818646114,0.13612806702545416
25.222292,1.360699092023277,0.13573137762257087
25.226884,1.3530826812192904,0.13539491412044055
25.231476,1.342890151786506,0.13516994421860895
25.236068,1.340259652077341,0.1344135988718773
25.240656,1.3459242903766697,0.132874016823198
25.245264,1.353632166999586,0.13115529417074004
25.249844,1.358397370851267,0.12966933513164297
25.254448,1.3630403899888026,0.12820636780486347
25.259044,1.366906159392836,0.12680385966481886
25.263632,1.3660303871303388,0.12570932531716322
25.268224,1.3624563115248978,0.12475413671429024
25.272816,1.3552844981288659,0.12400312363768508
25.277412,1.3474576197134769,0.12321750358601208
25.282,1.3420405337641126,0.12210843577615013
25.286596,1.3338029597576584,0.12119126199196821
25.291184,1.3218454632464673,0.12053736300062631
25.295784,1.3095214125928396,0.12000243256029137
25.300376,1.2983411658151507,0.11931133418421629
25.304976,1.2848733112855835,0.11889620470324186
25.30956,1.266297360947049,0.11898382193541972
25.314152,1.2475992258943682,0.11909452992005058
25.31874,1.2323766439181336,0.11901276036545085
25.323336,1.2178091269612554,0.11897009978432399
25.327932,1.200421121947288,0.11912425683787776
25.332528,1.1784579014295635,0.11980925286541792
25.337115999999995,1.1554730617500457,0.12055264609074975
25.341708,1.1354308948417628,0.1210398278784593
25.3463,1.115022173791043,0.12169373309555903
25.350896,1.0913042258266512,0.12275688575197015
25.355472,1.0720834501004988,0.1235710240688422
25.360068,1.0536399241078482,0.12444621729526226
25.36466,1.0425140584105266,0.12472837479543193
25.369252,1.0356409955231525,0.12479575830552486
25.373836,1.0309774971221395,0.12485473047636063
25.37842,1.0364521470735442,0.12427324699135259
25.383008,1.0443807309396012,0.1236231507702029
25.387612,1.0541081837009538,0.12287173913317448
25.392199999999995,1.0671890048246062,0.12206719846109722
25.396795999999995,1.084766998186498,0.12103794323406636
25.40138,1.1047989254630421,0.11986483907467997
25.405972,1.1226654297018535,0.1188854393339921
25.410568,1.1411869989600214,0.1179835226855849
25.41516,1.1633063060087805,0.11690937020071761
25.419764,1.187879546972192,0.11578372352534513
25.424344,1.212574972649749,0.11454897018121085
25.42894,1.2361265944513669,0.11343483285183094
25.433527999999995,1.260211096558196,0.11245804337538359
25.438123999999995,1.2863388369886115,0.11127391028434176
25.442712,1.3136103812949664,0.10986224632404337
25.447312,1.3408819256013216,0.1084962068957775
25.451896,1.374571695755357,0.1067810022971282
25.45648,1.404297173976364,0.10555065197521656
25.461084,1.4283816760831933,0.10466542757729619
25.465675999999995,1.447969005951783,0.10401974776210994
25.470276,1.4581954372014572,0.10393845126124865
25.474868,1.4684218684511312,0.10386406429352568
25.479451999999995,1.4778710499673031,0.10379827073302973
25.484048,1.4818014400834423,0.10399550955977081
25.488636,1.4849545804660793,0.10419281361004455
25.493224,1.4925607516383272,0.10403176003878387
25.497812,1.5032317802959558,0.10366782516534871
25.502408,1.509527821429491,0.10343266522543998
25.506992,1.5131255592200825,0.10330325210208317
25.511579999999995,1.5143915478101673,0.10317525467679252
25.516172,1.516801340276191,0.10294944722679833
25.52076,1.5223981749417412,0.10250450625172297
25.525352,1.5265626948544329,0.10203502788772056
25.529948,1.5331370072331483,0.10137628472763237
25.534536,1.541754557935451,0.10060403572460169
25.539128,1.546896555561308,0.09990511317694717
25.54372,1.547785750377217,0.0993063636579721
25.548308,1.543278338507239,0.09885560070173867
25.552904,1.544900641608022,0.09806058536799289
25.557496,1.546645129422951,0.09721565435262221
25.562092,1.5514544747232604,0.0961734046410633
25.56668,1.5516444630711848,0.09529125514527484
25.571272,1.552733885866757,0.0943866471698424
25.575848,1.556765981433564,0.09332570247835008
25.580448,1.554502035866836,0.09245578513905107
25.585044,1.5465971141859298,0.09182601027271807
25.589636,1.5399581810951086,0.09107898438579888
25.594216,1.5381829743849635,0.09010692990267267
25.598811999999995,1.5330543993125185,0.08915396653698063
25.603404,1.5276814548117816,0.08825476796866565
25.607996,1.5225528797393368,0.08729001875571467
25.612587999999995,1.5125605782862153,0.08653957048444026
25.61718,1.4987261696142111,0.08594236759026806
25.621768,1.4805609148667414,0.0856291703414992
25.62636,1.4623956601192716,0.08529913559748839
25.630948,1.452569684828924,0.0847001652846463
25.635548,1.4415999056626372,0.08417501463890992
25.640139999999995,1.4393359600959095,0.08330602924531204
25.644724,1.4329855378820076,0.08264473256622532
25.649311999999995,1.4292112342969037,0.08195232464576599
25.653887999999995,1.4222498885122734,0.0814319884298249
25.65848,1.419130649946526,0.08075563330464686
25.663068,1.415889226666633,0.0801177769915954
25.667656,1.4133028684060962,0.07953166249931894
25.672264,1.4158687474031553,0.07887368229461789
25.676852,1.4170464530959839,0.07834431855466226
25.681448,1.4156921816086425,0.07805563440572333
25.686043999999995,1.4112730526359207,0.07792180274704048
25.690632,1.4127834106542971,0.07774386359866431
25.695224,1.4181358758915559,0.07743152313983091
25.699819999999995,1.4258200903293217,0.07716894355125072
25.704412,1.4371020425576781,0.07682808912507814
25.709,1.45468003591957,0.07635147965679026
25.7136,1.4752007020526967,0.07575982852628171
25.718176,1.4926565107004428,0.07531882154686069
25.722776,1.4994854321391886,0.07526854554363863
25.727371999999995,1.5095455372260886,0.07523987080137791
25.731972,1.51257649289458,0.07551594537100674
25.736564,1.5165068830107191,0.07577623332070876
25.74116,1.5204372731268583,0.07603430991265697
25.745768,1.5311524432331147,0.07605655840222851
25.75036,1.5444437319681694,0.07606538100553252
25.754956,1.5551589020744256,0.07609368771213995
25.759552,1.560599650208941,0.07618858336352632
25.76414,1.5679614519528977,0.07622273918667659
25.768732,1.5803091647916765,0.07606095736285827
25.773323999999995,1.5912245628775963,0.07583616408154503
25.777908,1.6048382643064596,0.07556484949357273
25.782495999999995,1.6132997284777275,0.07533239244100794
25.78708,1.6191850740201974,0.07513063753479383
25.791672,1.61799712869563,0.07501605367239589
25.796248,1.6170535527993541,0.07484556136134149
25.80084,1.6117349893789845,0.07471626467336566
25.805428,1.602940872882169,0.07460913785778879
25.810016,1.5970894291565885,0.07440567749392508
25.814623999999995,1.5972455156876237,0.07397099566341488
25.819212,1.5908170502082042,0.073499100448261
25.823816,1.5905182996995462,0.07276755943174393
25.828404,1.590586103333325,0.07195052107849113
25.833003999999995,1.5873005386048038,0.07111967764797801
25.837596,1.5786183671903955,0.0703702377881281
25.84218,1.5658055776801847,0.06959163476439925
25.846776,1.555036026493561,0.06872022420056972
25.851368,1.5440221058786463,0.06787304268699013
25.855964,1.5270786982726332,0.06700334324672072
25.860552,1.505271564285944,0.06627255781248384
25.865151999999995,1.4844860494610483,0.06547891809400977
25.86974,1.4574044935026176,0.06475081420164056
25.874344,1.4293013183823933,0.06404405968543558
25.878932,1.3960900474532016,0.06356006329909049
25.883531999999995,1.3682753832098973,0.06297985409255875
25.888116,1.335719177300062,0.06252073775635837
25.892708,1.306227828875607,0.06186710589496241
25.897296,1.277391545470509,0.0612548773343041
25.901892,1.2459791434366128,0.06060936221920464
25.906479999999995,1.211868438059773,0.05995264737622879
25.911076,1.1807445469027964,0.05943330277897245
25.915652,1.1428358757557022,0.0562088026568922
25.920252,1.1026395968567297,0.05306979987154768
25.92484,1.065019436586555,0.0499626001411441
25.929432,1.0282987107640282,0.046897679303255176
25.934024,0.9928881149802143,0.04390719663955051
25.938612,0.9549455420162307,0.04100705182440372
25.943204,0.9234211948999278,0.03804887293445625
25.947792,0.8942285969841313,0.03515954706395545
25.952383999999995,0.8719429637725982,0.03221427965644421
25.956968,0.8501902108662759,0.029331280720422695
25.961548,0.8376761718647234,0.0291016794434159
25.966152,0.8373435195391757,0.02863174172686871
25.97074,0.8435512777754545,0.02801855010979089
25.975328,0.8496368512975874,0.027460491453946082
25.979912,0.8627957156867576,0.02688281056883432
25.984504,0.8754658412193451,0.02650007732961849
25.9891,0.8898126509330826,0.026140725355899515
25.99368,0.9055917753996787,0.02589170468025523
25.998276,0.926767506552162,0.02564824344174549
26.002856,0.9502308454565236,0.0252309650897751
26.007456,0.9770475527231853,0.027732722902401613
26.012048,1.006806932761082,0.03020145035261257
26.016639999999995,1.0383651816942745,0.03263765176832952
26.021235999999995,1.0722551798279734,0.03510280513462388
26.025828,1.1054901129423156,0.03753852479401396
26.030428,1.1401132193608885,0.03994414361388443
26.03502,1.1702391535412222,0.042349939365806374
26.039612,1.2039628255121473,0.044755473155115605
26.044204,1.2318011519406025,0.04716117926542196
26.048792,1.2629487052827295,0.04944846047207118
26.053376,1.2866564136153824,0.04903972413574728
26.057964,1.2953622472149413,0.04885794871227092
26.062556,1.3013697774715571,0.04867764481512774
26.067148,1.3085211116041116,0.04843526660251482
26.071743999999995,1.3106423931932163,0.04809015912905124
26.076336,1.3078999484016447,0.04784018382792118
26.080912,1.303480819428923,0.04755507174810496
26.085504,1.2993060598844925,0.047198559357930214
26.090104,1.2855260322928552,0.04702094870520193
26.094696,1.2686811472158375,0.04694869840897858
26.09928,1.2483607090623738,0.04685595804234035
26.103868,1.2223992947947318,0.0468489590551419
26.108456,1.1927179580223528,0.044412757639424955
26.113052,1.1567405801164385,0.04194760427313059
26.117648,1.1246053094294073,0.039511884613740514
26.122243999999995,1.09234785402823,0.037106265793870045
26.126832,1.0612342025029926,0.0347004700419481
26.131432,1.025867748167807,0.03229493625263887
26.136012,0.9885802402231797,0.029889230142332517
26.140604,0.9442635828601438,0.027601948935683296
26.145192,0.899824740782962,0.025319091538677216
26.149792,0.8618041245534609,0.023014419129051382
26.154384,0.8248051274857532,0.020711141599637384
26.15898,0.7819207848755758,0.018471302218899574
26.163571999999995,0.7407131264465484,0.016303732970695303
26.168164,0.7029368796453387,0.014042731405917394
26.172756,0.6633617639488333,0.011783928210158574
26.177347999999995,0.6226428443763886,0.00956179810044513
26.181936,0.5887087047940617,0.0072362213639931144
26.186532,0.5557961843735282,0.004870745909000792
26.19112,0.5317116822666993,0.0024617284630125053
26.195716,0.5162108290452839,0.0
26.200304,0.5043077136144599,0.0
26.204899999999995,0.4949807168124337,0.0
26.209488,0.48066780891558564,0.0
26.214084,0.4663549010187375,0.0
26.21868,0.45371867730303944,0.0
26.223268,0.43981646499725646,0.0
26.22786,0.43065579435800416,0.0
26.232448,0.42545941565178025,0.0
26.23704,0.42320570971679117,0.0
26.241628,0.42160706880115867,0.0
26.246216,0.4189868087237327,0.0
26.250808,0.4173881678081002,0.0
26.255399999999995,0.41092580051179134,0.0
26.259984,0.40438538994996504,0.0
26.264584,0.4027087057688149,0.0
26.269175999999995,0.4020536407494585,0.0
26.273768,0.4003769565683085,0.0
26.278348,0.40254237960604117,0.0
26.282948,0.3966570340635714,0.0
