Time,Force,Position
27.025815999999992,0.17202103340436706,0.0
27.030448000000007,0.19341450829040863,0.0
27.03509600000001,0.21468579846230448,0.0
27.039736000000005,0.2369787077959939,0.0
27.04437200000001,0.2601710515773311,0.0
27.049024000000003,0.2844896834807125,0.0
27.053664,0.3048440234510654,0.0
27.058303999999996,0.32826322090679894,0.0
27.06294800000001,0.34706306141014753,0.0
27.067588,0.36561853248520476,0.0
27.072216,0.3882604802074361,0.0
27.076855999999992,0.4060387015489912,0.0
27.081496000000016,0.4188310117957243,0.0
27.086128,0.43828591731842936,0.0
27.09075999999999,0.4498122389750776,0.0
27.095395999999997,0.4614607453458715,0.0
27.10002399999999,0.4646477875453977,0.0
27.104671999999997,0.4670575800114218,0.0
27.109308,0.4621497121821173,0.0
27.113947999999997,0.46198338601934347,0.0
27.118592000000007,0.46169487514242397,0.0
27.12322800000001,0.4585858762084153,0.0
27.127872,0.4555990619885522,0.0
27.132508,0.44672690222621936,0.0
27.137144000000006,0.436833123302093,0.0
27.141784,0.426817159663821,0.0
27.14642800000001,0.4151245118443989,0.0
27.15105600000001,0.39652489932071355,0.0
27.155688,0.38062359013997166,0.0
27.160324000000003,0.3649666503875212,0.0
27.16495599999999,0.34497886455960536,0.0
27.169600000000003,0.32973262039822004,0.0
27.17423199999999,0.321026786798661,0.0
27.17886000000001,0.31093277989487145,0.0
27.18350000000001,0.304558695495819,0.0
27.188132,0.3037034024967993,0.0
27.19277600000001,0.30824471618366667,0.0
27.197419999999997,0.31716101739462765,0.0
27.202064000000007,0.32996356727309956,0.0
27.206716,0.34239956300913443,0.0
27.211364000000003,0.3525479509932909,0.0
27.21598800000001,0.36220760012086467,0.0
27.220631999999995,0.3752206176107386,0.0
27.22526400000001,0.399271217900678,0.0
27.229904000000005,0.42385469849582824,0.0
27.23453599999999,0.4479494402343958,0.0
27.23917600000001,0.47605261535462,0.004348125649450783
27.243808,0.5122507005036748,0.008568321228165057
27.248448,0.5475934926537099,0.013015164360823079
27.25308000000001,0.5858009143094625,0.017549271866602864
27.257712,0.6244190315562801,0.022419816609854707
27.26235600000001,0.6669233974706086,0.027265006107924265
27.266984000000008,0.7059963517571197,0.03233551881530099
27.27163200000001,0.7426595135776065,0.03772514274315221
27.27627200000001,0.7821873049038108,0.043181053020913594
27.28090800000001,0.8177949457456148,0.04892782826183699
27.285552,0.8543461624836949,0.05480739268997422
27.290179999999992,0.8895092059175445,0.0607384634499392
27.294820000000016,0.9280256177136942,0.06661092744550072
27.299455999999992,0.9688737787103503,0.07244046113891354
27.304088000000007,1.013197492783452,0.0782729610939425
27.308728,1.0625512594000042,0.08413322856647343
27.313368,1.1112941024458276,0.09005794332979516
27.318007999999992,1.1537850458067442,0.09619549184852737
27.322652000000005,1.198852107796459,0.10232458337381771
27.327304,1.2460065495583885,0.10853512743373173
27.331936000000013,1.2957371099491164,0.1103114864348714
27.33657199999999,1.3413811936926703,0.11230970618785403
27.341207999999995,1.3889463310456651,0.11407128942466786
27.34584000000001,1.4366336531128054,0.11571000834106797
27.350480000000005,1.4903285054365616,0.11686368107424171
27.35512399999999,1.5428354124357506,0.11791997620808205
27.359759999999994,1.5976299271868177,0.11871039587630122
27.364404000000007,1.6549564191180546,0.1191480844248948
27.369032000000004,1.708641031810072,0.11951948662357821
27.37366,1.7626480571958982,0.11954980507295102
27.378292000000016,1.8142791919325896,0.11940245499687042
27.382920000000013,1.8629235124494183,0.11923066486516679
27.387564,1.9072708887076708,0.11904989844447583
27.39220800000001,1.9442564632219665,0.11899892174771025
27.396836000000008,1.9778445279253338,0.11887985806709696
27.401467999999998,2.007380017798417,0.11866740546441444
27.406104,2.0301646294982714,0.11843573483924803
27.410740000000004,2.051839339139076,0.11792676953047655
27.415368,2.071138158130746,0.1173046186657744
27.420016000000004,2.0867509564345688,0.11650964172198976
27.42465200000001,2.094591257403369,0.11578590755681888
27.429295999999997,2.0983789835418847,0.1149524964463239
27.43392800000001,2.0961930812406746,0.1141123080753219
27.43858,2.0850908777285033,0.11341037857994747
27.443228000000005,2.0669934266148124,0.11275076755992013
27.44787199999999,2.0421892387765213,0.11222430095290617
27.452512000000013,2.0128437372513632,0.1116848089856344
27.45714000000001,1.9788347373251916,0.11115621007159915
27.461772,1.9428605423409504,0.11053544564431121
27.46640400000001,1.9058205867462874,0.109769593843373
27.471048,1.8683699355605594,0.1088852640521189
27.47568000000001,1.828831904602617,0.1079296355687025
27.480316000000016,1.7867177550158755,0.10699727245771072
27.484951999999996,1.7467690284668678,0.10590007342057782
27.489592000000016,1.707475366937216,0.1047981852827513
27.494220000000013,1.6698583895887142,0.10363073840822128
27.498864,1.6366163997643064,0.10231686311855326
27.503500000000003,1.605583974426259,0.10100915413089082
27.50814,1.5721417566221876,0.09987333221278054
27.512764000000004,1.5360453769238007,0.09897375238191264
27.517412000000007,1.5010147578358355,0.09818650705071898
27.522052,1.4715470715965313,0.09736006864211956
27.526688000000007,1.4469872531865315,0.09645815125912137
27.53134,1.43003360594878,0.09540003755375967
27.535979999999995,1.416355283807811,0.09449609656744962
27.54061200000001,1.4034983528489724,0.09377251489260653
27.545244,1.3932616819675596,0.09317596597402307
27.54987600000001,1.3883435745065162,0.09261411451748107
27.55450400000001,1.3886218457516968,0.09212735952630001
27.559140000000014,1.388211150160632,0.09202868271491085
27.563772,1.3871114877333206,0.0923231499624432
27.568408000000005,1.3919854537457357,0.0926916916282985
27.573048,1.4019336137502287,0.09316297749030995
27.577684000000005,1.4182219563368856,0.09361742248439349
27.58231599999999,1.433655005924522,0.09428722950811226
27.58695600000001,1.4481105777989933,0.09520334630836622
27.59159600000001,1.4662080289126844,0.09617911070097726
27.596236000000005,1.4857377947792338,0.09717913539028607
27.600876,1.5111970476368815,0.09806749059717365
27.60550800000001,1.5443846563809227,0.09877949306898724
27.610152,1.580925633487264,0.09941631228182876
27.61478400000001,1.6155455569841637,0.10013116860632837
27.61942400000001,1.6495545569103351,0.10098357275527853
27.62407200000001,1.6840964371417175,0.10188442664913888
27.628704,1.7170838179060959,0.10276097402624168
27.633340000000004,1.7568559786605915,0.10332483031717703
27.63798,1.79879356245282,0.1037468181233929
27.642616000000004,1.8401982659398375,0.10411304357207782
27.64724799999999,1.8763285474551135,0.10458395636085623
27.651892000000004,1.9133141219694092,0.10484015972286333
27.65652399999999,1.950133370320931,0.10491135431923634
27.661156000000005,1.9858868580620312,0.10488565707521633
27.66580400000001,2.0182428359922038,0.10475828190984496
27.670435999999995,2.04094940442654,0.10486241063946158
27.67508000000001,2.0664323194693384,0.10470680562255835
27.679723999999997,2.0909716586158607,0.10441389478387976
27.684363999999988,2.1090486304660736,0.1041857097012149
27.68900400000001,2.122095549772837,0.10403937706748323
27.69364400000001,2.127658482621498,0.10400577217381611
27.698272000000003,2.127902852049789,0.10395626651747573
27.7029,2.1282252647435986,0.10373784106369573
27.707536000000005,2.126582482379338,0.10344645473163698
27.71216799999999,2.121420005490003,0.10308215692253794
27.716812000000004,2.1117162149138013,0.1026940440789188
27.72144,2.098903425403591,0.10230305090351355
27.726071999999988,2.0784844647211322,0.10202883219332005
27.730700000000013,2.0550786898188105,0.10171202785390261
27.73533599999999,2.027664481534832,0.1014039083904369
27.739976000000013,2.0009833815357276,0.10094598683721032
27.74461199999999,1.9727477820696189,0.10047450651665209
27.749244000000004,1.9480657789454736,0.09974268579904916
27.75388000000001,1.9174542888302304,0.09907762573750688
27.758512,1.884022310657898,0.09849172911949017
27.76316399999999,1.8547989938468845,0.09767232082417397
27.767799999999998,1.8191574511881914,0.09702733384054148
27.772444000000007,1.7837602779577895,0.09630129021310682
27.777087999999992,1.7483631047273875,0.09556158315458652
27.78172800000001,1.7130881162111309,0.09478425612987057
27.78635600000001,1.6825546693614055,0.09379478236702034
27.790996000000007,1.6536979066928295,0.09275289156586565
27.795636,1.6226757209865215,0.09181342052949755
27.80026799999999,1.5910426117094842,0.09100350283171083
27.804900000000004,1.562640686080602,0.09016386699832864
27.809528,1.536570509652226,0.08931938591146611
27.81416000000001,1.514753136033798,0.08839917289424754
27.81880000000001,1.4989874341206137,0.08735980708668022
27.823443999999995,1.4835102430843485,0.0864314402533684
27.82808,1.4692209973726515,0.0855891570329831
27.832728000000003,1.4590623697567562,0.08472154866296064
27.837356,1.4531565449508088,0.08380835403814506
27.841995999999995,1.443819308517044,0.08312713217654744
27.84663599999999,1.4419660585413814,0.08241120842573059
27.851268000000005,1.4452650458233145,0.08162909589918867
27.85591199999999,1.4516730320392561,0.08090082815816262
27.860552000000013,1.4679747971793242,0.0799840814179866
27.86518799999999,1.487385561253401,0.07913648308431849
27.86982800000001,1.511948562585074,0.07824722733568121
27.874472,1.5378216939554594,0.07740580982156299
27.879108,1.5642277056310563,0.07668014598649524
27.883748,1.5891233592882765,0.07611200007950047
27.88838000000001,1.6126308396412663,0.07565909293755868
27.89301599999999,1.639203177479637,0.07506665249737614
27.897663999999992,1.6619334080991244,0.07459123830914571
27.902308000000005,1.6845414540044663,0.07414957205803349
27.906936,1.7061278807480147,0.07376294233717653
27.91158000000001,1.7228505811108867,0.0735509473163801
27.91620800000001,1.7390404011685479,0.0732756927992656
27.92085600000001,1.757395644263942,0.07288702434816033
27.9255,1.7721531495687446,0.0725724848001566
27.930144000000013,1.7816362329018058,0.0723232682891509
27.93479600000001,1.7932847392725997,0.07196951170500483
27.939427999999992,1.7991259433664413,0.07160574010906004
27.944064,1.800714344650335,0.0712514016725025
27.94870800000001,1.7970283239624874,0.07094548522458974
27.953344000000016,1.7870462621411047,0.07072331542743664
27.957979999999992,1.7717897783479806,0.07053959308812838
27.962612000000007,1.752158307030763,0.07038131210938998
27.967255999999992,1.7387787353984523,0.06997508599838441
27.971892,1.717959318756667,0.06969721616819449
27.976519999999997,1.697628640971465,0.06931259528794502
27.98115200000001,1.6804850053857885,0.06878945346872906
27.985795999999997,1.6624419353524647,0.06826847803385624
27.99043599999999,1.6491404069856717,0.06764446601966675
27.995059999999995,1.6342843791518737,0.06697797191768999
27.999708,1.6176294824227804,0.0663253929475978
28.004347999999997,1.6040394431790674,0.06555798252411003
28.008980000000008,1.5927811531358613,0.06484162713712735
28.013623999999997,1.582422297540303,0.06412164575201058
28.01825199999999,1.5710418227829512,0.06342539055733948
28.022887999999995,1.5610936627784577,0.06277840106751259
28.027532000000008,1.5489800797362316,0.06222536888729311
28.032160000000005,1.540874930075662,0.06173372594804695
28.03679199999999,1.5351015296155994,0.06129091772182537
28.041436000000004,1.5328036822319822,0.06083644426092111
28.04606799999999,1.5303836501342192,0.06040469585760812
28.050704,1.5315613558270476,0.05993512099965496
28.05534399999999,1.5363367993104677,0.059434652923528064
28.05997600000001,1.5342052780896245,0.059134205955842845
28.064607999999996,1.5402908516117575,0.058735492945631414
28.06925200000001,1.5488303590485426,0.05837635838682779
28.073883999999996,1.5564704320376803,0.058032992089593616
28.07853600000001,1.5629667011508783,0.05775139884836033
28.08317199999999,1.5649657980258371,0.057499073326333416
28.087812000000014,1.5695410135295937,0.05725863253034591
28.092456,1.5789799554140267,0.056916970318749815
28.097088000000014,1.5834329862036376,0.056704123441157196
28.10171600000001,1.581223421717277,0.056607446250090364
28.106359999999995,1.5761933691738266,0.05655294600963163
28.110987999999992,1.573084370239818,0.05645927313685924
28.115620000000007,1.5708748057534572,0.05636092043711049
28.12026399999999,1.5685430565529508,0.05629082114094847
28.124896000000007,1.5649011773137311,0.05611677450103432
28.12953200000001,1.5616258522169488,0.05585684432493649
28.13416799999999,1.5556522237772228,0.05561011807634345
28.13880800000001,1.5485347914615573,0.05542290600707024
28.143448000000006,1.5384746863746572,0.055309034070016035
28.148079999999997,1.523795224335372,0.055247769686270556
28.15270799999999,1.5101373814578805,0.05514855567637252
28.157355999999996,1.4949250391133844,0.054994578587494236
28.161988000000008,1.478158197301884,0.05478559353868738
28.16664,1.460125366900299,0.05466390473683372
28.17127600000001,1.441193102051066,0.054545302544084566
28.175907999999996,1.4257363902782787,0.05443712804155204
28.180556,1.4110569282389935,0.054352565439365966
28.18519599999999,1.3894705014954452,0.054438197221701026
28.189824000000016,1.3699273130754837,0.05446941534761445
28.194459999999992,1.3554922204644897,0.054326076760335316
28.199092000000007,1.343633246482294,0.054198795861128655
28.203720000000004,1.3325515222336002,0.05409659435128951
28.20835199999999,1.322080721555635,0.053832081486380086
28.212980000000016,1.3156963975248435,0.053433611562196844
28.217615999999992,1.3079239001898217,0.05315496264680092
28.222256000000016,1.3009286525883021,0.05290194931051419
28.226884000000013,1.2968760777580175,0.052579845986315876
28.231516,1.2957661756989676,0.0521901522862351
28.236164,1.2987427502870919,0.05167423250020939
28.24078800000001,1.3072381162752489,0.051120786434988665
28.24543600000001,1.3184317856063494,0.05057199571010251
28.250068,1.3257833477185674,0.05008566348344924
28.25471200000001,1.3328905404024942,0.049663795880571564
28.25934799999999,1.3392204833529184,0.04920113449232245
28.263983999999997,1.350047598541582,0.04873896105577017
28.268628000000007,1.361119083158537,0.048227813942568885
28.273268,1.370391698880196,0.04772365229076904
28.277908,1.3874707137537667,0.047070032132989395
28.28254000000001,1.409413455008013,0.04634210610524282
28.287184,1.4330328804434096,0.0456687092017663
28.29181600000001,1.4520329489264214,0.04501492837142099
28.29646400000001,1.467313094904696,0.04437752966163312
28.301108,1.4837811862075383,0.04390764127578454
28.30574000000001,1.495385551129704,0.04352973146372528
28.310372,1.5098104041089593,0.04312746234316796
28.315020000000004,1.5221920187646272,0.042779463878948765
28.319648,1.5315087759349146,0.042512677353846
28.324296000000004,1.5407033483910562,0.04227922209682383
28.32893999999999,1.5447898250382301,0.04217609680313423
28.333584,1.54311314085708,0.0421430540635232
28.338224,1.5375943494570472,0.04215729227655343
28.342851999999997,1.5329749925046623,0.04217401088509769
28.347488,1.5284778202664233,0.04216055969968352
28.352136,1.5305210585900104,0.0421093531866224
28.35676000000001,1.528067124675358,0.04204389901532584
28.361403999999997,1.5245915715989122,0.04200231656299934
28.366043999999988,1.5202165840748187,0.04195696076232581
28.370676000000003,1.5107335007417575,0.04203335182051733
28.375312000000008,1.4999844288186113,0.04218032530919978
28.379948000000013,1.48629268412423,0.04236961456417046
28.38458399999999,1.473500373877497,0.04257169941009354
28.389228000000003,1.466471224459088,0.042710312709862364
28.39388,1.4569881411260268,0.04278264440691926
28.398504000000003,1.449181741974116,0.04289207771390849
28.40315200000001,1.4376554203174676,0.04301733228707916
28.40779599999999,1.4281723369844062,0.043093723345270674
28.412443999999997,1.4215097417084344,0.04315414304083612
28.417088000000007,1.4111272239277253,0.04323188930834071
28.42173600000001,1.4036873789182511,0.043265654986839236
28.42635999999999,1.4013556297177443,0.04316886336980953
28.431004,1.4009449341266793,0.04304797272201674
28.435635999999988,1.4022109227167643,0.04296137805843449
28.44027600000001,1.4014336729832622,0.042928017483171585
28.444908,1.3921949590784923,0.042955611401947834
28.449547999999997,1.3800135724024878,0.04304159880945877
28.454184,1.3647673282411024,0.043221011101971504
28.458823999999996,1.3496432687938626,0.043364946648999834
28.46346,1.3321874601461163,0.043403149571384185
28.468099999999996,1.308069056222398,0.04354657187549257
28.472740000000016,1.2841950217269713,0.04361716178743028
28.477375999999992,1.260565356659836,0.043611184440156305
28.48202800000001,1.2341152035356113,0.043610040391969154
28.48666399999999,1.2063990618213016,0.04372720051366957
28.49129600000001,1.1761068014781944,0.04157053117794304
28.49594400000001,1.1450372914015845,0.03939014306150966
28.500575999999995,1.1129461621631815,0.03723660462674079
28.505203999999992,1.0782789142959803,0.03507993529101426
28.509836000000007,1.045777089466512,0.0329024518307557
28.514464000000004,1.0153185029606309,0.030724968370497135
28.51909599999999,0.9788523861981342,0.028630476879693428
28.523736000000014,0.9405874005403416,0.02653598538888972
28.52837600000001,0.9025667843108405,0.024412022142080183
28.533012000000014,0.864668352795485,0.0222649946009097
28.53764799999999,0.8295904093372188,0.020099944766769934
28.542283999999995,0.803096114764366,0.017883078168889004
28.54692399999999,0.7788894279433916,0.015601530546942756
28.551564000000013,0.7516178836370365,0.013359233018827927
28.55619200000001,0.728721326854775,0.011167491661674685
28.560840000000013,0.7109328658814812,0.008864347969366516
