Time,Force,Position
29.277491999999988,0.2653346941930831,0.0
29.28208399999999,0.2782594287857007,0.0
29.28668,0.2874642408735812,0.0
29.29126399999999,0.29012864239963543,0.0
29.29586,0.28613044864971765,0.0
29.300448,0.2850749276710347,0.0
29.305043999999988,0.28659552532114974,0.0
29.309632,0.28660576495288853,0.0
29.314227999999996,0.2818744629180967,0.0
29.31881599999999,0.2822512566922725,0.0
29.32340399999999,0.2758432704763307,0.0
29.328011999999998,0.26072945066082975,0.0
29.332604,0.24753668445477023,0.0
29.337208,0.2345882876770021,0.0
29.3418,0.22507130252705154,0.0
29.346388,0.20901390681527462,0.0
29.350996,0.18960314274119766,0.0
29.355596,0.173379420866647,0.0
29.36019199999999,0.15547901481094628,0.0
29.364771999999995,0.1484498653925373,0.0
29.369368,0.13770079346939118,0.0
29.37395999999999,0.1260522870985973,0.0
29.37856,0.11759082292732963,0.0
29.383148,0.11194984681315118,0.0
29.387747999999995,0.11489251958438605,0.0
29.392335999999997,0.11579195403203393,0.0
29.39692,0.11615850817447093,0.0
29.40149999999999,0.11701380117349067,0.0
29.406096,0.11991233249609741,0.0
29.410688,0.12166705994276494,0.0
29.415271999999995,0.12558721042716522,0.0
29.419859999999996,0.13833537922527017,0.0
29.42444799999999,0.151982982471023,0.0
29.42903599999999,0.16755163932621714,0.0
29.433632,0.17993325398188514,0.0
29.438224,0.19603479114229017,0.0
29.442816,0.21254702389376032,0.0
29.447411999999996,0.22623876858814126,0.0
29.45199999999999,0.23392298302590675,0.0
29.456591999999997,0.23980832856837656,0.0
29.461184,0.24761472772028773,0.0
29.465771999999998,0.2602848532528752,0.0
29.470375999999995,0.27168899019537773,0.0
29.474963999999996,0.28615798462326086,0.0
29.47956399999999,0.2928205798992328,0.0
29.48415599999999,0.3003826096228526,0.0
29.488747999999998,0.30463541243280057,0.0
29.493335999999992,0.3077444113668093,0.0
29.49792399999999,0.31330734421547024,0.0
29.50252799999999,0.3192809726551963,0.0
29.507124,0.32836360002893117,0.0
29.51171999999999,0.33340389220412003,0.0
29.516299999999998,0.33668945693264135,0.0
29.520896,0.33989697839564514,0.0
29.52548799999999,0.34506969491671846,0.0
29.53009199999999,0.3514303567623591,0.0
29.53468,0.3611443869702999,0.0
29.53928,0.3723348733797275,0.0
29.543872,0.38945484678025305,0.0
29.548467999999996,0.4046979080199654,0.0
29.553071999999997,0.42611482567906694,0.0
29.557668,0.44577701589150104,0.0
29.562256,0.47071362807567646,0.0070305996079950625
29.566855999999994,0.49491713197497794,0.014018755021788898
29.571443999999996,0.5234956233983731,0.02105913546315604
29.57604,0.5555496678982138,0.027865066486699275
29.580628,0.5967202415886788,0.034259092775725974
29.585216,0.6372798917084151,0.04094070193445272
29.589808,0.6730980001616211,0.04784482074580817
29.5944,0.7035195019289401,0.05530116384527479
29.59899199999999,0.7327530583716917,0.06261090628804547
29.603576,0.7630862772417542,0.06977997475399042
29.60817199999999,0.7954185929867758,0.07676249218632017
29.612751999999997,0.8242312142067234,0.08385683329734162
29.617344,0.8540213131398364,0.09073717417970094
29.62194,0.8807024131389406,0.09774855883957186
29.626528,0.9033750797563882,0.1048428999505933
29.631123999999996,0.9282912126770861,0.1115972537102483
29.635708,0.9521415849873622,0.11827886286897503
29.64029999999999,0.9776245000301603,0.12482203728537206
29.644884,0.997055743367715,0.13143329196023043
29.649476,1.0151768566665564,0.13809228102209928
29.65408,1.0252030599365674,0.13804419884643396
29.658668,1.0328975140060717,0.13809001232232024
29.66326399999999,1.0421023260939521,0.137804733197939
29.667843999999995,1.0468099659435932,0.13792611377930244
29.67244,1.044199945497906,0.13869050918528386
29.677028,1.0453878908224736,0.13878820971215824
29.681628,1.045676401699393,0.1389615494097721
29.686215999999995,1.0518502581187825,0.1384287302868349
29.690808,1.056635941233941,0.13818867297918053
29.6954,1.0604000051873061,0.13808928964835188
29.69999599999999,1.0646969494458822,0.1380739552961051
29.70458399999999,1.0713256429049651,0.13796786937039082
29.70918,1.076932717202254,0.13800404294646654
29.713767999999995,1.085482464270778,0.13772801351245803
29.718364,1.0964861452539543,0.13732715202799428
29.722952,1.105568772627689,0.13716181459000706
29.72754,1.1156730191632174,0.1369106386845323
29.732128,1.123856212089304,0.13683840233873837
29.736723999999988,1.1335939044823955,0.13672163344807287
29.74131599999999,1.146152084932576,0.13639264960404085
29.745895999999995,1.1642290567827893,0.13562497874297827
29.75049599999999,1.1842270822424439,0.13470993607894116
29.75508399999999,1.1974403277119812,0.13438480600323857
29.759675999999992,1.2117973770574573,0.13388746563961537
29.764272,1.2293414686024597,0.13301751736076017
29.76886,1.2444757676814384,0.13255002437550156
29.77347199999999,1.2629192936740887,0.131662933108764
29.77805999999999,1.281362819666739,0.13083649766132965
29.782648,1.3022161381254134,0.1297076728292838
29.78723999999999,1.3260121293553229,0.12839180472744363
29.791831999999992,1.3435120794516973,0.12741781551767606
29.79644,1.3615007684046545,0.12631157397225357
29.801027999999995,1.37589171956702,0.12540773440627953
29.805632,1.388361617119944,0.12468505407287818
29.810228,1.3986219501865074,0.1239787313431681
29.814835999999996,1.4069612296436294,0.12342273158965013
29.819427999999995,1.4127243904719538,0.12299941906183116
29.82402799999999,1.4187319207285691,0.12249932165843061
29.828608,1.4215082673370298,0.1220813564364113
29.833207999999992,1.4178663880978108,0.12207609208632933
29.837792,1.4100938907627887,0.12221690472079039
29.842392,1.3979464059036733,0.12258996709838274
29.84698799999999,1.3937275049106148,0.12229689857428454
29.851583999999995,1.3884869847557628,0.12209863442968448
29.856176,1.3796487268103195,0.122113280094848
29.86077199999999,1.3657804163214258,0.1223707675021937
29.86535999999999,1.350768301956593,0.12274970436765018
29.86996,1.3295823311723707,0.12353295672091441
29.874552,1.307374741226355,0.12434645017749892
29.87914399999999,1.279526175166161,0.12558084478151113
29.883732,1.262060126886676,0.12599161651586974
29.88832,1.24267302499775,0.1265320317282729
29.892908,1.2261064111659128,0.1268951001727293
29.89750399999999,1.2068414939911323,0.12746192609033374
29.902095999999997,1.1883538265498537,0.12800494243573432
29.906687999999995,1.1690889093750731,0.12859667673853184
29.911284,1.1504790572196488,0.12921430688404614
29.915872,1.1309697706165769,0.12989189030782722
29.92046399999999,1.1160798409658899,0.13021809118313868
29.925052,1.106053637695879,0.13013228813596814
29.92964399999999,1.096560314731079,0.1301301631574468
29.934251999999997,1.0918085334328096,0.12972018319457748
29.938836,1.079616907125066,0.12987447568033744
29.943431999999994,1.0686912694074073,0.12983408071837887
29.948012,1.0595645005850443,0.12967268733847329
29.952604,1.055712153734423,0.1291809301388454
29.95719599999999,1.0518598068838014,0.12868917293921753
29.96178,1.0553251203285083,0.12761540426924714
29.966372,1.053149457659037,0.12701884813971268
29.97095199999999,1.0526504791707154,0.12630768106806892
29.975548,1.0426684173493328,0.12653960223530225
29.98013199999999,1.0316647363661564,0.12692535741835012
29.98473599999999,1.0206610553829802,0.12729846865238237
29.989327999999997,1.017219404123424,0.12691043209534905
29.993924,1.015698806473309,0.12633891398813157
29.99850399999999,1.0167543274519917,0.12561144111830744
30.0031,1.0169104139830267,0.1249453453823909
30.00769599999999,1.0218080421805924,0.12388637800668847
30.012284,1.0236408128927774,0.12317185274856761
30.01686399999999,1.024451964443169,0.12257519018162502
30.02146,1.0255074854218518,0.12187192083281652
30.02604399999999,1.0233759642010087,0.12154325079119908
30.030643999999988,1.030483156884935,0.1205660595269446
30.035232,1.0382454145882183,0.11964445832188077
30.039827999999996,1.047806541186797,0.11864795979339159
30.044419999999995,1.0574898524995213,0.11763680396379028
30.049,1.0701158365834806,0.11644071563447768
30.0536,1.0787775287344112,0.1155878669932553
30.058187999999998,1.0969223042184033,0.11411240450482969
30.062784,1.11494489498825,0.11261798876302644
30.067379999999996,1.1395078963199226,0.11063985508117005
30.07196799999999,1.1676686354421868,0.10843330026891314
30.07657199999999,1.1963622548696615,0.10632362494847869
30.081152,1.2201921479164601,0.10477133994596179
30.085756,1.2408349987637326,0.10354570998674557
30.09035199999999,1.261477849611005,0.10235262362522678
30.09494,1.283797384639428,0.10110225438919183
30.09953199999999,1.299209954963587,0.10037653513942875
30.10412399999999,1.3165435788971875,0.09952108927184816
30.108723999999988,1.335553887011938,0.0986518701940269
30.113312,1.3572624984696318,0.09768625424789498
30.117916,1.3778273060513866,0.09677117518085655
30.12249599999999,1.3905857144812306,0.09642448901271299
30.127096,1.400523634853985,0.09622374038571549
30.131684,1.4054756441319176,0.09636637534600151
30.136284,1.4092838495339108,0.09662493749552045
30.140871999999995,1.4093721324311672,0.09707121300132139
30.145468,1.4131803378331604,0.09732877829832354
30.15004799999999,1.4111031976926844,0.0979320254849888
30.15463599999999,1.410292046142293,0.0983984579176273
30.159215999999997,1.4076820256966056,0.09891615493775659
30.1638,1.4033953210697683,0.09945426565389678
30.16839199999999,1.4004967897471616,0.09981533253148417
30.17297999999999,1.3948999550816112,0.10028045332641827
30.17757199999999,1.3915907281679394,0.10054559953401655
30.182163999999997,1.3855831979113236,0.10090957295844118
30.18676,1.3782655376159951,0.10119616381118354
30.19133999999999,1.3729911156442538,0.10136302145949148
30.195936,1.3669394439390103,0.10152399755243696
30.200516,1.357412219157321,0.10178004546898779
30.20510799999999,1.3450645063185425,0.10216210154334641
30.209696,1.3351265859457881,0.1023139474918197
30.21427599999999,1.32837570777256,0.10222554572768042
30.218884,1.3250562412271492,0.10181957481064667
30.22346799999999,1.326067620757204,0.10105836874302147
30.228059999999992,1.3285893583056347,0.10009465506212221
30.23265999999999,1.3329099647493614,0.09906919163219434
30.23725199999999,1.3330999530972856,0.09810796793491573
30.241848,1.3335343108735014,0.09706272623179131
30.246436,1.3349902878115105,0.09596204602505536
30.251035999999992,1.3345252111400783,0.09495827931656867
30.255616,1.3343045038969377,0.09388816371237588
30.26022,1.329464439701412,0.09299138962605483
30.264807999999995,1.3283442980106233,0.09193275960670182
30.26940799999999,1.3254252874245394,0.0909329484015974
30.274008,1.3236500807143938,0.08981488044084607
30.278608,1.3234293734712532,0.08871441875970763
30.2832,1.3224314164946105,0.08758467534440569
30.287795999999997,1.3196345906226719,0.08649858156066323
30.292392,1.3206798719696158,0.08522993194931139
30.296987999999992,1.322868957192499,0.0838542733227922
30.301587999999988,1.3240364232535888,0.08253828845011309
30.306183999999995,1.3222612165434438,0.08137017715922826
30.310776,1.317831847938983,0.08051062867307862
30.315368,1.3141797290680248,0.07967617515794442
30.31996,1.311959924949925,0.07892048645704557
30.324544,1.3058980136129426,0.07831041835287304
30.329136,1.3030672859241146,0.0777168905470615
30.33373199999999,1.3011359926829345,0.07709870732301438
30.338328,1.3001041338894022,0.07647328384212276
30.34292399999999,1.2982950253623677,0.0758213850580913
30.347508,1.2959971779787507,0.07530554246504972
30.352088,1.2962754492239315,0.07475585216525286
30.356683999999994,1.2964315357549667,0.07424834330838662
30.361271999999992,1.2971205025912127,0.07382177710440886
30.365863999999995,1.2994861536086084,0.07339463756998335
30.37046,1.2998085663024173,0.07307201647371425
30.375048,1.3045059665203198,0.07269714123797202
30.37964,1.3128011045288135,0.0722555045143635
30.384228,1.314966527566546,0.0721178367050303
30.388816,1.3185642653571374,0.0720501755509263
30.39342,1.3248603064906725,0.07193649850292569
30.398012,1.3300125437482684,0.07189848601850517
30.402616,1.3391290729388925,0.07168718749042154
30.407195999999992,1.3453029293582819,0.07160254787322867
30.411787999999994,1.344814190501699,0.07173882986011074
30.41637199999999,1.348167558863999,0.07173657557835379
30.42096399999999,1.3498442430451492,0.07173634435248298
30.42555199999999,1.3534419808357405,0.07167251791378579
30.43014,1.3551186650168905,0.07167553680771546
30.434728,1.3623141405980732,0.07156492838694843
30.439316,1.3687323664457538,0.07143294001582204
30.443904,1.3789926995123172,0.07119395998475603
30.448496,1.3865547292359373,0.07099284605239169
30.453079999999996,1.3914184556166136,0.07082462289622729
30.45766799999999,1.3980810508925856,0.07063871256424081
30.46225599999999,1.4078085036539383,0.07032377076361881
30.46685999999999,1.4158592722341408,0.07001614254813866
30.471447999999988,1.4210895527572538,0.06977816340555316
30.47603999999999,1.4332267979846303,0.06929969867126586
30.480636,1.4430322940115003,0.06877353398796357
30.485223999999995,1.451038921143075,0.06828260737852314
30.48982399999999,1.4659525129789128,0.06757112741353452
30.49441199999999,1.4799666703671022,0.06690274952545305
30.499008,1.4939808277552922,0.06622459752675702
30.50360399999999,1.5140025154000973,0.06532558861000959
30.508192,1.5301820958260204,0.06451878118791211
30.51279999999999,1.5484049145755296,0.06365953959840293
30.517384,1.5635628758396587,0.06292799393699615
30.521972,1.5767997834943464,0.062238151684801714
30.52656799999999,1.583374095873062,0.06170695219679585
30.531159999999996,1.5919916465753645,0.06110442392446847
30.535756,1.594068786715841,0.06062343757873985
30.540348,1.5980669804657586,0.06009270965509457
30.544948,1.6069289005963527,0.05943280566989662
30.54954,1.6103942140410594,0.05882387813100605
30.55414,1.6089958011050902,0.058335590380193196
30.558727999999995,1.6057985192738253,0.05786137805578438
30.563332,1.6055439102137954,0.05731311049193884
30.567912,1.60066994420138,0.056826699153653404
30.572512,1.5927311207035846,0.05643069461034723
30.577111999999996,1.5849144819199348,0.05600223678357385
30.58169999999999,1.5735001053456932,0.05559252283341683
30.586284,1.5575885565332126,0.0551955741728833
30.590876,1.5437202460443191,0.05473086827235865
30.595476,1.5229449708511624,0.05442193378875042
30.60007199999999,1.5090766603622685,0.05394353402345561
30.604663999999996,1.4899780693502618,0.05364657305224197
30.60926399999999,1.4672817405476637,0.05336157744724404
30.613852,1.4472837150880091,0.053065172330237984
30.618452,1.4303505471137352,0.05265945344568557
30.623032,1.4132951944253151,0.0522783465837626
30.62762399999999,1.3962398417368953,0.05188442301747226
30.632215999999996,1.3744429473819448,0.05155855522707736
30.6368,1.3468828921986702,0.05134094453733836
30.64139199999999,1.3208773364824,0.051182030516473784
30.64598399999999,1.296915019089717,0.050944025465750435
30.650575999999997,1.2710316480875925,0.0507378361550678
30.655163999999992,1.2402845507047917,0.05065098608655698
30.65975199999999,1.2101925183413476,0.05063781410487044
30.664348,1.184842027644434,0.050529497227913174
30.668935999999995,1.1554050603003463,0.050600512577741036
30.67354799999999,1.1217594315949386,0.04804891426178422
30.678139999999992,1.0878694334612398,0.045522096439002825
30.68272799999999,1.0519361970039536,0.04305739140496799
30.687324,1.0236871749844332,0.04052350197226174
30.691916,0.9893084379941517,0.0381187608909626
30.696515999999995,0.9573394934698942,0.03561865731247774
30.70109999999999,0.9310115250598153,0.03307686761639104
30.7057,0.9000641996973513,0.030537138522809683
30.71029199999999,0.8697719393542439,0.02806488069847284
30.714892,0.8346159526304602,0.025626722461864922
30.71948,0.8033020731255592,0.023186830662965223
30.724088,0.7813490922395736,0.0207063791401397
30.728676,0.7640154683059731,0.018180322996910418
30.733276,0.7497467018577532,0.015611117319799873
30.737863999999995,0.7381762387524767,0.013080557947627448
30.742451999999997,0.729304078990144,0.010542611335417194
30.74703999999999,0.7223529728372525,0.007949712212980952
30.751636,0.7145024322367133,0.005304973595554031
30.756224,0.7076735107979675,0.0027120744731177877
30.760816,0.7066077501875457,0.0
30.765404,0.7102835312436546,0.0024085919260161837
30.769991999999995,0.7158803659092049,0.0024085919260161833
30.774584,0.7194339622511681,0.0024085919260161833
30.779176,0.7191454513742486,0.0024085919260161837
30.783768,0.7180796907638269,0.0024085919260161837
30.788352,0.7156257568491748,0.0024085919260161837
30.79294799999999,0.7121502037727292,0.0024085919260161837
30.797536,0.7135383770769597,0.0024085919260161837
30.802131999999997,0.71324986620004,0.0024085919260161837
30.80671999999999,0.7159040280943556,0.0024085919260161837
30.81130799999999,0.7153711477891447,0.0024085919260161837
30.815904,0.705599553579164,0.0024085919260161837
