Time,Force,Position
27.676844,0.5588833237007703,0.0
27.68144,0.5599829861280814,0.0
27.686028,0.553398434117627,0.0
27.690628,0.5430939596024356,0.0
27.695216,0.524450205630122,0.0
27.699816,0.5095263741625455,0.0
27.704396,0.4933365541048841,0.0
27.708996,0.47510349572363575,0.0
27.713584,0.45866930623768304,0.0
27.718176,0.43839300953284766,0.0
27.722768,0.41349735587562736,0.0
27.727356,0.3884795175042613,0.0
27.731944,0.36460548300883455,0.0
27.73654,0.34445137101814477,0.0
27.741128,0.32969386571334214,0.0
27.745712,0.31661304458968953,0.0
27.7503,0.308928830151924,0.0
27.754896,0.2987126385339888,0.0
27.75948,0.28747482775426003,0.0
27.764072,0.2749710283844464,0.0
27.768668,0.2599352518344631,0.0
27.773256,0.2509952884383515,0.0
27.777848,0.25113795241597464,0.0
27.782428,0.2590972551772479,0.0
27.787016,0.2832566176279212,0.0
27.791624,0.3159318253302291,0.007619869546749823
27.796204,0.3567563241417346,0.015797472860289614
27.800812,0.40205433300632876,0.02459661579960988
27.8054,0.4589771860565663,0.033185856477126685
27.809988,0.5305897407778277,0.04159125393491062
27.814588,0.6166476277418216,0.04983345924607821
27.819188,0.7126536747103089,0.05817940381796995
27.82378,0.8187300663974351,0.06644209640415372
27.828368,0.9337329989272611,0.07470397011962834
27.832964,1.0522658656139,0.08308471200975467
27.837548,1.180624707590886,0.09141856927534536
27.842144,1.3153339717817745,0.0998521193042372
27.846728,1.4616239387096777,0.1082548491403106
27.851328,1.6206825536991636,0.11660104987035923
27.855912,1.79479742450211,0.12481136676542826
27.860508,1.9827806057939503,0.13292773759341187
27.865104,2.174161296896719,0.14102710917978406
27.8697,2.373226202437253,0.14895126418402174
27.874296,2.5748230851579565,0.15680255338469423
27.878896,2.7655384716096303,0.16474204084289779
27.883488,2.94994757729603,0.16504469588666448
27.888084,3.1310711182539084,0.1646919797719667
27.892668,3.3105416372157874,0.16357973067565018
27.897256,3.479042377011379,0.16266889169420543
27.901844,3.636328968212393,0.161944950696548
27.906436,3.780069661618322,0.1614042259186989
27.911028,3.919625355848082,0.1606385809938216
27.915616,4.047966901483264,0.15996745755495828
27.920212,4.164927972361094,0.1592939012445576
27.924788,4.274228490986308,0.1584676157219824
27.929384,4.37022748124473,0.15771551910831239
27.933976,4.461386407307626,0.156761352968876
27.938556,4.5424749886518825,0.15582685048570039
27.94316,4.6121830952387874,0.15491547464862856
27.947748,4.6675680542971065,0.15412519123106827
27.952336,4.7119832341891374,0.15337714103903047
27.956932,4.750092133315895,0.15259491036787337
27.961528,4.776175732297682,0.15200597330171223
27.966124,4.796896626410472,0.15142117021451662
27.970704,4.821249160130743,0.15063126976694718
27.9753,4.842859249059442,0.1498433287860081
27.97988,4.862259773501781,0.14908291517898797
27.984476,4.874587007077082,0.1484682711031305
27.989064,4.886503545061317,0.14783007946142526
27.993668,4.8963327032733375,0.14719032006729424
27.998252,4.904607362018354,0.1465598867453839
28.002848,4.905686545182188,0.14608057701036467
28.00744,4.907132282488457,0.1455680740250862
28.012036,4.911276323137672,0.14500279467891464
28.016624,4.914276559910947,0.14447751302753772
28.021216,4.920219469455458,0.14387554942882116
28.025808,4.926939628733469,0.14327814495373598
28.030392,4.937379710516217,0.14260749916563753
28.03498,4.949252107051825,0.1419392846615111
28.039568,4.961779568606789,0.1412755853155696
28.04416,4.975084279895256,0.14061279615983957
28.048756,4.988144621755431,0.13997608637585135
28.053348,5.004025451672695,0.13928170499512346
28.057936,5.016963608818726,0.13866068960845307
28.062536,5.028269223232233,0.1381273737939877
28.067112,5.041906586846246,0.13758026067515886
28.0717,5.057631330232476,0.13704682039489957
28.076292,5.076220703124421,0.13651113027416092
28.08088,5.096120206055081,0.13598949341919397
28.085468,5.119905957653252,0.13544457622542774
28.09006,5.149621196242521,0.1348261731762092
28.094648,5.185265921822887,0.1341347923598251
28.09924,5.222220777441967,0.1334580267633609
28.10382,5.259830698080402,0.1327991185773873
28.10842,5.299772367919345,0.1321271228936852
28.113,5.341024167797,0.13147628110596424
28.117596,5.37626843741804,0.13096610688720114
28.122184,5.408447849553699,0.13053685015686964
28.126784,5.439850011955857,0.1301171337812636
28.13138,5.473828292986812,0.1296709072024875
28.135972,5.5056411509800345,0.12928436486615696
28.14056,5.539130693154407,0.12888671851927552
28.145156,5.572742420042925,0.12848746531166844
28.149744,5.610851319169682,0.1280285728355321
28.154336,5.647039164686998,0.12760746208054852
28.158928,5.684370814080253,0.1271640886515646
28.163512,5.716183672073476,0.12680823310807243
28.1681,5.748118714780844,0.1264440405607109
28.1727,5.777722008287705,0.12609210043608673
28.177288,5.8092022139553805,0.1256667425537753
28.181884,5.83859503985084,0.12524130773770764
28.186476,5.865900485974084,0.12481509642902668
28.191056,5.895982278705789,0.12430571956770857
28.195648,5.921933453341692,0.12383038806046827
28.200236,5.947718301814822,0.12331942015864172
28.204828,5.971415770515737,0.12280432117869847
28.209424,5.999444085292116,0.12219468551667138
28.214012,6.027306073905723,0.12154862398848196
28.218608,6.054512997499972,0.12090012406154804
28.223196,6.079388171893713,0.12026459702353498
28.227784,6.106795323467628,0.11956225117946664
28.23238,6.130194041659883,0.11888293814662514
28.236972,6.150239391489839,0.11823154517067434
28.241568,6.1663984926522835,0.11759686424486099
28.246148,6.181614017918453,0.11692421709307106
28.250744,6.193353990108176,0.11628786613793177
28.255332,6.206071440011065,0.11558282267717056
28.259936,6.217967498731823,0.1148339909421087
28.264524,6.231251730756812,0.11404357129038667
28.269124,6.235052879448739,0.11338468410869422
28.273716,6.23627790951187,0.11274750132860895
28.278308,6.233905201784407,0.11214832447653436
28.282888,6.221394345704527,0.11166971605674167
28.28748,6.211948347110029,0.11113686776783763
28.292068,6.2019694682103195,0.11058940851267339
28.296664,6.190191720415314,0.11005901268807422
28.301252,6.174038985096216,0.10956533889883813
28.30584,6.153266892824732,0.1091222566531772
28.310428,6.130940301086244,0.10867890287203877
28.315024,6.105260340985455,0.10825266397819545
28.319616,6.074305958912926,0.10786898848832877
28.324208,6.042574327106894,0.10748245590716804
28.3288,6.010964880015007,0.1070840227792053
28.333388,5.977190009885389,0.10672471421249459
28.337972,5.947912311994009,0.10631674597711724
28.342572,5.9181017337974176,0.10588935758936867
28.347164,5.887680232030099,0.10549951772064771
28.35176,5.857791610567991,0.10512189396499844
28.356348,5.82688136994409,0.10475710700191627
28.360944,5.802755909310305,0.10429654348575619
28.365528,5.780184948143526,0.1038330228159512
28.37012,5.76031229031969,0.10334145624397208
28.374716,5.75033341141998,0.10275531889873635
28.379308,5.738311294196683,0.10220189535610905
28.383912,5.723879384507362,0.10170409727768709
28.3885,5.709325290103895,0.10121161289996033
28.393096,5.698246748776875,0.1006931937976069
28.397672,5.692564814135742,0.10012358522209336
28.402272,5.686516325352171,0.09957603775862568
28.40686,5.684965008806839,0.0989866155009005
28.41146,5.686400506481371,0.09840432231489013
28.416044,5.691067187804057,0.09781462059344122
28.42064,5.699087237489043,0.09721189768659833
28.425232,5.708783971355182,0.09659885591400211
28.429828,5.712595359678846,0.09606790912689417
28.434416,5.719637931650668,0.09553314831914557
28.439,5.729500991679578,0.09496753280970115
28.443592,5.742184539765578,0.09437694980366532
28.448176,5.757199837052082,0.09379254751582233
28.452764,5.774669068253239,0.09321214660014426
28.457364,5.794059353063839,0.09261464716761586
28.461952,5.814226887607941,0.09202230490107167
28.466548,5.829897249913804,0.09146943237682453
28.47114,5.845323242791375,0.09093244960431204
28.475728,5.865612962049621,0.09034269333626876
28.480312,5.891665842136193,0.08969720432063341
28.4849,5.914653864737385,0.08909531911859975
28.489492,5.937519702624429,0.08850655209558837
28.494084,5.970112993272826,0.08782305333817275
28.498672,6.00258409920708,0.08715488514631727
28.50326,6.037342812893209,0.08645056452192168
28.507848,6.073367515169425,0.08572594328096335
28.512436,6.108492782997992,0.08501440881140161
28.517032,6.1466829083119405,0.08426961935812469
28.521612,6.188592956130625,0.08349620327488724
28.526204,6.230747373377602,0.08271900845621204
28.530796,6.274945028948165,0.0819279897571441
28.5354,6.317343815623433,0.08115929730495164
28.53998,6.358310287545843,0.08038555156610826
28.544564,6.391836914458775,0.07966731954332307
28.549152,6.423564672476415,0.07896478533450448
28.553748,6.4554146152082,0.07826094208248136
28.558336,6.490984480444722,0.07753956306431717
28.562928,6.527575964843038,0.07680820401825626
28.56752,6.560203157308325,0.07612103206431724
28.572108,6.588621688412292,0.07549299044441239
28.576696,6.623047749772875,0.07481155484486565
28.58128,6.65849543029525,0.07412621196247485
28.585868,6.681272985285039,0.0735513456358408
28.590464,6.703928355560683,0.072987498519683
28.595056,6.722741618617443,0.07245394939738237
28.599636,6.740777631940701,0.07192264697194813
28.604232,6.758935829978104,0.07138819556219209
28.60882,6.777993462463155,0.07085735377431225
28.613416,6.799094333271794,0.07031269344614723
28.618012,6.818274150470993,0.06978475855334873
28.622592,6.832834610717804,0.06928077990653939
28.627188,6.844452398193381,0.0687991729632749
28.63178,6.857502500421818,0.06833427522473726
28.636368,6.8770930132120816,0.06783852133136077
28.640956,6.896683526002344,0.06734493855185604
28.645548,6.91537460434496,0.06685673228917557
28.650156,6.930223575468692,0.06639439807986466
28.654748,6.945194731306568,0.06592723253251415
28.659352,6.961554060448677,0.06543349339059036
28.663932,6.978646497875659,0.06490367070059198
28.668524,6.992019012797904,0.06439418884078585
28.673104,7.003837028253145,0.06387971866571301
28.677696,7.022684193126794,0.06331302226901579
28.682292,7.039610304391003,0.06275777994232289
28.686876,7.0624217611976805,0.062170571481366184
28.691472,7.081146741357185,0.06161616491141272
28.69606,7.098072852621394,0.06106729982328657
28.700648,7.1112790413808655,0.06053479182652769
28.705244,7.120765307635599,0.06001785013464206
28.709828,7.130251573890333,0.05950226845956021
28.714416,7.143457762649804,0.05897647566933821
28.719004,7.155642332247481,0.058455730493111584
28.723588,7.1675383909682395,0.05790980760122877
28.728184,7.1741600277172575,0.05736703531660877
28.732776,7.181803283628067,0.05681912192436915
28.737368,7.188669289805375,0.05626702572821498
28.741956,7.19757853430627,0.055702108382834174
28.746552,7.208286647702462,0.055138038988287716
28.75114,7.220427075851512,0.05459299703162905
28.755728,7.229136092372745,0.05408548965352552
28.760324,7.2355575011420985,0.05360294106268385
28.764912,7.240346367178928,0.05315686197700864
28.769524,7.239249887673291,0.05273838757843275
28.774116,7.237498343148297,0.052307504531086006
28.77872,7.228717649204894,0.0519170931339665
28.783304,7.220714204994992,0.05152961793843411
28.787892,7.208746468852063,0.05115924876526759
28.792488,7.195390559404901,0.050811783560185425
28.797068,7.177170923577065,0.05048140711047164
28.801668,7.152044323044964,0.05018133192274621
28.806248,7.1209101922562485,0.0499125327848552
28.810848,7.089653876753388,0.049647185046216236
28.815432,7.049980238527888,0.049443539555622786
28.820032,7.00969567673166,0.04926787511538201
28.824628,6.962259780802876,0.04913608784047233
28.829212,6.909593604350978,0.049040857800699396
28.8338,6.847077790423585,0.048990773329967784
28.838396,6.77393508928719,0.04898096199772341
28.842992,6.690165500941793,0.04901380576617495
28.847588,6.605740847577042,0.04903075320055366
28.852176,6.517596271707552,0.04905501445436392
28.856764,6.4231556547045265,0.049081773522897
28.861356,6.327449049111419,0.04912924474287542
28.865936,6.230476454928224,0.04919297253561107
28.870528,6.128762319078498,0.0492736063370656
28.875124,6.021407207114596,0.04937197873248752
28.879716,5.915973148760133,0.04946007336696334
28.884296,5.803343614824489,0.04955236905298588
28.888892,5.690469711460552,0.04966237004229671
28.89348,5.5786174272584095,0.04976888227389394
28.898068,5.462023601389736,0.04989969087276536
28.902664,5.341709853016327,0.05004137976708364
28.907244,5.220208159318349,0.05014868266800288
28.911832,5.095885977563284,0.050270503836613224
28.916428,4.973074153826593,0.0503489757880285
28.921016,4.847564026746959,0.05043707283015292
28.925612,4.723974953276766,0.050526800531746296
28.930204,4.6035729220061,0.05058061210210707
28.9348,4.485580683201457,0.05058959865608397
28.939388,4.363379783035494,0.05065210414742983
28.943984,4.2393800139742375,0.05072033791059047
28.948564,4.11730129852242,0.050777607094951875
28.953164,3.9907254108323644,0.050851122901119546
28.957748,3.8574869278663364,0.050977929923760414
28.962336,3.726047313795605,0.051121133941077895
28.966928,3.5994714261055494,0.05122262213891135
28.971524,3.465089139263582,0.05141922694026248
28.976112,3.334426774926352,0.05160706412653649
28.980708,3.206052018341001,0.05173030326411935
28.985296,3.0776772617556496,0.05186473579800219
28.98988,2.9533889818174726,0.05194102938539091
28.994468,2.8316768205080933,0.05204654262322374
28.999056,2.713318027561014,0.05218108908239089
29.003648,2.595325788756372,0.05226551610066092
29.00824,2.4719810847144705,0.052536559297226504
29.012836,2.353377922339099,0.05277954745070661
29.017424,2.2359185638396677,0.053004909676170144
29.022016,2.1191142703595927,0.05328184810375992
29.026596,2.0009218035752867,0.05373371078273031
29.031184,1.887593063171658,0.05413970951491864
29.03578,1.7760631916633245,0.05157248910818538
29.040368,1.6662100043361407,0.04901354753633722
29.044956,1.5657177156278732,0.04642860354780956
29.049552,1.4727874566432246,0.04379729005127641
29.05414,1.3827998704298115,0.04113826721333701
29.058732,1.2925679147881068,0.03850897460306568
29.063328,1.208998554422374,0.035800460968864085
29.067924,1.1278831279712935,0.0330963855540155
29.072512,1.046034593235339,0.0304449417132137
29.077112,0.9679059810041217,0.02777918661088645
29.0817,0.8933751065634957,0.025146994769472738
29.0863,0.8190886015511613,0.022480856345345086
29.090888,0.7485220190435635,0.01980019467298741
29.095488,0.6793877512888247,0.017154798750742255
29.100072,0.621779805190734,0.014352094794530736
29.104668,0.5675252274549434,0.011560073253224602
29.109264,0.5185450716908944,0.008768392954771116
29.113856,0.47226321926978876,0.0059445045153782225
29.118456,0.4341984615916595,0.0029655670374847407
29.123056,0.3978103880946802,0.0
29.127648,0.3668189212835881,0.0
29.132248,0.3394251922630874,0.0
29.136836,0.30986604020485403,0.0
29.141424,0.27916308427068137,0.0
29.146012,0.24911519335586527,0.0
29.150612,0.22074398662219918,0.0
29.1552,0.19891319045035938,0.0
29.159796,0.17912563260210665,0.0
29.164388,0.16510123558217807,0.0
29.16898,0.15185408829575164,0.0
29.173576,0.13811820215274256,0.0
29.178164,0.12581463076259208,0.0
29.18276,0.11506555883944602,0.0
29.187356,0.10995746303047839,0.0
29.191944,0.1029283136120694,0.0
29.196548,0.0952440991743039,0.0
29.201136,0.08743770002239272,0.0
29.205748,0.08527227698466,0.0
29.21034,0.08551664641295136,0.0
29.214936,0.08281834307000781,0.0
29.219532,0.08101947417471211,0.0
29.224124,0.07729955166997503,0.0
29.22872,0.07832117083176855,0.0
29.233316,0.08114165888885778,0.0
29.237908,0.08768206945068409,0.0
29.2425,0.0945890341549474,0.0
29.247092,0.09471121886909308,0.0
29.251684,0.09740952221203664,0.0
