Time,Force,Position
26.791495999999995,0.6079626964676494,0.0
26.796088,0.5986798411142513,0.0
26.800667999999995,0.5888641054556424,0.0
26.80526,0.5762278817399442,0.0
26.809852,0.5598717355195092,0.0
26.81444,0.5423717854231349,0.0
26.819036,0.5263041500796193,0.0
26.823623999999995,0.5072938419648687,0.0
26.828212,0.48930515301191174,0.0
26.832808,0.46759654155421765,0.0
26.837396,0.4437225070587908,0.0
26.841988,0.42099227643930315,0.0
26.846568,0.39826204581981556,0.0
26.851164,0.3755318152003279,0.0
26.855756,0.35447826876199034,0.0
26.860356,0.3320365490194222,0.0
26.864936,0.30851128339399403,0.0
26.869536,0.2831871488732702,0.0
26.874132,0.25786301435254627,0.0
26.878727999999995,0.23356049899361594,0.0
26.88332,0.2104017875106248,0.0
26.887916,0.18393384911396177,0.0
26.892508,0.15914259489844873,0.0
26.897096,0.13512859041643788,0.0
26.901684,0.11393507399151624,0.0
26.906276,0.09466261117603601,0.0
26.91086,0.07551233307470143,0.0
26.915456,0.0601746230943868,0.0
26.920044,0.05502944254685681,0.0
26.924636,0.06571776754628991,0.0
26.929232,0.08810897999688384,0.0
26.933816,0.12285814491799515,0.01097796052270539
26.9384,0.1673891436808259,0.021555732438013293
26.94298,0.22141346540845663,0.03180631680518052
26.947572,0.2854639904060982,0.04159183433454504
26.952155999999995,0.3635050106067791,0.050835092425723365
26.956748,0.4543324641414808,0.05977121432331823
26.961336,0.5569849898414889,0.06838245765899303
26.965928,0.6696637188115079,0.07683099973515162
26.970516,0.7912248471755986,0.08523350421176308
26.975112,0.9216683749337609,0.09359624084177494
26.979704,1.057152194867112,0.10212331280976024
26.984308,1.2060155864327742,0.11042297704287264
26.988896,1.3614296281920013,0.1187432696703797
26.993496,1.5245381240207327,0.12701520302838873
26.998084,1.6964848777949075,0.13518001591994896
27.002683999999995,1.8732614561328693,0.14332937234030343
27.007268,2.050600453873905,0.15145207626613794
27.011868,2.2186463566298036,0.15960379447268308
27.016452,2.3761331758104807,0.16771334564104906
27.021048,2.5257592147588794,0.17576611386694058
27.02564,2.66331581211368,0.1729026389371518
27.030235999999995,2.7959984434560665,0.17038814761818297
27.034832,2.926383227414835,0.1680683569897437
27.039432,3.04739687312295,0.16623123807030493
27.04402,3.1598166303139124,0.1648758302795785
27.048616,3.2618436300924265,0.16385927967302977
27.053204,3.3534778724584937,0.16315922669841074
27.057787999999995,3.437051106612619,0.16263066577220225
27.06238,3.5138293211448883,0.16214280018962893
27.066984,3.5829130816076527,0.16171431121231183
27.071576,3.6482666799339416,0.16112706320684408
27.076164,3.7017952060949244,0.16074534829802437
27.080756,3.750327581529346,0.16032146381783371
27.085344,3.7885113409999476,0.1600912072819899
27.08994,3.820965841459115,0.15992320279715255
27.094528,3.8555416235073863,0.15960635696045286
27.099124,3.896535631403339,0.15912819356225288
27.103708,3.9420268115375308,0.1585363592330906
27.108296,3.9864963725099285,0.1579902933646505
27.112908,4.031620998501683,0.15746346128896874
27.117484,4.080054851407109,0.15680258021361354
27.12208,4.125257520664381,0.1562047544732448
27.126676,4.165963017683414,0.15574319550144655
27.131268,4.2087117530260345,0.1552167459392876
27.13586,4.24655262053935,0.15477832752560938
27.140448,4.288069269108774,0.15418440994309815
27.145048,4.328275787639485,0.1535873808687653
27.149636,4.368926903578151,0.15288739127707485
27.154232,4.413253800572926,0.15205237550007064
27.158815999999995,4.458558175280867,0.1511307079972197
27.163416,4.505617277435475,0.15012109661977707
27.168012,4.547524142332486,0.1492000893774997
27.172604,4.587221442743138,0.1482958049571947
27.177184,4.63390375112357,0.1471153935376293
27.18178,4.6769441802647815,0.14596408522861282
27.186367999999995,4.713644426823832,0.1449239362499385
27.19096,4.741961252477131,0.1440452373951736
27.195552,4.769745197825219,0.14317276725461342
27.200136,4.794542328953444,0.14231167533170425
27.204724,4.815575396128304,0.1414770673644138
27.209312,4.83505396383616,0.1406676249440322
27.213896,4.857963943171834,0.13974892028950103
27.218484,4.880707596344733,0.13878519132502076
27.223071999999995,4.898665566402474,0.13787155586037614
27.227647999999995,4.921487262840889,0.1368456188264392
27.232244,4.936624744841542,0.13600148962690695
27.23684,4.950207727375189,0.13516711373959134
27.241428,4.960603667709311,0.13443126995309498
27.246024,4.962782513300454,0.13385964103203862
27.250612,4.964061924443951,0.1333084066418917
27.255199999999995,4.964319716425654,0.13278922387217637
27.259796,4.968541800340386,0.13217212940252873
27.264396,4.972886068969262,0.13154308823525523
27.268992,4.977108152883994,0.13093725934948522
27.273572,4.981085867370433,0.1303507930856987
27.278168,4.979833301333761,0.12989819294815774
27.282751999999995,4.978091996440504,0.12948652674394973
27.287352,4.971731334594864,0.12916131954395468
27.29194,4.9706450947209655,0.12875704506891325
27.29654,4.9711133543140695,0.12834307617073495
27.301124,4.968516756421795,0.12800466406524255
27.30572,4.962610931615847,0.1277636638554909
27.310312,4.95838179099105,0.1275044546518745
27.314908,4.959304887623848,0.12718061769823685
27.319496,4.958062561218914,0.1269179350981258
27.324092,4.960784526747008,0.12656686288013166
27.32868,4.968780914246844,0.12614519745748187
27.333268,4.976655117032535,0.12573206715052482
27.337855999999995,4.987349807875313,0.1252652524219889
27.342452,4.995879075680359,0.1248579507712184
27.34704,5.002853844018401,0.12446114954083311
27.351636,5.01354853486118,0.12400624149282714
27.356227999999994,5.03066145155164,0.12345824282177087
27.360816,5.0408674035378365,0.12305301749676736
27.365407999999995,5.056059266618855,0.12255046487061219
27.369996,5.078035909689992,0.12191677443780882
27.374592,5.101278541351212,0.1212408371568611
27.379176,5.128118910803025,0.1205167265288636
27.383764,5.153404780787834,0.11980949401914437
27.38836,5.182288388563233,0.11906351222417405
27.392948,5.214481223252304,0.11823446482513503
27.397535999999995,5.2453639279026625,0.11738972918022171
27.40214,5.2722823406199915,0.11662448953853011
27.406728,5.298301318889674,0.11588320558952178
27.411331999999994,5.322643612978204,0.1151576507569537
27.415928,5.3525046984667695,0.11436943331136822
27.420524,5.378890230878889,0.11362749952161307
27.425112,5.410383859099975,0.1127933359498835
27.429708,5.443431986788066,0.11196286751435709
27.434292,5.480566591123332,0.11106013028710036
27.438892,5.519133510211456,0.11017207997081864
27.443484,5.551570714328818,0.10940677645258799
27.44808,5.57902200735136,0.10874284135128505
27.452672,5.60929378843099,0.10803547892244177
27.457268,5.636500712025239,0.10739691865413874
27.461864,5.665628689228929,0.1067433705792662
27.46646,5.695656100880269,0.10608543933418352
27.471056,5.724784078083958,0.10544372849557684
27.475656,5.755466554754653,0.10481022071219527
27.480248,5.782795663063048,0.10420454365528996
27.484832,5.810413282248363,0.10363866605382964
27.489424,5.843060953977128,0.10305149688769805
27.494012,5.880572352086569,0.10239989700763248
27.4986,5.916162696586567,0.10177851254618976
27.503192,5.9544513444295095,0.10113601310751705
27.507788,5.989020069767715,0.10055033906788087
27.512376,6.0243660448394225,0.09996905755069857
27.516972,6.057546596873399,0.09943909938347986
27.521552,6.089294834154516,0.0989056286841033
27.526132,6.1172009642167495,0.09842313649580495
27.530728,6.144574213973774,0.09792988475258044
27.535308,6.174723810339259,0.09735906333026052
27.539896,6.202541657504236,0.09678692054638341
27.544492,6.230848243525796,0.09618632642713539
27.549088,6.256456526204413,0.09560798574527325
27.553692,6.2773232672165,0.09508631047275366
27.558276,6.295369520171497,0.0945941023038768
27.562872,6.311983458373635,0.09409473502191204
27.567452,6.324344593765824,0.09361655790089818
27.572044,6.336705729158015,0.09314035885047646
27.576623999999995,6.34697948477799,0.09264777322487192
27.581228,6.355288045339895,0.09213487760487084
27.58582,6.359343803091853,0.09164066070247334
27.590412,6.365154288290478,0.09109006500836715
27.595008,6.368633024288598,0.09053730765578251
27.599592,6.36749240333433,0.09002179873164029
27.60418,6.364020033179559,0.08950161547637575
27.608776,6.358338098538424,0.0889704309995018
27.613368,6.352778348611437,0.08843220886961325
27.617951999999995,6.347707337541033,0.08786341731898396
27.622544,6.338016969518242,0.08732800039494532
27.627128,6.329103851228956,0.08679505129885029
27.63172,6.319291298492019,0.08626413273984306
27.636312,6.314098102707469,0.08570288704372934
27.640908,6.309271461065355,0.08511702576393658
27.645488,6.304933558279823,0.08450078207956037
27.65008,6.3046821321414654,0.08383556246815863
27.654668,6.303409086841314,0.08318097763756573
27.659264,6.3039349104364595,0.08251549688994052
27.66386,6.304216364603313,0.08186539340376515
27.668448,6.306296687665463,0.0812069804524436
27.673044,6.306089402975734,0.08058835798188696
27.677632,6.308336052200657,0.07997040222822173
27.682236,6.308050724245411,0.07940602571942783
27.686828,6.30956426518546,0.07883392394415716
27.691416,6.31414266361089,0.0782256570906389
27.696012,6.324117668722206,0.07759544211903394
27.700604,6.333726119691086,0.07698679577874162
27.705196,6.3420685820698806,0.07640425580918937
27.709788,6.35364222809683,0.07583058624116079
27.714388,6.371634099971459,0.07522310481419932
27.718968,6.392202090474888,0.07461879171036458
27.723564,6.421475914577874,0.07395324521538951
27.728152,6.443964958690745,0.07334692257305267
27.732748,6.470828990327708,0.07273426656319282
27.737344,6.505787931993502,0.07210340754699998
27.74194,6.5396030697833565,0.07149690620805105
27.746528,6.578814814259097,0.07087738724799951
27.751124,6.61994761234428,0.07025173346570486
27.755708,6.661324779857754,0.06961592453653083
27.760304,6.701435958781143,0.06900747315611444
27.764892,6.743468191313974,0.06839032141711064
27.769484,6.7857447932750965,0.06776617816403972
27.774072,6.831086252721599,0.06711907647775012
27.778668,6.877204961901603,0.06648387971420197
27.783256,6.9241009208151105,0.06585858825268483
27.787852,6.965355903614439,0.06526678351937466
27.792444,7.008531940023208,0.06466736008606286
27.797032,7.054772833917359,0.06404648169953102
27.801632,7.09766035944921,0.06342779325584548
27.806208,7.138093951066408,0.06281046439679408
27.810804,7.174030370445367,0.06220947437636635
27.8154,7.201138771510621,0.0616691078077959
27.819987999999995,7.226692673108871,0.0611173724181618
27.82458,7.2515915096877634,0.06056205420854901
27.829168,7.263409525143006,0.060057981240588455
27.833756,7.272529237255303,0.05955939966790566
27.838352,7.273309669910478,0.059086802034463565
27.84294,7.268571311165619,0.058628402141056996
27.847532,7.264199506563199,0.058152223259508196
27.85212,7.25671870302677,0.05765479006902145
27.85672,7.246539596147397,0.05716054000841127
27.861308,7.229697893992053,0.056689630460121265
27.865911999999994,7.207992465456032,0.056241477662113355
27.870496,7.1788471919105366,0.05581117068840755
27.875096,7.1477808647556,0.05538770382019666
27.879687999999994,7.118635591210104,0.054953874972939076
27.88428,7.08666982960752,0.05452704609393581
27.88886,7.0490630918907575,0.054114713383328586
27.893448,7.0092909311362614,0.05371852956852403
27.898036,6.966209543468094,0.05335179220300867
27.902632,6.919041679152752,0.05300868387539769
27.907219999999995,6.871873814837411,0.052661705256314355
27.911812,6.829980372493809,0.052313800163228515
27.916391999999995,6.7790145424082136,0.05201794894666961
27.920988,6.7316464501132085,0.051715282904457927
27.92558,6.68186856535218,0.05144217646722319
27.930167999999995,6.636710037543535,0.05115622645258302
27.934764,6.591962205325956,0.050891498345293065
27.939344,6.542516972890477,0.050683631768039
27.943936,6.494914750798919,0.05051641395517431
27.948528,6.444902736241337,0.05038029766761489
27.953116,6.403107816426732,0.050231132017665645
27.957716,6.362090146345629,0.0500860666550726
27.962304,6.322626975731532,0.04995100497274417
27.966892,6.27932169789855,0.04982818025583878
27.971488,6.229764520380662,0.049753646193032894
27.976076,6.178164104539187,0.049690832886045186
27.980672,6.1281181881647155,0.049638605445215575
27.985268,6.077950087076099,0.04959133016439721
27.989872,6.027781985987482,0.0495426132785948
27.994448,5.9765922657370725,0.0495013112236282
27.999047999999995,5.927201414381958,0.04945694863994288
28.003628,5.8701263485890784,0.049441716969733485
28.008236,5.817137759443374,0.049396254037305284
28.012828,5.7610843128122875,0.04937261066517276
28.017424,5.705153050895347,0.049342052178674885
28.022016,5.6424370089882885,0.04934169097186956
28.026608,5.579598782367084,0.04935004934917241
28.03122,5.516105490726524,0.04934519180383633
28.035812,5.450158265171311,0.049325431290119195
28.040416,5.383433789882596,0.04929889953165225
28.045012,5.306448981527317,0.04929632186491839
28.0496,5.225744250667303,0.04930204725514185
28.054196,5.148881627026169,0.049287859059075415
28.058775999999995,5.070997384223243,0.04928116178796529
28.063364,4.991680826667459,0.04925325030493167
28.067952,4.9112204652357345,0.049243298412434175
28.072544,4.831781722965803,0.049219834881874064
28.077136,4.749400307924638,0.04921520374626769
28.081728,4.662932416236298,0.0492526862985825
28.08632,4.5794071973191945,0.049271414659970904
28.0909,4.489097198411972,0.04933225376784276
28.095492,4.398009949771248,0.04938819231995102
28.100083999999995,4.3048794628069365,0.04946261483462107
28.104664,4.211993345270916,0.049518591853452636
28.10926,4.116408924391953,0.04957817819766947
28.113852,4.026465479627168,0.04961519465499464
28.11844,3.932024862624144,0.049661782110642795
28.123036,3.8368069958876165,0.04969695868360458
28.127632,3.7396680755416494,0.049744134076918765
28.132228,3.6397086671385916,0.04981214373273297
28.136824,3.542447562078479,0.04988276305422806
28.141416,3.445064272304219,0.04997511285388423
28.146004,3.3392195183586924,0.05011677339499845
28.150604,3.2373390563461935,0.05020392406473399
28.155196,3.1391785168384323,0.05027454913956433
28.1598,3.039219108435375,0.050361860028623355
28.164387999999995,2.932597104756346,0.05050348297210567
28.168988,2.8262194705056083,0.05062104576355435
28.173584,2.7222516287208944,0.050663644606623634
28.178176,2.617384352488533,0.05069658096364618
28.182768,2.5134165107038187,0.050767935107005925
28.187363999999995,2.4139458411573442,0.05083966280729092
28.191956,2.314352986896724,0.0509508153119741
28.196552,2.2145157632078125,0.05112004473242608
28.201144,2.119297896471286,0.05125927213700522
28.205735999999995,2.020360107230023,0.05143058390513273
28.210324,1.927185478817083,0.05151743702332542
28.214912,1.8367091537470872,0.05158586316170528
28.2195,1.745089024801152,0.05176113067568374
28.224092,1.659109871969395,0.051879742984237746
28.22868,1.5737857841569949,0.05211458024326328
28.233267999999995,1.489483315506388,0.04954998888414075
28.237863999999995,1.4105774535416686,0.04695518310504579
28.242456,1.328362364663277,0.04441352772492742
28.24704,1.2477017752518897,0.041886475333553747
28.251624,1.172804346668827,0.039331117047603316
28.256212,1.098684167819266,0.036741917939551914
28.260808,1.0270179228843574,0.034164780248304646
28.265396,0.9588272310258947,0.03162745378882172
28.269984,0.8906365391674319,0.029109637049534676
28.274588,0.8274317584037908,0.026526610620122924
28.279176,0.763327543192502,0.023939130215374513
28.283772,0.7021660007524481,0.02130912458667434
28.28836,0.6430476966359813,0.018630555543020573
28.292956,0.5845844575388709,0.01597761046723626
28.297536,0.5288195217847043,0.013305277099056914
28.302136,0.4717885974404525,0.010698539190668993
28.306728,0.4182332261726466,0.008120250516372086
28.311328,0.37223988462846047,0.005430844092302399
28.315908,0.3290670311413636,0.002775944883489685
28.320504,0.290757904034943,0.0
28.325095999999995,0.25796756832855516,0.0
28.329692,0.22722047094575443,0.0
28.334292,0.19917167690589724,0.0
28.338888,0.1750871747990684,0.0
28.343475999999995,0.14769344577856777,0.0
28.348071999999995,0.128638996215189,0.0
28.35266,0.11048398109945817,0.0
28.357244,0.09400565016487736,0.0
28.361836,0.08088068759259659,0.0
28.366428,0.07123127809676158,0.0
28.371016,0.06440235665801576,0.0
28.375595999999994,0.060271738562213524,0.0
28.380192,0.06039392327635919,0.0
28.38478,0.05793998936170698,0.0
28.389371999999995,0.05626330518055695,0.0
