Time,Force,Position
28.565480000000008,0.6939216546416895,0.006607783265150493
28.570116000000013,0.678587127583048,0.0044032027020326665
28.574764000000016,0.6592883085913779,0.002244625362020029
28.579392000000013,0.6404782284562907,0.0
28.58402000000001,0.6234670172164989,0.0
28.58865600000001,0.6072330557102095,0.0
28.593288,0.5871569869850373,0.0
28.597919999999988,0.5686354177268693,0.0
28.60256000000001,0.5506467287739124,0.0
28.60720000000001,0.5285715631737811,0.0
28.61183600000001,0.5139362425831242,0.0
28.616464000000008,0.5039202789448523,0.0
28.621095999999994,0.4945593803259367,0.0
28.62572399999999,0.48765241562167333,0.0
28.63036,0.48050108148911863,0.0
28.634987999999996,0.4695076401376812,0.0
28.639628000000016,0.45982432882495683,0.0
28.644260000000003,0.45463818975047166,0.0
28.64890800000001,0.4465093779047517,0.0
28.65355199999999,0.43879126165009674,0.0
28.65818400000001,0.42637574517753946,0.0
28.66283999999999,0.4134375880315101,0.0
28.667468000000014,0.4150669478423589,0.0
28.67210399999999,0.43094141191627716,0.0
28.676736000000005,0.4613053496815561,0.007782017479881376
28.681376,0.5111446722330177,0.015206630445049146
28.68600800000001,0.5791492495319489,0.022523674340612
28.690652,0.6606997246259649,0.02980806082688405
28.69528,0.7526090553155392,0.03728625983222671
28.69991200000001,0.8570426646384048,0.044879327348166624
28.70456000000001,0.9678708376238003,0.052653300756212405
28.709204,1.0875475081863784,0.060531463593038765
28.713840000000005,1.2186046535063082,0.0684256174958466
28.718488000000008,1.361408827726027,0.07630005453231191
28.72311200000001,1.5195577686361263,0.0841029782534608
28.727756,1.6870439459799909,0.09201522706601553
28.732400000000013,1.8660327827953527,0.09993759402593536
28.737032,2.05742371352986,0.10784573898156052
28.74167600000001,2.2667355295835456,0.11566494312340127
28.74630400000001,2.4906148625941094,0.12340387920656569
28.750944000000004,2.7360467205313324,0.13099131802688493
28.755584,2.9976242570775886,0.1383776395797082
28.76020800000001,3.2520741216764426,0.1457002795123699
28.764848,3.4950993700693167,0.15297871129517854
28.76949200000001,3.7260449372368534,0.15241244695808906
28.774124,3.9364493590077863,0.15221751685255774
28.778768000000014,4.133674437126071,0.15209580340710968
28.78341599999999,4.320540659648798,0.1519333329228404
28.78806,4.49945781904199,0.1515104776423045
28.792696000000007,4.669526480858,0.15090316190224176
28.797336,4.830047438628842,0.15002855748309513
28.801964,4.975501900954485,0.14903739434411623
28.806612,5.1059340092835575,0.14803129232098058
28.811252,5.223919882244855,0.14699398534749958
28.815888,5.327005585923727,0.1459726198428914
28.82053200000001,5.418788858110764,0.1448278971154654
28.82516000000001,5.49783738405311,0.1436074455528155
28.829788000000008,5.562596664283756,0.1423302859579505
28.834419999999994,5.608202972422029,0.14111646313515885
28.83904799999999,5.636210807934932,0.13994295234704243
28.84368800000001,5.644088193642297,0.13889400562618695
28.84832,5.63384446605082,0.13801446563271894
28.852948,5.6176271100196145,0.1371565428103139
28.85759200000001,5.599688928358632,0.13626295583840406
28.86223200000001,5.57582125970655,0.1354353859304386
28.866863999999996,5.553219579644552,0.13455573599579912
28.871496000000008,5.523011728410307,0.1337618279313407
28.876127999999994,5.485197706003813,0.13305555306545183
28.88076000000001,5.438755893263278,0.13246061533030704
28.885400000000004,5.388838527446297,0.13190538362423543
28.890028,5.334223761411413,0.13149156124431033
28.894676000000004,5.285416297653481,0.1310047326780206
28.89931999999999,5.242127625295584,0.1304118095605787
28.903952000000004,5.194752476290511,0.1299113171210027
28.90859599999999,5.146522034286419,0.12947463496796618
28.91322400000001,5.102910949234713,0.12894622010381215
28.91785200000001,5.061020689812783,0.12844747659615124
28.922488000000016,5.020362517164049,0.12801966312500007
28.92711600000001,4.981958050450306,0.12764261247027997
28.931748,4.94580728967155,0.1273162983962066
28.936384000000004,4.913586919008933,0.127023930200195
28.941012,4.8855413078907475,0.1267451070980787
28.945644000000016,4.860282283012763,0.12653664526135694
28.95027200000001,4.833723367727804,0.12649785188247678
28.95490799999999,4.811994277006632,0.12648397308377043
28.959543999999998,4.79611663001104,0.1264665222353893
28.96418,4.792753022017002,0.12631893086781773
28.96881200000001,4.799738029986784,0.12610214802753694
28.97345200000001,4.820547206996831,0.12577210889912732
28.97808000000001,4.848762327199461,0.12544135802592352
28.98272800000001,4.888059171650785,0.12498646564044474
28.987371999999997,4.925889799532363,0.12465765215168367
28.992008,4.961887656701754,0.12448351457845705
28.99665200000001,5.008356314549111,0.12423624246976886
29.00128000000001,5.059899166388546,0.12399384069816226
29.005908000000005,5.117049092525269,0.12379599642798848
29.010539999999992,5.175675474863481,0.12365830845660368
29.01516799999999,5.23908754031685,0.12349717866564881
29.019812,5.3103501463707605,0.1232506849875966
29.024452,5.387297869987476,0.12296996580185363
29.029088,5.47041945002358,0.12262612848537575
29.033724000000007,5.554851160098399,0.12230046026485142
29.03836799999999,5.6431249773921,0.12191388988120284
29.043000000000006,5.73957174798015,0.12136477685398538
29.047624000000013,5.844846536881904,0.12068405064040486
29.052264000000008,5.945868522973709,0.12005229916075061
29.056895999999995,6.043537140703216,0.11947360824040536
29.061532,6.1333552178321815,0.11898144861642343
29.06616,6.217610362112487,0.11853341383568672
29.07080400000001,6.295647508524776,0.11811009509371746
29.075444000000005,6.36710010292661,0.11774148937369637
29.08008000000001,6.440018913898192,0.11727961472162908
29.084732,6.5164471797631105,0.11669314417962752
29.089376000000016,6.585469502435444,0.11611211248553588
29.093999999999998,6.653748477191165,0.11544643161208289
29.09863999999999,6.709102717354268,0.11484655426642829
29.103284,6.762036925419608,0.11416693989196017
29.10791599999999,6.809364059187659,0.11346987091708766
29.11255600000001,6.846220392277744,0.11282166497263088
29.117196000000007,6.873094663546446,0.11218584468637588
29.12183200000001,6.887454895813598,0.11162446847749867
29.126464,6.895186434621664,0.11105123241817284
29.131100000000004,6.896944344990005,0.11047517641976617
29.13574,6.888764334985591,0.1099518069723473
29.140379999999997,6.865127613208391,0.10953532332436353
29.14500799999999,6.838093381620262,0.10909072772324897
29.149655999999997,6.804718967449969,0.10865827811522517
29.154300000000006,6.76986809707819,0.10817253754716841
29.15894,6.727899794390744,0.1076974689011232
29.16358,6.6849879158070245,0.10718094733955252
29.168204000000003,6.637534723536435,0.10665549095248372
29.172844,6.583374794541246,0.1061585823202789
29.177483999999996,6.521486509659662,0.10570359953021265
29.18212,6.4609863980823095,0.10520002234700261
29.186744000000004,6.3920248223336875,0.10478320550933354
29.19138799999999,6.323962681032716,0.10435224471401174
29.196020000000004,6.250015194189273,0.10399266114593667
29.20066399999999,6.174801718755746,0.1036558103301241
29.20530400000001,6.101142742789223,0.10331185927140446
29.209944000000007,6.031736569632648,0.10293437671438371
29.214587999999992,5.966827568714312,0.10251107764077944
29.219235999999995,5.905271936158278,0.10206363184650775
29.22386,5.8450264336409585,0.10162438800690374
29.22850400000001,5.787889930057646,0.10117789784675493
29.233148,5.736316359322994,0.10071823400321527
29.23778000000001,5.689406286989356,0.10025369550500146
29.242439999999988,5.645605213589725,0.09978414231917716
29.247072000000003,5.604790954409958,0.09931768881748614
29.25169600000001,5.571094127545857,0.09884050994250163
29.256339999999994,5.540017560759181,0.09839421718408105
29.260984000000008,5.516058426288171,0.09793989365945424
29.265615999999994,5.499216724132826,0.0974788576049749
29.270260000000007,5.484628727912471,0.09707531288861972
29.27488400000001,5.46767508067472,0.0967787494706575
29.279528,5.461148092666305,0.09641276226874256
29.284167999999998,5.46276015613535,0.09602891614623184
29.28880000000001,5.4753317591389425,0.09559578592631685
29.293440000000004,5.49473228358128,0.09513113001498857
29.29807600000001,5.520595175319927,0.09466045600343029
29.30270400000001,5.550344315726085,0.09420129744733785
29.30735200000001,5.5859007584091955,0.09373131435284329
29.311988000000014,5.628163937816905,0.09324860032568993
29.31662399999999,5.67725603866336,0.09274633581810202
29.321268000000003,5.7321554417867695,0.09223890276867536
29.325908,5.79118546300598,0.09172714911384677
29.330535999999995,5.8535688525874905,0.09121534431124527
29.33518000000001,5.921104479426597,0.09069012119076664
29.339816000000013,5.995591212418594,0.09014290022072063
29.344456000000008,6.07571892152477,0.0895632749829777
29.349099999999996,6.156623880364449,0.0889911712915801
29.353732000000008,6.2403493272612165,0.08841134883739121
29.358375999999996,6.323952589443838,0.08784953405539658
29.363024,6.412541762721283,0.08723400856036069
29.36766399999999,6.508815150436492,0.08654971429684517
29.37229600000001,6.599447562037523,0.08592357530521275
29.376936,6.685172105809249,0.08531019208937007
29.381568000000016,6.768931454522907,0.08468781744467281
29.38620800000001,6.847949261570032,0.08411513215910077
29.390848000000005,6.926800742454385,0.08352158377678243
29.39549199999999,7.0033204741382304,0.08293337414185666
29.400136000000003,7.076731206888067,0.08234994827077273
29.40477200000001,7.1433130181991595,0.08179477242028296
29.409403999999995,7.2012670391762095,0.08127263540121837
29.41404399999999,7.253535942590453,0.08075629816768473
29.418676000000005,7.302940216498979,0.08022393103216562
29.423316,7.349479860901789,0.07967830328115863
29.42794800000001,7.390090018313501,0.07914712219397807
29.43257600000001,7.424237808428903,0.0786179383618488
29.437211999999988,7.446937320153174,0.07813088232621625
29.441856,7.466527832943438,0.07763472648858698
29.446487999999988,7.476468936237865,0.07716849592479075
29.451120000000003,7.48366759474072,0.07667537529367842
29.45576800000001,7.485058950966625,0.07618366834943115
29.460399999999996,7.478844136020281,0.07570038771407207
29.465048,7.474506233234749,0.07516429467582675
29.46968799999999,7.471312134325156,0.07461244693295577
29.47432000000001,7.462721428729677,0.07408036255453801
29.47896399999999,7.452287712790273,0.0735131189089231
29.48360400000001,7.433881271536185,0.07296671235986756
29.48823200000001,7.410977658043858,0.07243305615194447
29.492864,7.386275175656236,0.0719042275295026
29.497491999999998,7.357974955478021,0.07138272535028302
29.50212400000001,7.329796920013951,0.07085049042912273
29.50676000000001,7.2995756462262955,0.07033286123695874
29.51138800000001,7.268454937990993,0.06981575214612865
29.516024000000016,7.231571068927365,0.06932968681390651
29.520652000000013,7.198651491796767,0.06881213154229385
29.52528799999999,7.1671642294190265,0.06830582167579617
29.529920000000004,7.13723146650829,0.06780118993675574
29.53455600000001,7.109341941921141,0.0672765307534885
29.53919200000001,7.0879928278958175,0.06671959695895888
29.54383200000001,7.06537772528041,0.06618064645568272
29.548456000000016,7.046893240760804,0.06564739852313828
29.55310399999999,7.0308626901558515,0.06511737856383563
29.557748000000004,7.014343400694316,0.06461137494984394
29.562396000000007,6.997701926518634,0.06411100181837495
29.56703999999999,6.98645705902884,0.06359835029569304
29.57166799999999,6.981386047958435,0.0630793038804563
29.576296000000013,6.983388327755066,0.06255125323574279
29.58094,6.994629321456467,0.06199637342794987
29.58558400000001,7.007669184053165,0.06144007069530984
29.590224000000006,7.028271076373482,0.06085386863530073
29.59486799999999,7.05696787872263,0.06025906254288084
29.59950000000001,7.0915500266142475,0.05963505868571307
29.60413600000001,7.128952662562955,0.05900607428841461
29.60878400000001,7.175960566558869,0.058338861623116106
29.61341999999999,7.215939321136374,0.05771729940376701
29.61805200000001,7.25501864126623,0.057101171132576296
29.622692,7.299494568081974,0.05648065835606856
29.627316000000008,7.343603940755281,0.05588191669867309
29.631968,7.38260521761962,0.05532001089908549
29.636604000000005,7.423038809236819,0.054774278947895924
29.641244,7.457953609453985,0.05424074390556943
29.645888000000014,7.491968975223501,0.05371034805581806
29.65052800000001,7.52369673324114,0.05320518026823952
29.655156000000005,7.553503437649338,0.05270854139638401
29.659787999999992,7.575748112333916,0.05223641504588812
29.66441599999999,7.589164768704789,0.05180650878720916
29.669051999999997,7.592853972314311,0.05141681997811023
29.67368400000001,7.5832179853718875,0.05107020174386999
29.678315999999995,7.570517140944085,0.05074219648806641
29.682952,7.553485450440814,0.05045145962409619
29.687588000000005,7.521329700490305,0.05020107246221579
29.69222400000001,7.4792021283501535,0.0499991379435605
29.696856,7.427347103448648,0.04983297833574699
29.701504,7.363721387462204,0.04971424835941243
29.70613600000001,7.303815593980495,0.049586133098092164
29.710788000000008,7.2352039668992285,0.049487889440635306
29.715428000000003,7.153633703408455,0.04940893092727714
29.720064000000008,7.062702541298766,0.04934807508492078
29.724716,6.967152022236691,0.04929335585787907
29.729344,6.864406027593434,0.04923829745942689
29.733971999999994,6.759983348769027,0.049171681528511035
29.73860400000001,6.646854836345061,0.04913583873568632
29.743236,6.531516759434734,0.04906875110799933
29.74787599999999,6.407717218353138,0.04901846920784368
29.75251600000001,6.280075570052661,0.04897909923659474
29.757148,6.153577725628122,0.048922124044705105
29.761780000000016,6.031288542564903,0.04882379095098908
29.766408000000013,5.910920413111127,0.04871455097393616
29.77104,5.782090819486083,0.04862402910892459
29.775688,5.644022511956269,0.04854718034668871
29.780324000000007,5.50775307332175,0.04847198663625228
29.784955999999998,5.370706384953729,0.04838883481611517
29.789600000000007,5.235458565481004,0.04830375060667183
29.794231999999997,5.101887430189428,0.04822781291387387
29.79888,4.958833211564792,0.04818693821757842
29.803516,4.816800612101948,0.048138540340046554
29.808156,4.682085672934433,0.048076247410419784
29.81280000000001,4.553911144328746,0.04798742929109162
29.81743600000001,4.428679288494292,0.04787107598505859
29.82207600000001,4.305246301555135,0.04774570758841973
29.826704000000007,4.180425141311748,0.04765263626946852
29.83134799999999,4.062144391630185,0.04753574917394778
29.83598800000001,3.9413316647684535,0.047475438958593616
29.84062,3.830534901544994,0.04740014337407381
29.84526,3.7251347450074217,0.047323211095817046
29.849896,3.6139714276415247,0.04727475400299007
29.854536,3.500398317809604,0.047275448896409805
29.85916800000001,3.3828609160446557,0.047318218706370666
29.8638,3.270964490393885,0.047335403071065624
29.868448,3.1625436178195603,0.047382132930217036
29.87308400000001,3.060008090787705,0.047361285867602035
29.87773200000001,2.9640129743176766,0.04730146590228228
29.88236800000001,2.86597461952406,0.04727851498892596
29.88700399999999,2.763439092492205,0.047263922713412954
29.89166,2.6730849521363553,0.04718188847600013
29.896288,2.5872279840187447,0.04709725818211456
29.900924000000003,2.501493200615279,0.04697404496845065
29.90555599999999,2.4143702439075825,0.046920436010422624
29.910200000000003,2.3268807330574495,0.046914929763142134
29.914836000000008,2.2420895255502598,0.04689445181275797
29.919467999999995,2.1601188061001593,0.04685876075999884
29.92410000000001,2.0741837947170314,0.046892833348599665
29.928732,1.989392587209842,0.04689780476838648
29.93338399999999,1.8988382188743285,0.04699025787324252
29.938016000000005,1.8055855471958713,0.04708741780717849
29.94265200000001,1.716707863041508,0.04727202203880384
29.947292000000004,1.6270529291536424,0.04490834865274436
29.95192,1.5438162211134574,0.04251225206885493
29.956568000000004,1.4631556317020706,0.040134523841142744
29.961208,1.3874809533855053,0.037719365341952193
29.965844000000004,1.3095186673170618,0.03536285076524105
29.970496,1.229513142925031,0.033046081604411824
29.975135999999992,1.1579690827042681,0.03069305988248513
29.979772,1.0975847899977165,0.028321333880626527
29.984408,1.0266957947963098,0.025994742470384503
29.98905200000001,0.957605668490199,0.02367035263701903
29.99368799999999,0.890847291384595,0.021396558523105652
29.99832800000001,0.8252327181549298,0.019077865677866512
30.00295600000001,0.7664029249153824,0.01673706847854557
30.00759199999999,0.7063071430857502,0.014426052787548199
30.01223200000001,0.6489096645990615,0.0121194533637478
30.016867999999988,0.5980525966741991,0.009757908151964837
30.02150800000001,0.5515705162734303,0.0073997486278065475
30.026148000000006,0.5099521622533381,0.004968533282350374
30.030772000000013,0.47270879575733904,0.002533756738446882
30.03542400000001,0.44135077480380996,0.0
30.040064,0.4161666102696701,0.0
30.04470800000001,0.3957239874020608,0.0
30.049352,0.3759364295538081,0.0
30.05398400000001,0.357581186458414,0.0
30.05861200000001,0.34294586586775705,0.0
30.063244,0.3289656102964566,0.0
30.067871999999998,0.3170285930487432,0.0
30.07250400000001,0.3020267183156492,0.0
30.077147999999998,0.2983067958109122,0.0
30.081784,0.2954863077538229,0.0
30.08641600000001,0.2900897010679358,0.0
30.09106399999999,0.28763576715328354,0.0
30.09570400000001,0.27892993355372453,0.0
30.100336,0.2767645105159918,0.0
30.10498000000001,0.27741957553534835,0.0
