Time,Force,Position
27.34762,0.3740719832975863,0.0
27.352216,0.3521190024116007,0.0
27.356815999999995,0.3355626282115024,0.0
27.361419999999995,0.31491977736423,0.0
27.366012,0.29019044986978343,0.0
27.370608,0.2664827415371304,0.0
27.375195999999995,0.24199778347097525,0.0
27.379796,0.21841225985246793,0.0
27.384384,0.1965034204151106,0.0
27.388988,0.18268949100658397,0.0
27.393576,0.1743943529980901,0.0
27.39818,0.1630343575042157,0.0
27.402764,0.15617153424858052,0.0
27.407356,0.1541724373736216,0.0
27.411947999999995,0.1556488935751085,0.0
27.416543999999995,0.15201725396762775,0.0
27.421132,0.15492602492197324,0.0
27.425728,0.15476993839093822,0.0
27.430316,0.15257061353631612,0.0
27.434904,0.15331396145292894,0.0
27.439491999999998,0.15769918860876134,0.0
27.444072,0.16274972041568903,0.0
27.448668,0.1730068705605794,0.0
27.45326,0.20216238373781342,0.0
27.457843999999994,0.24576322915777998,0.008211273372299462
27.462432,0.3049532106964183,0.015961706006729866
27.467028,0.376134590563137,0.023636392025077793
27.471616,0.45763068457678596,0.031401059809316956
27.476208,0.5496858621656566,0.03907574085403336
27.480799999999995,0.6466591472155704,0.046916844289805464
27.485388,0.7544800267176255,0.05468704697632071
27.489976,0.8773571620331414,0.06235742998448911
27.494564,1.0069512737049964,0.07002813329337867
27.499151999999995,1.1448168612001943,0.07768565176918128
27.503747999999995,1.2931193475564684,0.08528553054908336
27.508328,1.4573775241738511,0.09282484808158799
27.512927999999995,1.6272088732716339,0.10041186822381615
27.517516,1.8131180973446708,0.10790879489959755
27.522112,2.0130619580693754,0.11534033617756588
27.526695999999998,2.2271626401598925,0.12267078945868655
27.531296,2.45328862239538,0.12988184106278042
27.535892,2.692529327571409,0.13690542250781101
27.540488,2.925297425819391,0.14391714711034312
27.545068,3.1455853868827095,0.15090097682117012
27.549664,3.352571819579235,0.14967930140026364
27.554264,3.545645800338238,0.14891269847666022
27.55886,3.728937947255522,0.14822072210978532
27.563447999999998,3.908333605873557,0.1473445488338919
27.568044,4.079746299545167,0.14651748703033168
27.572632,4.248939189098678,0.1454451959673071
27.57722,4.406507234466546,0.14441971608137866
27.581812,4.555026554277568,0.14341840637288997
27.586396,4.694663474694519,0.14241736309569486
27.590992,4.825540180431544,0.14141635563543167
27.59558,4.945080552859844,0.14046865343154763
27.600176,5.049686854188829,0.13962773936968148
27.604768,5.14577731026618,0.13873465203972385
27.609359999999995,5.228976933567802,0.1379085408731752
27.613948,5.295565801588959,0.1371987717735998
27.618524,5.3464433487773,0.1365946685785174
27.623132,5.382553151029098,0.13612407705614776
27.62772,5.408602848193997,0.13580339476018216
27.632307999999995,5.434486219196121,0.13544317682916715
27.6369,5.456483341530736,0.1351101769753786
27.641496,5.482322571084235,0.13470263727029635
27.646092,5.504153367256075,0.13432694108032078
27.650684,5.522097914760404,0.1339746949142946
27.655288,5.533091356111843,0.13372540783245615
27.659868,5.540320733509916,0.1334927208595547
27.66446,5.539044505288094,0.13336604868600987
27.669048,5.533515474256324,0.13329133335946763
27.673648,5.523733640414607,0.13326741326008779
27.678239999999995,5.508511058438371,0.1332758841688202
27.682835999999995,5.488991532203562,0.13328156621312592
27.687428,5.466240822320596,0.1333159225089301
27.692024,5.445244839884298,0.13326822222482373
27.696611999999995,5.420118239352198,0.13326461437835418
27.701204,5.392537704905445,0.13328360015710097
27.705791999999995,5.368388582086511,0.1331999812079719
27.710387999999995,5.343462209534074,0.13312133027752718
27.714976,5.31595971835284,0.1330796022688821
27.719564,5.283060620485718,0.1331279168165021
27.724152,5.247341034561507,0.13322743836000767
27.728748,5.2125208830849425,0.1333113346812918
27.73334,5.173980809103641,0.13345844732727963
27.737928,5.142758395417669,0.1334736643355647
27.74252,5.116932588417582,0.1333998909059509
27.747104,5.093805084760439,0.13328166735554986
27.7517,5.068145603923127,0.13325364675984094
27.756288,5.047760545057556,0.1331473487957051
27.760876,5.034570961773168,0.1329237162225334
27.765471999999995,5.020770454918053,0.13274960630306967
27.77006,5.011633446463952,0.13254851774647616
27.77466,5.003317829191981,0.13239849141044815
27.779252,5.000521003320042,0.13215007700486936
27.78384,5.001976980258051,0.13185142710365785
27.788439999999994,5.011405682510746,0.13143594832038155
27.793032,5.025986622021036,0.13095923419335462
27.797628,5.043554375751189,0.13048352198368202
27.802215999999994,5.066274366738938,0.12994894512770536
27.806816,5.095168214146076,0.12932718634634682
27.811404,5.133300775457983,0.12855585877616232
27.815999999999995,5.1755639548656935,0.1277508966902807
27.820592,5.22183556765506,0.12692684256069695
27.825188,5.270316744930788,0.12610396522530914
27.829788,5.31446707613105,0.12540426897587503
27.834388,5.35363149623649,0.12481071320722277
27.83898,5.391774297180136,0.12424410140012401
27.843576,5.434903009218606,0.1235721599961966
27.848184,5.477909536542929,0.12292104355914864
27.852776,5.521571128886608,0.12229816284824183
27.85738,5.564577656210931,0.12166296296852287
27.861968,5.611015595163072,0.12094693188645939
27.866556,5.660640576314739,0.12015912086905696
27.871148,5.706423450247523,0.11944699249351573
27.875736,5.749796531714283,0.11881766893269383
27.880328,5.790593494552246,0.11822949344771946
27.884916,5.827015469866113,0.11769638661149147
27.889516,5.860206261531828,0.11718932618267482
27.894108,5.891309673425327,0.11668125393284194
27.8987,5.922124574441907,0.11615027980286925
27.903288,5.947420684058454,0.11570032075099901
27.907875999999995,5.9706294139027865,0.1152441127299617
27.912471999999998,5.988808091203666,0.11482531207134185
27.91706,6.00412213899883,0.11439677480822509
27.921648,6.020169295078869,0.11391865637273267
27.926255999999995,6.0416911011103105,0.11332681773245322
27.930836,6.061658407674749,0.11273718877624062
27.935444,6.0809706492198305,0.11214666451229931
27.940036,6.096152272669111,0.11158018426746111
27.944636,6.101806671336702,0.11109460314742577
27.949223999999997,6.112691350527405,0.1105147597663449
27.953812,6.118301607746367,0.1099865778919487
27.958408,6.1224795502124705,0.10945516614488607
27.963004,6.129189469858744,0.10885853854357139
27.967596,6.130703010798793,0.10824968160059663
27.972184,6.130129171966627,0.10762906037570218
27.976783999999995,6.128000833667457,0.10700691140696414
27.981376,6.123418561453636,0.1063929545936222
27.985976,6.114216932287427,0.10582879996798686
27.990568,6.103338618940069,0.1052749213704538
27.995163999999995,6.089351306658702,0.104719685808944
27.999759999999995,6.072665691034393,0.10418710629671882
28.004355999999994,6.057490433428459,0.10360275654067733
28.008952,6.0456244027361965,0.10295144310794713
28.013548,6.033225491738724,0.10228290424279422
28.018136,6.016329408503013,0.1016544035947507
28.022732,5.998778260247946,0.10101330465349619
28.027324,5.977873743630577,0.10038485892832066
28.031915999999995,5.959911899784444,0.0997134612973785
28.036504,5.944526174567109,0.09901878627324662
28.041092,5.923255103807304,0.0984023553700945
28.04568,5.901861848333351,0.09778993729067832
28.050276,5.879569158411754,0.09718275044601445
28.054868,5.85486667602413,0.09662940959308357
28.059459999999994,5.836993115075254,0.09603802987792877
28.064048,5.820551868879235,0.09545508785713597
28.068636,5.80680892602616,0.09484774619346019
28.073228,5.795642101801883,0.0942243049087927
28.077816,5.788972449815845,0.09356282858090882
28.0824,5.780015190077928,0.09294628481397789
28.086996,5.774044744559875,0.09233907379923596
28.091587999999994,5.7720827324234785,0.09172903697543287
28.096176,5.77245246948759,0.09112490558920142
28.100767999999995,5.77196691355268,0.09058018339255769
28.10536,5.772669302942337,0.09006340563001389
28.109956,5.776480691266004,0.0895539204684357
28.114535999999998,5.787365370456707,0.08900555516750319
28.119136,5.804057351924364,0.08844881716479082
28.123715999999995,5.8238583323260285,0.08790610901232143
28.128316,5.852898026632462,0.08729672593467398
28.132904,5.887212142910638,0.08666284411327546
28.137504,5.928599550055852,0.08600033349108015
28.142092,5.975261379172806,0.08532357688531202
28.146684,6.023722077185055,0.08463870725904088
28.151276,6.0711611560355125,0.08397884679576054
28.155871999999995,6.117578615724176,0.08333795575630257
28.160476,6.169637051527017,0.08266672042173413
28.165068,6.220429498739773,0.08202498443323433
28.16966,6.273920249295472,0.08138102717287264
28.174252,6.335750279308294,0.08069109245092773
28.178844,6.402566220415938,0.079961283536887
28.183432,6.4716697692754614,0.07920808667127568
28.188012,6.53860789509725,0.07849251304783207
28.192595999999995,6.607589259242629,0.07776507861028337
28.197191999999998,6.6755490042262124,0.07705298754082551
28.201775999999995,6.74477473779988,0.07632883487288553
28.206371999999995,6.811302168030605,0.0756330942032786
28.21096,6.875375664346677,0.07494667374701777
28.215556,6.9341747386910075,0.07428242738454743
28.22014,6.983612914416424,0.07368400622393209
28.224732,7.031985329531418,0.07306293586336265
28.22934,7.072385019331727,0.0724727078070208
28.233923999999995,7.111352394379176,0.07188236295614454
28.238512,7.152607377178504,0.0712676882559477
28.2431,7.190508991615533,0.07065615993478397
28.247688,7.2267339218714115,0.07004544075958162
28.252292,7.254497387956023,0.06948588700026799
28.256879999999995,7.286591700116099,0.0688820249521222
28.261488,7.313289405590288,0.0682990570765811
28.266071999999998,7.332258755178083,0.06772813332137569
28.270672,7.344276998612987,0.06716887085957744
28.27526,7.35102082007615,0.06662091189832064
28.279864,7.356576696214745,0.06604666930057748
28.284451999999995,7.356858150381599,0.06548065895033289
28.289052,7.3588943319951206,0.06487188084399095
28.293636,7.3533684838850215,0.0642968373650904
28.298232,7.341424409927242,0.06373999819756604
28.30282,7.327148586768957,0.06317003404853949
28.307416,7.317081424971991,0.06256253545311405
28.312003999999995,7.310445674802843,0.061911710953607216
28.316596,7.298579644110581,0.06130357475861118
28.321183999999995,7.2867136134183195,0.06069107096716646
28.325772,7.264342880231203,0.06012265120237377
28.33036,7.2363311709299065,0.05957436294919215
28.334951999999998,7.211017764971556,0.05901976984643762
28.339548,7.182883870956117,0.058470013444409004
28.344131999999995,7.154872161654821,0.057909247861470836
28.348724,7.121874541258705,0.05737833715110999
28.353311999999995,7.087078051967292,0.056844587209604766
28.357907999999995,7.0498717702098554,0.05633821776056826
28.362488,7.012831814615192,0.05586288074165997
28.367076,6.976202554611595,0.05540756778738743
28.371672,6.9412499787891475,0.054952708811677416
28.376259999999995,6.90797408714785,0.054497952817482744
28.380848,6.868568480535791,0.054081017025393474
28.385444,6.834926034752057,0.053636738802516126
28.390032,6.806680195654209,0.05318439380567822
28.394636,6.779622301880929,0.05275907245146554
28.399216,6.745046519832657,0.05239802230451559
28.403808,6.706672772014131,0.0520919156291372
28.408387999999995,6.671896761986196,0.051780841971716805
28.412988,6.639696870587059,0.051471474178919494
28.417576,6.612771401159663,0.05116074022868737
28.422176,6.585479377589832,0.05086578421775423
28.426772,6.553978692658679,0.05060279932657858
28.431363999999995,6.529551298594563,0.05034108061085249
28.435948,6.507455653730955,0.05009556987510701
28.440544,6.487813942781999,0.04986090567783637
28.445139999999995,6.47128123076705,0.04964897120746775
28.449728,6.457202452666754,0.04944745385093491
28.454311999999994,6.444145293728251,0.04923802764525702
28.458907999999997,6.428145462018515,0.049040838529399805
28.463491999999995,6.40871421868096,0.04888239494819904
28.468087999999995,6.386750998163237,0.04876276151990872
28.472668,6.370062199617254,0.0486474054859647
28.477256,6.34532263249107,0.04857865329112696
28.481848,6.3166187734318555,0.048529581037225995
28.486436,6.282029568830172,0.04850797811238636
28.491028,6.252426275323311,0.048458323178061175
28.495608,6.222045732082947,0.04840179066175282
28.500195999999995,6.188478146643057,0.04837314497052215
28.5048,6.151845703717786,0.04836446249571402
28.509387999999998,6.112148403307134,0.04837766690019507
28.513976,6.073228352629986,0.04839748700233026
28.518567999999995,6.032509433057542,0.048417900798845774
28.523156,5.983451234027975,0.048452922317383185
28.527752,5.92989586276017,0.04848754309278322
28.532328,5.868245581463533,0.04852198268867954
28.536928,5.802098127928658,0.048557173939910346
28.541508,5.729532448546101,0.04860216224567119
28.546108,5.6501819891734275,0.04867959605396603
28.550695999999995,5.570831529800753,0.04875819875502247
28.555296,5.4858400943139,0.04886068023397304
28.559888,5.397617475178892,0.048942928173891995
28.564471999999995,5.299911772710823,0.04906565082389697
28.56906,5.20629254688993,0.04915581733264741
28.573656,5.1100972024402385,0.049238401342589284
28.578252,5.016189465742425,0.04928713647493265
28.582836,4.91586350319693,0.04934206274580518
28.587428,4.815904094793873,0.0493650711839581
28.592012,4.7100151993997175,0.049364010660956734
28.596599999999995,4.5996291317673235,0.049364104452507385
28.601192,4.491408487172662,0.0493370068069341
28.605784,4.378812855053908,0.049297922571286804
28.610372,4.263518919592208,0.04925862856402075
28.614956,4.149002233864012,0.049232297810146756
28.619536,4.034241178707523,0.049227902973240485
28.624132,3.920912438303894,0.04926119554279993
28.628716,3.8074615131861194,0.04931129889423007
28.6333,3.6968310761254335,0.04935469390114465
28.637888,3.5922081693213626,0.049332689505656134
28.64248,3.485786393621997,0.0493116922870258
28.647076,3.3843505290174525,0.04924473958317787
28.651672,3.2825481102704717,0.049222016191099165
28.656271999999998,3.1858537873324586,0.04913121576827375
28.660864,3.0851951724614173,0.04908071583847458
28.665444,2.984170003447938,0.04908193153314376
28.670044,2.8809794113967264,0.04913000398287916
28.674631999999995,2.775501211593636,0.04927007673904222
28.679227999999995,2.6674910346103764,0.04953306464910059
28.683816,2.5655325293323608,0.04984251843300175
28.688416,2.4680711962925836,0.05016258750085604
28.693012,2.368933179071657,0.05045766780795159
28.697604,2.2666081196512042,0.050910919176942654
28.702196,2.167880798021343,0.05139166015827504
28.706792,2.065677923315035,0.05193604152284857
28.711383999999995,1.9616761797134317,0.052593058383675104
28.715979999999995,1.8588182399877677,0.05329654020543278
28.720572,1.7560824849762493,0.05080443605428374
28.725172,1.6524472955170835,0.048309221227043994
28.72976,1.5455028791442456,0.04586014591628426
28.734344,1.440357331666703,0.04340895655878063
28.738935999999995,1.3391760761221894,0.04097315631392949
28.743528,1.2418369277965582,0.03849974531194744
28.748124,1.1432317908808425,0.03606076487008771
28.752716,1.0482243917557177,0.033600015018412414
28.757312,0.956404034830119,0.031094933531063577
28.761892,0.8683036004092578,0.028562172556535374
28.766487999999995,0.7898084340356034,0.025945483798901603
28.771076,0.7133565059855359,0.023237517334347913
28.775664,0.6381705665255534,0.020492362682179008
28.78026,0.5638840615132188,0.017735081212403924
28.78484,0.4918071209872452,0.015014392203381629
28.789427999999997,0.43125650211791966,0.012147171922028755
28.794011999999995,0.3731598171632464,0.00925178486345196
28.798604,0.32777739918978865,0.0062786906147669274
28.803196,0.28791377261636364,0.003178023535701521
28.807784,0.25087063410002786,0.0
28.812383999999994,0.21640361421249002,0.0
28.816972,0.18823263545848712,0.0
28.821572,0.16480319837101481,0.0
28.826152,0.14224725235551394,0.0
28.830752,0.11920256748343042,0.0
28.835336,0.09885618595429044,0.0
28.839932,0.08312916137753543,0.0
28.844524,0.0702226248578696,0.0
28.84912,0.05977002225285603,0.0
28.853716,0.05111628854313811,0.0
28.858304,0.04131875095748101,0.0
28.862883999999998,0.03524113587656099,0.0
28.867467999999995,0.03071802026264532,0.0
28.87206,0.02799377354402536,0.0
28.876656,0.02731276514899245,0.0
28.881243999999995,0.02446633371622682,0.0
28.885848,0.022763706159400383,0.0
28.89044,0.016441721650189024,0.0
28.895028,0.011019171588625509,0.0
28.89962,0.007273305708212026,0.0
28.9042,0.005448493437239919,0.0
28.908792,0.0027242467186199596,0.0
28.913388,0.0,0.0
28.917976,0.0,0.0
28.922571999999995,0.0,0.0
28.92716,0.0,0.0
28.931748,0.0,0.0
28.936344,0.0,0.0
28.940936,0.0,0.0
28.945532,0.0,0.0
28.95012,0.0,0.0
