Time,Force,Position
26.337556,0.5987152577905112,0.0
26.342147999999995,0.5913195542296652,0.0
26.34674,0.5852339807075321,0.0
26.351324,0.5777602338811685,0.0
26.35592,0.5711859215024528,0.0
26.360512,0.56256837080015,0.0
26.365112,0.5613906651073216,0.0
26.369704,0.5588247861102625,0.0
26.374303999999995,0.5612889596566535,0.0
26.378896,0.5653076326700488,0.0
26.383492,0.5647952316283156,0.0
26.388079999999995,0.5734537408575735,0.0
26.392675999999994,0.5878517487300049,0.0
26.397264,0.6103210044461163,0.007818519361037304
26.401855999999995,0.6472797338535885,0.015663122460169966
26.406436,0.7013820988467367,0.02319942662519125
26.41102,0.7673536774538197,0.030862994151227837
26.4156,0.8397978629889502,0.03865802827180482
26.420184,0.9185924707379826,0.046634463873025514
26.42478,1.0055363695962127,0.05472271105006349
26.429364,1.1060261662495274,0.06276684317161237
26.43396,1.2089020931837158,0.0711392910283144
26.438544,1.3241359725884214,0.07942715877529696
26.443132,1.4545482925207334,0.08759244552494926
26.447728,1.592332653828741,0.0958400756218951
26.452316,1.7430078479124769,0.10407220607206123
26.456912,1.9066960594860862,0.11211143072593802
26.4615,2.081598419654274,0.12014826591046109
26.466088,2.265016625074096,0.12820666317845966
26.470684,2.4574394146021357,0.1362930508312445
26.475283999999995,2.6669514586354848,0.14413472976054753
26.479887999999995,2.8777192516271795,0.15180014409667647
26.48448,3.0888772609464623,0.15931700953496472
26.489072,3.2887328387739103,0.15897958188519537
26.493652,3.475975855070811,0.15852999308543606
26.498252,3.643743486581529,0.15843920031563907
26.502828,3.804916326450054,0.15817776647246526
26.507428,3.959983113532969,0.15771053886015743
26.512024,4.1082887828109165,0.15701294389157708
26.516616,4.250854953445689,0.15611111231644706
26.521212,4.384450441789135,0.15514288284424288
26.525804,4.517658896726667,0.15371333168730977
26.530396,4.641407930516287,0.15228879461084222
26.534991999999995,4.752632685672616,0.15095746926106662
26.539584,4.85787357275748,0.14948533940066325
26.544176,4.952511234818495,0.1480093821242759
26.548767999999995,5.0261631540749505,0.1468046691861744
26.553356,5.088556783288199,0.14557774256506606
26.557944,5.14341204496298,0.1442507329870165
26.562535999999994,5.193060688299798,0.14280453487943978
26.56712,5.2209124372816635,0.14171344082140702
26.571708,5.237804646728983,0.14080333269684617
26.576304,5.2500774992239165,0.1400019691755298
26.580892,5.264027035900001,0.13918221739219144
26.585488,5.276466214557709,0.13843340122924427
26.590072,5.290826446824857,0.13763334503080835
26.59466,5.301178245710351,0.1368759154758794
26.599267999999995,5.303968014872222,0.13627720881909347
26.603856,5.305491795444011,0.13572746803793634
26.608444,5.30113023047333,0.13531606387045153
26.61304,5.291660569693681,0.1350359163354915
26.617628,5.277860062838567,0.13487837602378347
26.62222,5.261527578803282,0.1348108004676531
26.626816,5.2457279750732075,0.13475700713277985
26.631408,5.227762948305402,0.13476167496124083
26.635996,5.212374040166393,0.1347293413274915
26.640595999999995,5.205979476503863,0.13454880946771597
26.645188,5.200772858165901,0.13438822908617593
26.649792,5.193811512381269,0.1343115260117516
26.65438,5.185095439149971,0.13431679166333182
26.65898,5.1863953295569445,0.1341544070941263
26.663571999999995,5.190559849469636,0.13399269102661
26.66816,5.1948906955451015,0.13387614276118318
26.672752,5.196811749154543,0.13383765444800655
26.677344,5.2001651175168435,0.13380013349947384
26.681932,5.206383115384861,0.13376428073399566
26.686528,5.215587927472742,0.13372047291086903
26.691116,5.234153638179539,0.13350483786432668
26.695699999999995,5.256439271391072,0.13322694805245341
26.700288,5.285798195469642,0.13284806274135277
26.704888,5.318510487910512,0.13243229165220838
26.709475999999995,5.350978410923092,0.13203595701819484
26.714071999999994,5.3834463339356695,0.1316382691284529
26.718668,5.416691506681751,0.1312400954208199
26.723251999999995,5.451735548323128,0.13081710868562516
26.727847999999994,5.483181852173913,0.13045386577036314
26.732428,5.5118076679676085,0.13014814789675067
26.737019999999998,5.540800037903742,0.12981707313019358
26.741616,5.567460658639369,0.12949617330411478
26.746204,5.595631637393372,0.1291215726426976
26.750808,5.6214708669468685,0.12876602540647955
26.755396,5.6497198889663895,0.12834412771907827
26.759996,5.679601453718432,0.1278598171268399
26.764592,5.710504637632267,0.12735160857139355
26.769175999999995,5.741652190974396,0.12682937691837984
26.773772,5.774676656477336,0.1262312816604695
26.778368,5.806513176655709,0.12561678721673863
26.782972,5.835240697900073,0.1250292461355797
26.787552,5.8598376010486355,0.12448119073982887
26.792151999999994,5.880792624957978,0.12393859129501009
26.796732,5.901581322704546,0.12336093661160276
26.801331999999995,5.922203694288341,0.12274325665923394
26.805927999999994,5.942781924423508,0.12207730748921157
26.81052,5.961639328928895,0.12138000480871122
26.815099999999997,5.981229841719158,0.12063980845039472
26.819696,6.00028747420421,0.11988266123405428
26.824292,6.015336673307605,0.11914308260243543
26.828888,6.032018415143522,0.11834986514954031
26.833476,6.052253753321403,0.11746784191419068
26.838072,6.066559604508185,0.1166362771909682
26.842659999999995,6.077634272046813,0.11582124131242233
26.847248,6.081513464004258,0.11508782494535322
26.851831999999995,6.0828165373329055,0.11437942661836206
26.856432,6.085219273088863,0.11359732192217248
26.861016,6.0843908251966665,0.11282886287548319
26.865607999999995,6.07828795533273,0.11211232614111656
26.8702,6.071774389877728,0.11137188600500372
26.874787999999995,6.060397098042047,0.11070188677132532
26.879383999999995,6.047465306739364,0.11003080734266166
26.883972,6.028770354608357,0.10943721797977814
26.888555999999998,6.004800980505609,0.10888848933419765
26.893156,5.97801111834577,0.10837254973233278
26.897744,5.950199637024138,0.10787040068088598
26.902348,5.920222732664774,0.10740800429669987
26.906935999999995,5.88550428663888,0.10700551697386179
26.911524,5.854627947831868,0.10654527820824988
26.91612,5.827715900957884,0.10601844453456773
26.920704,5.795329204132495,0.10560164789946562
26.925312,5.758611661231641,0.10526718292863158
26.929888,5.724103682817148,0.10493632088669907
26.934487999999995,5.693726322498457,0.1045827014912708
26.939076,5.669112123008091,0.10414693883025956
26.943676,5.642454685194138,0.10374244397775985
26.948268,5.614941954381165,0.10339398728637697
26.952867999999995,5.590904776644637,0.10301648006481982
26.957463999999995,5.570998217003911,0.10261937235428814
26.962056,5.555100090744842,0.10221355935689294
26.96664,5.543576952009866,0.10177300155603346
26.971236,5.536961681104197,0.10131658975303216
26.975832,5.539340754675004,0.10077789173791948
26.980419999999995,5.54650551136097,0.10023010627313855
26.985008,5.560621374199829,0.09963603700513787
26.989596,5.58103327817222,0.09899361861986039
26.994184,5.606475234688064,0.09833143860460081
26.99878,5.637069428461502,0.09764239292507004
27.003367999999995,5.667052698664213,0.09700445426957385
27.007963999999998,5.699778413658496,0.09640341179337934
27.012556,5.735446801424013,0.09576083486204234
27.017136,5.778310664770713,0.09506476528116774
27.021736,5.826693319517446,0.09432714260834792
27.026315999999994,5.873154920654737,0.09361935556318902
27.030908,5.920804467116595,0.09294945744382797
27.035492,5.975405119731345,0.09224663582410779
27.04008,6.033603510136686,0.09152679504284812
27.044688,6.09311203058074,0.09083547970346072
27.049284,6.154419419920091,0.09014647829082338
27.053872,6.210863082878765,0.08952002295100008
27.058468,6.268328364999232,0.08888824033193485
27.063056,6.322073724614961,0.08829407412243558
27.067651999999995,6.371976977011809,0.0877475033471582
27.07224,6.422002414122802,0.08719804648954799
27.076836,6.471372786214438,0.08665230246785688
27.081424,6.513836193601811,0.08618939815783279
27.086023999999995,6.553967851788679,0.08572693753963673
27.090604,6.591645576060895,0.08527222575014339
27.095203999999995,6.628668235313752,0.08481322975930934
27.099788,6.659639222861367,0.08437827679574351
27.104384,6.693675067894363,0.08391220822541556
27.108976,6.723580294831557,0.08345737250461338
27.113564,6.748333284511153,0.08302388122386355
27.118168,6.773086274190749,0.08259174574219467
27.122768,6.796651318545779,0.08213974348686878
27.127356,6.811344203138476,0.0817276129105518
27.131952,6.819863231311784,0.08134189671711932
27.136544,6.8256398146935195,0.08092830747787651
27.141127999999995,6.823199303332278,0.08056075654517013
27.145716,6.821614084970057,0.0801448682023341
27.150312,6.817452747979039,0.07973580529196624
27.154908,6.8155790187399,0.07929154467944759
27.159496,6.811495725014398,0.07883116527814846
27.164088,6.808800604593127,0.07834192807491992
27.168679999999995,6.800586692771825,0.07788352918865277
27.173272,6.79772524618778,0.07735950984894675
27.177856,6.792820561280148,0.07685559355043523
27.182444,6.788937495534312,0.07634229391199415
27.18704,6.7805572575502335,0.07584588381173596
27.191624,6.774342442603889,0.0753196027857015
27.196216,6.762486651543366,0.07482854522440209
27.200812,6.74960924132105,0.0743468285744939
27.2054,6.736365276956296,0.07388369474297557
27.210004,6.724387301181627,0.07339745449823364
27.214596,6.709100098493288,0.07295361513130663
27.219187999999995,6.7003533063667735,0.07247134281927023
27.223776,6.694304817583203,0.0719774162679816
27.228376,6.68662378606711,0.07152511258235623
27.232964,6.683562111503403,0.07104709085105425
27.237556,6.681688382264262,0.07059671207796436
27.242148,6.681491337206271,0.07014726928453219
27.246744,6.6811721074341355,0.06970637529838554
27.251335999999995,6.688170537957328,0.06923788473449273
27.255931999999994,6.691981926280994,0.06880590236110885
27.26052,6.700534856271192,0.06834747365972177
27.265116,6.705778559347717,0.06793284569537346
27.269704,6.715108739071416,0.06748303338251238
27.274296,6.723050745490885,0.06706320605293994
27.278884,6.738432596919828,0.06661219123142792
27.283476,6.757290001425216,0.06616146468800035
27.288056,6.782565631778286,0.06569069580661278
27.292648,6.811194630493655,0.0652269579029182
27.297244,6.843787921142054,0.06473928223881982
27.301832,6.876136842362159,0.06426870932130484
27.306428,6.9114284363535,0.06378008855591022
27.311015999999995,6.950684322277869,0.063275166129527
27.3156,6.98994020820224,0.06277283823569714
27.320187999999995,7.035081439669079,0.06223868937189142
27.324776,7.085086397516594,0.06168551549882004
27.329367999999995,7.136112974525904,0.06112955638578454
27.33396,7.188161170697007,0.06057197641652817
27.338559999999998,7.241230986029904,0.060013958726718664
27.343156,7.290214324715625,0.059494765563267826
27.347752,7.344061389782024,0.058956210665875405
27.352348,7.396764650972485,0.05843721620296486
27.356939999999994,7.449345727448798,0.05792561062959358
27.361536,7.501438065068528,0.05744414491047513
27.366116,7.553896956830696,0.05694765613720336
27.370715999999994,7.60059268776454,0.056480330174662544
27.375304,7.647288418698383,0.05602022954998497
27.379904,7.689486977393988,0.05557047519319
27.384491999999995,7.724490060508408,0.055128997090669964
27.389088,7.755651036403947,0.05470629305683673
27.393671999999995,7.784235893670688,0.054282106707408156
27.398264,7.810122447594486,0.05386154261308639
27.402864,7.826403733471077,0.05347986982393092
27.407452,7.8397423465764335,0.05311090312187788
27.412048,7.844375126082229,0.05277643073316911
27.416644,7.838503203093172,0.05247702522752784
27.421223999999995,7.826335238970579,0.0521806401956742
27.425808,7.808526298733807,0.0518977505701389
27.430395999999995,7.783932578506917,0.051639320021884906
27.434996,7.752021197984701,0.05138816161719374
27.439584,7.70588519246289,0.05117522930870606
27.444176,7.652309341931606,0.05097452403634499
27.448764,7.5889618971903445,0.0507689261197322
27.453348,7.5155984888108085,0.05057052605237714
27.457944,7.43275199709821,0.0503953148109979
27.462532,7.344386713985581,0.0502244515761841
27.467119999999998,7.242163360015795,0.05007154749656349
27.471712,7.1291909341228665,0.04996349051842639
27.476299999999995,7.014175269906348,0.04986580480484173
27.480888,6.889798707070913,0.04978680339870493
27.485484,6.758515179531215,0.04973919377698105
27.490072,6.6208134261438385,0.04969359273029118
27.494668,6.477348511928136,0.049669265427564724
27.499264,6.327709741293045,0.04963536601284971
27.503856,6.173695983133861,0.04959405878750456
27.508436,6.012120195251055,0.04958061575833228
27.51304,5.8465801154352235,0.04958664562631702
27.51762,5.673600190609917,0.04960877080713798
27.52222,5.49305823606099,0.04966534496405741
27.526816,5.310595227902621,0.049732690131646995
27.531416,5.13185214224899,0.049797166385798945
27.536007999999995,4.950288568538269,0.04987458067773184
27.540603999999995,4.769257875132761,0.04998554848267503
27.545199999999998,4.587327747279602,0.05009781874426474
27.549796,4.409239726645328,0.05018443245254991
27.554384,4.232051140458702,0.050267574296637786
27.55898,4.057072118758436,0.050416619140251286
27.563568,3.888100627314786,0.0505149942743103
27.568152,3.7203951244612203,0.05056382506705573
27.57274,3.556287359398246,0.05061741692266033
27.577332,3.3961438862683004,0.05062515188149523
27.58192,3.2364111087294196,0.05069876432279604
27.586512,3.077699950352333,0.05077539899355452
27.591108,2.9252848331087806,0.05082146727319244
27.595696,2.7792879417129086,0.05082614192999388
27.60028,2.643673568097747,0.05075649750663336
27.604859999999995,2.5097358786637343,0.05071427658851047
27.609448,2.3809504264873182,0.0507337905216184
27.614044,2.260382069053878,0.05076402146007677
27.618632,2.142512014963381,0.05080351697478265
27.62322,2.025541395320532,0.050856460996634156
27.627816,1.9148668168112184,0.050911971319989646
27.632403999999998,1.811509898597233,0.05095215007551779
27.636996,1.714326836802637,0.0510088763141019
27.64158,1.618698274475045,0.0511095231000183
27.646176,1.525523646062105,0.0485657193785704
27.650763999999995,1.43811217847749,0.045960832571391275
27.655364,1.3541762639693202,0.04338250138929582
27.659952,1.2696294258904222,0.0408518976846725
27.664552,1.187658706440322,0.03831350694800815
27.669152,1.1050770634194937,0.03581030585753781
27.673752,1.028258581226989,0.03325470563568701
27.678335999999994,0.9558150865585783,0.030684468111451445
27.682932,0.8821056033000828,0.028158995696658043
27.68752,0.8081517506132959,0.025680978515338473
27.692111999999995,0.736651831841161,0.02325335669472805
27.696704,0.6718145083449981,0.020794465617936367
27.701296,0.6137619648389528,0.018268217732420308
27.705884,0.556853225208847,0.015701518271076416
27.710472,0.5062405267122759,0.01311923059688474
27.715059999999998,0.4620460540633856,0.010518158729512466
27.719652,0.4168299622527017,0.007906172527028002
27.724248,0.3753337929467548,0.005286230452723167
27.72884,0.33833479587904713,0.0026531736911670407
27.733428,0.3030124829924896,0.0
27.738004,0.27165446203896054,0.0
27.7426,0.24593741719960985,0.0
27.747192,0.22177487182726355,0.0
27.751784,0.20517435617853705,0.0
27.756376,0.19319319748219543,0.0
27.760968,0.1833774618235866,0.0
27.765567999999995,0.1742167911843343,0.0
27.770163999999998,0.17057491194511476,0.0
27.774756,0.172451824105928,0.0
27.779356,0.17588323573374556,0.0
27.783947999999995,0.18021408180921097,0.0
27.788543999999995,0.1832789392945915,0.0
27.793124,0.18430055845638502,0.0
27.79772,0.18969716514227214,0.0
27.802299999999995,0.19125166460927653,0.0
27.806908,0.19460503297157658,0.0
27.811496,0.2053982463433508,0.0
27.8161,0.21349315637218144,0.0
27.820688,0.21901194777221425,0.0
27.825284,0.22350912001045353,0.0
27.829871999999995,0.22686248837275355,0.0
27.834456,0.2244526959067295,0.0
27.839051999999995,0.22408614176429248,0.0
27.843647999999995,0.22359740290770982,0.0
27.848236,0.22323084876527277,0.0
27.852819999999998,0.2292825204705164,0.0
27.857408,0.23647799605169917,0.0
27.862008,0.24277403718523413,0.0
27.866592,0.24714902470932776,0.0
27.871184,0.2529121855376518,0.0
27.875775999999995,0.2568764774706803,0.0
27.880364,0.26174020385135655,0.0
27.884955999999995,0.2682806144131829,0.0
27.889548,0.27404377524150697,0.0
27.89414,0.2836490432887139,0.0
27.898723999999994,0.2887571390976815,0.0
27.903304,0.286425389897175,0.0
27.907892,0.28282765210658356,0.0
27.912488,0.28000716404949433,0.0
27.917084,0.2830720215348749,0.0
27.921692,0.28679194403961195,0.0
27.926283999999995,0.2932101698872926,0.0
27.930888,0.2948868540684426,0.0
27.935483999999995,0.290145312401912,0.0
27.940088,0.28540377073538137,0.0
27.944675999999998,0.2770644912782594,0.0
27.949276,0.2686030271069918,0.0
27.953864,0.2592421284880762,0.0
27.958464,0.2510250337450999,0.0
27.963052,0.24244138485968653,0.0
27.967651999999998,0.2348793551360667,0.0
27.972244,0.22858331400253173,0.0
27.97684,0.22061058868784678,0.0
27.981435999999995,0.21059462504957474,0.0
