Time,Force,Position
28.90569600000001,1.1480789647680407,0.03848005840054243
28.910284000000004,1.132744437709399,0.03809660149413569
28.914888000000005,1.1190865948319073,0.037754008551091074
28.919484,1.1046515022209136,0.03734107587966993
28.924080000000004,1.0884175407146244,0.03688731843808086
28.928668,1.0711619600465412,0.03643861184487183
28.933268,1.053129129644956,0.03593873657396423
28.93786,1.0400822103381928,0.03532943377781447
28.94246,1.0224159340790446,0.03464180732952477
28.947044000000005,1.001151920029305,0.032668399164481506
28.951636000000008,0.9837300131984482,0.030655281423047208
28.95622,0.9688842249963894,0.028686632280368978
28.960815999999998,0.9548156865278328,0.026763755175006242
28.965404000000007,0.9343289222115954,0.024825256520125384
28.97,0.917562080400095,0.02291059444886799
28.974588,0.8928666547225379,0.02110963239170452
28.979188000000008,0.8709917171020698,0.01932843955669386
28.98377600000001,0.8521816369669826,0.01752998984569792
28.988364000000004,0.8307954382030972,0.015702803286665266
28.992956000000007,0.80442332834439,0.013958597807514631
28.997547999999995,0.7796057179526873,0.012300028182241586
29.00214,0.7549102922751301,0.010628557618492386
29.006732,0.7305814207400102,0.008930595915710009
29.01132800000001,0.7088286678336878,0.0073132419327428195
29.015908,0.6888747838226612,0.00574207049150664
29.020504000000003,0.6714970184404326,0.004204843336041592
29.025092,0.6502771458393211,0.002712794505504535
29.029688000000007,0.6229275582674484,0.0013142184228581277
29.034284,0.606737738209787,0.0
29.038876,0.5939012865144259,0.0
29.043471999999998,0.5810648348190646,0.0
29.048064,0.5615657878477313,0.0
29.052651999999995,0.5400235025528108,0.0
29.057240000000007,0.523755639229632,0.0
29.061831999999995,0.5060996026022226,0.0
29.066444000000004,0.49167474962296764,0.0
29.07104,0.47525079976875384,0.0
29.075636000000003,0.4567497097740636,0.0
29.080224,0.4500736919446798,0.0
29.084824,0.4504031613485544,0.0
29.089412,0.46325690938572023,0.007437746045411598
29.094012000000006,0.49133323939912077,0.01478786983092436
29.098600000000005,0.5334883475128168,0.022084577235612142
29.103196,0.5886564731163868,0.02926736677921906
29.107792000000003,0.6550387473145349,0.03650524329745563
29.11238400000001,0.7301812361926089,0.043803858617493543
29.116976000000008,0.8201356114558527,0.05112166654710953
29.121572,0.9220813850471767,0.0586324637669287
29.12616,1.0275570927953133,0.06623348753374166
29.130756000000005,1.143469699404526,0.07380674307845485
29.135344000000003,1.2704742698941711,0.08140491784404774
29.13994,1.4149448886633011,0.0888842886101505
29.144528000000008,1.572917263778888,0.09631814858735709
29.149116000000006,1.7424703416314897,0.10370254310845045
29.1537,1.92294905720175,0.11107477705822681
29.158296000000007,2.1156193990797547,0.11840193641178122
29.162887999999995,2.319171237226789,0.12571651625360658
29.16748,2.5328612237262416,0.1329522848353047
29.17208000000001,2.7480954700609597,0.1399987835951915
29.17666,2.9623317594190346,0.14693255396815308
29.181252,3.1608125864956644,0.14644644393854914
29.185848000000007,3.3462362546337907,0.14601494748641003
29.190436000000005,3.5193800135669187,0.14559819543462596
29.19504000000001,3.681309623905468,0.14526228757600718
29.19963200000001,3.8375438770494728,0.14478012924558614
29.204220000000007,3.9850179155135503,0.14423204055613045
29.208816,4.122299424544844,0.1436491044998245
29.213404,4.258338607171203,0.14272602215115152
29.218000000000004,4.3880273675836605,0.14165914574470356
29.22259200000001,4.507401413849187,0.14060576109608058
29.22718400000001,4.618259614863079,0.13950908763318268
29.231776,4.7190916126069595,0.13849920738393354
29.236368,4.809897407080831,0.13753652337139013
29.240948000000003,4.887445814636537,0.1366468854436814
29.245552000000004,4.956356192226462,0.1357321149867599
29.25014,5.013808051793517,0.13485273127125827
29.25474,5.062621881394792,0.13394345058789797
29.259324000000007,5.10325251806998,0.1330900291760384
29.26392,5.133989375821043,0.13243545349690586
29.268512,5.164726233572104,0.1318033289749132
29.273108000000008,5.19869427497132,0.13114054559072943
29.27769600000001,5.231518512494597,0.13051417154096004
29.282284000000004,5.262299511694288,0.12993931037090653
29.286876000000007,5.29026002283689,0.12941991510182654
29.291464000000005,5.309759069808223,0.12906366586489018
29.296043999999995,5.330524105369641,0.1286668106964275
29.300636,5.3542318137022935,0.12821480792480094
29.305232000000004,5.370377492311327,0.12791335392979128
29.30982400000001,5.381903813967974,0.1276912567252967
29.314415999999994,5.396372808395857,0.12741354112287617
29.319008,5.41222997612797,0.12708925214511918
29.323604000000003,5.425388840517141,0.1268061654552489
29.328184000000007,5.44222348596242,0.12641606791893553
29.33277200000001,5.463921857788376,0.1259384858326042
29.33737600000001,5.4843542410242465,0.1255045118543787
29.34196,5.50556387399362,0.12506892344731985
29.346548,5.528083637001705,0.12465101867885231
29.351144000000005,5.550481215295646,0.1242450094012941
29.355736000000007,5.573123163017877,0.12382076062323713
29.360332,5.591434264664642,0.12350412350985145
29.364912000000004,5.612688039082643,0.12313951568089453
29.369519999999994,5.636640116843587,0.12274171369408535
29.374108000000007,5.659692760156884,0.12235233121575514
29.378708000000003,5.682867588184327,0.12195128398971317
29.383288000000007,5.714748249811327,0.12140006287970272
29.387896,5.745607292276535,0.12087596272603324
29.392488,5.772868596951151,0.12040597217043099
29.397088,5.803072574397002,0.11988749206539809
29.401684000000003,5.837118659061736,0.11930695336276478
29.406272,5.866667571488231,0.1187897325847133
29.41086,5.889553888638752,0.11837721621673009
29.415448,5.9149721829694455,0.11789427396729063
29.420052,5.932584078148227,0.11754631409584146
29.42464,5.945820985802916,0.11724725668817225
29.429227999999995,5.958891567294829,0.11690863810959522
29.433816000000007,5.972328702929181,0.11654674187883042
29.43840400000001,5.984700077953108,0.11615895868325575
29.442984,6.000380679890709,0.11570441773735848
29.44758,6.0151618473806625,0.11525962969567488
29.452175999999994,6.027489080955965,0.11482522407245213
29.456760000000003,6.030699785340642,0.11450020286940704
29.461352000000005,6.02965768691537,0.11420896557476036
29.465944000000007,6.03474530346086,0.11380859864505272
29.470536,6.042364897186521,0.11333916751162731
29.475128,6.043688449778644,0.1129416200121765
29.479724000000004,6.044601306779704,0.11252187694163869
29.484308,6.043959664313759,0.1121040857820639
29.488896,6.042662956828457,0.11168173252594588
29.493496000000007,6.038912315428504,0.11127189018450032
29.49808400000001,6.035406043456842,0.11084480154975897
29.50268,6.037130052008293,0.11032082455898767
29.507272,6.033213084445566,0.10986777751135716
29.511880000000005,6.033504778244158,0.10933598958752189
29.516464,6.033918656756896,0.10879517588398964
29.52106000000001,6.030612612764898,0.10829668418821545
29.525648000000004,6.024730450144101,0.10781682581805112
29.530248,6.014106745856773,0.10739678805163938
29.534836,5.993222708502883,0.10709865498265353
29.539432000000005,5.971683606129635,0.10679160469476473
29.544028,5.955496968993646,0.1063799888072755
29.548624000000004,5.946095111847776,0.10586929932609103
29.55322,5.939391558044849,0.1053295518869593
29.557816000000003,5.926025408965949,0.1048774438469166
29.562411999999995,5.913192140192261,0.10444207594007507
29.567008,5.903956609209166,0.10397203652734162
29.571612,5.894476708797778,0.1035181399684278
29.57620800000001,5.886429123139249,0.10307075496091528
29.580788,5.875971745014694,0.10268089671079844
29.585372000000007,5.866169431909498,0.10229830159869016
29.589963999999995,5.857799433557158,0.10192351142562109
29.594552000000007,5.847674707758152,0.10161405686144623
29.59914000000001,5.845522707273831,0.10124043741915567
29.603736,5.841860348771134,0.10091590187371309
29.60832000000001,5.838608685859501,0.10061539356548413
29.6129,5.842430313814907,0.10026029374408386
29.617492,5.849483125418468,0.09989881550258665
29.622084,5.86463084705086,0.09946973689105974
29.626672,5.8904495973408775,0.09895511459811439
29.63126800000001,5.921664954316783,0.09839954642142638
29.635856000000004,5.954190441331402,0.097873259958264
29.640448000000006,5.989047677546527,0.09735829247815671
29.645039999999995,6.029423705161685,0.0968042772789593
29.649632,6.075851404482086,0.09622071206339915
29.654232000000007,6.122034734374196,0.0956606089593413
29.658824,6.167074260390368,0.09512901627309807
29.663428,6.211747232264102,0.09462215283654087
29.668024000000003,6.259362876909071,0.09408656200337112
29.672628000000003,6.309021759877627,0.09352407946245302
29.677208000000007,6.362156195922629,0.09295050687913042
29.6818,6.417333870291219,0.09235757461088576
29.686388000000008,6.4767202060211275,0.09171022155770217
29.690991999999994,6.5332860536939465,0.09110118980834724
29.695584,6.590995705242706,0.09047434522070918
29.700176,6.6518923989909915,0.08980765780176751
29.704764,6.708291920501037,0.08917809622650211
29.709360000000004,6.764935811439375,0.08854255051509564
29.713948,6.81798196458712,0.08794184577316955
29.718540000000004,6.867674749372565,0.08735914076033727
29.723132000000007,6.910827123596184,0.08683176262998865
29.727732000000003,6.950259575315067,0.08633914303678163
29.732316,6.98633865867165,0.08586009269051333
29.736904,7.0139562778569635,0.08545151536392778
29.741492000000008,7.032701737279946,0.08508571203752097
29.746088,7.050014881950069,0.08471196279761684
29.750684000000007,7.066917331029128,0.0843181832198708
29.75528,7.084308518964768,0.0838984850402406
29.759872,7.098101969109816,0.08350044796671541
29.76446,7.109685854768504,0.08309070585132622
29.76906,7.117383491759681,0.08267366893025781
29.773647999999994,7.117885653169675,0.08229235797962618
29.778244,7.112091773446135,0.08194296539054087
29.782840000000007,7.102411645055085,0.08158200095331833
29.78742800000001,7.091665756053612,0.081189868562648
29.792024,7.073846576185101,0.08082348909663256
29.796612,7.059336623230262,0.08041160873524786
29.801216,7.042739290503209,0.07997891859721835
29.805812000000003,7.021889154966209,0.07955086033567178
29.810404000000005,6.995764597457466,0.07913712152362977
29.815004,6.9730714515765415,0.07867001497025278
29.819596000000004,6.948168741209256,0.07818566075242676
29.824200000000005,6.921589346660819,0.07769992184809857
29.828796,6.897419744578405,0.07717078857924263
29.833392000000003,6.882977595257346,0.07656328959258242
29.837972000000008,6.8678803809169295,0.07594526704086894
29.842572000000004,6.851106482395363,0.07532586377046781
29.847151999999998,6.832778084406793,0.07469828425389215
29.851752000000005,6.81506060998895,0.0740359329523
29.856340000000003,6.800818688647554,0.07336660251986671
29.860932000000005,6.7854329634302175,0.07271087242868488
29.865516,6.777731452650649,0.0720024617357732
29.87011200000001,6.774771483537609,0.07126554380628844
29.874703999999998,6.774143263625077,0.07053721656408418
29.879292000000007,6.773803554589463,0.06983878172064027
29.883880000000005,6.7836019939062675,0.06909902070986543
29.888468000000003,6.7895583260041885,0.06838556228265558
29.893056,6.794781549817237,0.0677104789638302
29.897656,6.807078064497322,0.06702289583696527
29.902236,6.82963491224397,0.06629252640781946
29.906831999999994,6.854767878619415,0.06556876290940943
29.911424,6.8861968861283955,0.0648343658231942
29.916016,6.918158773942588,0.06411637340799346
29.92061200000001,6.9528189650997225,0.06339793955860405
29.925192,6.986990417400275,0.06271741007816002
29.929772,7.022838553881978,0.062043771342313085
29.934368000000006,7.060896254850043,0.06139163991010027
29.938956000000005,7.103206758628053,0.06074822669868266
29.943548000000007,7.147482457464134,0.06014194210834965
29.948136000000005,7.189714917976628,0.05955653685278789
29.952724000000003,7.235789485708006,0.058957459444673
29.95732,7.277655392078063,0.058400275761632404
29.961920000000006,7.318621864000471,0.05785199461479594
29.966524000000007,7.3579116517417305,0.057301830722046226
29.971104,7.398100873930637,0.056753652325990035
29.975712,7.432282565862929,0.05624986387548016
29.980304000000004,7.4698176261575195,0.05575629138583548
29.98489600000001,7.5111947936709935,0.05525047660285961
29.98948,7.549096408108022,0.05474908463588078
29.994068,7.580335427269078,0.05427828161810804
29.998652000000007,7.609286838678256,0.053836653887549636
30.003248,7.630309666221376,0.05343665697346073
30.007852,7.654275166535732,0.053025123153778476
30.012448000000006,7.676974678260003,0.0526347488086414
30.017039999999994,7.691334910527154,0.05226172049573942
30.021628000000007,7.7032853503282785,0.05191853071574735
30.026216000000005,7.713436921234107,0.05157693779479541
30.030804000000003,7.719746384921056,0.0512499090898319
30.03539600000001,7.723479729979205,0.050919512520325706
30.03998,7.725292021427912,0.05059506534360929
30.044572,7.725593954858243,0.050300098417952875
30.049167999999995,7.727939126612163,0.0499938182053019
30.053764,7.727630136471765,0.049726830409216376
30.058344000000005,7.729652895531875,0.0494754605434533
30.06294,7.729754600982543,0.04923026059234999
30.06752400000001,7.727035818376121,0.048990379282807875
30.072112000000004,7.7203527438366715,0.04876768661148889
30.076708,7.704963835697663,0.04857299761650222
30.081288,7.685244081483189,0.048410679626211685
30.085880000000003,7.661315665907395,0.04827505094933647
30.090468,7.634566762274512,0.04814460329414364
30.095060000000004,7.613703204184099,0.04799055810957486
30.09965200000001,7.587853734998864,0.04785821087982924
30.104236,7.557018354718806,0.04774745489773214
30.108832000000007,7.529536342801049,0.04764670272306772
30.113412,7.4976793433591995,0.04753921241089283
30.118012000000007,7.461980236698465,0.0474418080165097
30.12260000000001,7.425137326161792,0.047354935125354276
30.1272,7.382164700654358,0.047301714543525275
30.131795999999994,7.337926086556839,0.047265252243835626
30.136392,7.285592562430492,0.047227271240913124
30.140972000000005,7.22802875778103,0.04722338208313753
30.145560000000003,7.166212150321619,0.04720717341081896
30.150164000000004,7.101042174499909,0.04717647742739945
30.154764,7.034195514497049,0.04713654096509302
30.159352,6.965427800884746,0.04710126288497653
30.163948000000005,6.893062349481854,0.04706486890486176
30.168536000000003,6.821840701954898,0.04701546432197346
30.173131999999995,6.748820185532649,0.04696624078681756
30.177724,6.675921853824545,0.04691046492827282
30.182320000000004,6.595705861821111,0.04685803918818222
30.186912000000007,6.504862982608679,0.0468409852583313
30.191512000000003,6.4105445503198,0.0468149745271782
30.196104000000005,6.310829511345034,0.04678899153751881
30.200692000000004,6.203796812074939,0.0467690503902964
30.205292,6.095620308928904,0.04676248912901145
30.20988,5.984745502439929,0.04675480329688968
30.214476000000005,5.864754166760329,0.04675361915339338
30.219068000000007,5.746273189099104,0.04671498868270244
30.223656000000005,5.621618355018489,0.046667285058526284
30.228252,5.497618585957231,0.04663422683702285
30.232832,5.366545526028936,0.04659552374678092
30.237424000000004,5.235594650814787,0.04654009236643706
30.242008,5.095937942001079,0.046522377031678164
30.246607999999995,4.947575399587813,0.046544999756228465
30.251204,4.793816250488658,0.04656553976187147
30.25578400000001,4.640301470817794,0.04655839669681516
30.260384,4.482289518908692,0.04653977499638956
30.264968,4.320924198637289,0.046493656335115485
30.269568000000007,4.158004378898882,0.04641080391673688
30.274152,3.997660677789273,0.04633897241430743
30.278756,3.836539726946162,0.046260488080448456
30.283352000000008,3.675418776103051,0.04616365565886768
30.28794000000001,3.513520575526438,0.0460439529946823
30.292524,3.3518667443781154,0.04587826478068177
30.297120000000007,3.1904572826580853,0.045663991462916866
30.301711999999995,3.0319904937092894,0.04538473599746898
30.306300000000007,2.8791646808746725,0.045047262528199815
30.310892,2.72507287944997,0.04472359410503764
30.315488,2.573679381368212,0.044362647376727675
30.320080000000004,2.422408068000599,0.04394444764878143
30.324672000000007,2.277799349908958,0.043398083022747495
30.329256,2.130903024065439,0.04286721179385341
30.333852000000007,1.9933675968408355,0.04224480476854436
30.338436,1.863272014625706,0.03989611358758949
30.343028000000004,1.7394724735441116,0.03755055423022412
30.347632000000004,1.6162058127677277,0.03523397738134089
30.352220000000003,1.5007896925918827,0.032936872222311044
30.356815999999995,1.3904036249594887,0.030661775689863842
30.361404000000007,1.2814498720799525,0.028424607331003444
30.365988,1.178137095314595,0.026178920344973534
30.370584000000008,1.0858619013493036,0.02392717084088044
30.375176,0.9988611293557536,0.02170311007050924
30.379776000000007,0.9254740587910668,0.01949661913259982
30.384376000000003,0.8601818982552107,0.01733018925569078
30.388964,0.8011857788528894,0.015205577408830722
30.393564,0.7472197119940184,0.013147762059654202
30.398152,0.7003269360021844,0.011141943933720797
30.402748000000003,0.6599745705721768,0.009142421398535348
30.407336,0.6277171151709998,0.00718337230686119
30.411924,0.60253295063686,0.005273921188894172
30.416512,0.5823788386461702,0.0034859401626173192
30.421116,0.5696645716649547,0.0017061195568408266
30.425704,0.5568281199695935,0.0
30.430304000000007,0.5475894060648236,0.0
30.4349,0.543747298845941,0.0
30.439492,0.5435029294176495,0.0
30.444088000000008,0.544157994437006,0.0
30.44868,0.5506984049988323,0.0
30.453272,0.5637792261224849,0.0
30.457868000000005,0.5786589161414332,0.0
30.462460000000007,0.5898186836556445,0.0
30.467051999999995,0.602899504779297,0.0
30.471644,0.6103393497887711,0.0
30.476232,0.6184342598176018,0.0
30.480819999999994,0.6255075506846389,0.0
30.485412,0.6301269076370241,0.0
30.490008000000003,0.6358900684653481,0.0
30.494596,0.643452098188968,0.0
30.499184,0.6474163901219964,0.0
30.503764000000004,0.6479051289785789,0.0
30.508356000000006,0.6496598564252465,0.0
