Time,Force,Position
28.862883999999998,0.03524113587656099,0.0
28.867467999999995,0.03071802026264532,0.0
28.87206,0.02799377354402536,0.0
28.876656,0.02731276514899245,0.0
28.881243999999995,0.02446633371622682,0.0
28.885848,0.022763706159400383,0.0
28.89044,0.016441721650189024,0.0
28.895028,0.011019171588625509,0.0
28.89962,0.007273305708212026,0.0
28.9042,0.005448493437239919,0.0
28.908792,0.0027242467186199596,0.0
28.913388,0.0,0.0
28.917976,0.0,0.0
28.922571999999995,0.0,0.0
28.92716,0.0,0.0
28.931748,0.0,0.0
28.936344,0.0,0.0
28.940936,0.0,0.0
28.945532,0.0,0.0
28.95012,0.0,0.0
28.954719999999995,0.0,0.0
28.9593,0.0,0.0
28.963899999999995,0.0,0.0
28.968488,0.0,0.0
28.973088,0.0,0.0
28.977684,0.002680105269991806,0.0
28.98228,0.006259644987631463,0.0
28.986872,0.00983918470527112,0.0
28.991468,0.0144403435847043,0.0
28.996056,0.01814206801648963,0.0
29.000651999999995,0.02184379244827496,0.0
29.005244,0.028366004937149514,0.0
29.009836,0.033866598264230545,0.0
29.014424,0.03948937630545725,0.0
29.019012,0.048832076851421026,0.0
29.023599999999995,0.05727534294973696,0.0
29.028195999999998,0.06763966265749426,0.0
29.032788,0.08082447042234078,0.0
29.03738,0.09490871263483515,0.0
29.041976,0.1087485854190382,0.0
29.046564,0.12258845820324124,0.0
29.05116,0.13912663433038783,0.0
29.055747999999998,0.1568086143334736,0.0
29.060328,0.17641164794600078,0.0
29.064924,0.19511524711088007,0.0
29.069516,0.20909550268218052,0.0
29.074104,0.223075758253481,0.0
29.0787,0.23909925214836852,0.0
29.083288,0.2510362693960819,0.0
29.087883999999995,0.26207385219614754,0.0
29.092479999999995,0.2738886847297153,0.0
29.097075999999998,0.2810841603108981,0.0
29.101664,0.2893012550538744,0.0
29.106264,0.2982955995303529,0.0
29.110851999999998,0.30267058705444644,0.0
29.115452,0.3069233898643943,0.0
29.12004,0.3082776613517355,0.0
29.12464,0.309353661593896,0.0
29.129231999999995,0.31702445347824965,0.0
29.133827999999998,0.33906253433981837,0.0
29.138424,0.37677803421731515,0.007805673439755188
29.143016,0.4264510306060029,0.015742217436169853
29.147616,0.4902910879922425,0.023768375752008398
29.152207999999995,0.5641675882802317,0.0320150888257596
29.156796,0.6522891928312904,0.040275756874692134
29.161387999999995,0.7569435093972968,0.04845740796323223
29.165976,0.8740440613310768,0.05665657748899173
29.170564,0.9992600025571651,0.06505587430930204
29.175152,1.1465274471982339,0.07321965589980879
29.179744,1.3124149836264656,0.08129848239201323
29.18434,1.4925476243177667,0.0893584028554934
29.188931999999998,1.691666910938668,0.09731518364632434
29.193524,1.906052920984432,0.10523948116147953
29.198108,2.1328851663979695,0.11318777374733885
29.2027,2.376783004131667,0.12108843275935717
29.207288,2.6399118572232556,0.1288914643537102
29.211868,2.918341335556596,0.13664412917234356
29.216476,3.205032050081543,0.14435760879634812
29.221064,3.495065893337051,0.15193335490273202
29.22566,3.773142240081368,0.1594533968595827
29.230256,4.032432168875748,0.1591920520495548
29.234843999999995,4.274079483596131,0.15881576377632323
29.239439999999995,4.499472357546747,0.15831799374747238
29.244032,4.712619224109252,0.15757036675262023
29.248624,4.9117653558369785,0.15680602300440363
29.253204,5.095644764139843,0.15612681990993893
29.257804,5.26384675342678,0.15544865804457034
29.262392,5.425321526725638,0.15447198886275643
29.266991999999995,5.56547790489439,0.1537487151157514
29.27158,5.689423983742002,0.15306592552132256
29.27618,5.7971597632684775,0.15238711520051315
29.28076,5.886153266293642,0.15182323504372974
29.285356,5.958447731141087,0.1512947474535467
29.289964,6.015842026706105,0.15075424958901296
29.294548,6.054860599912251,0.15027047186012563
29.299136,6.075136896617088,0.14987214693902678
29.303732,6.079535546326333,0.1495363953816153
29.308319999999995,6.069655189955619,0.14929255464673083
29.312904,6.042519252916821,0.14930812937917307
29.317496,6.013706631696874,0.14934114859694295
29.322088,5.990168432448668,0.14928918151176218
29.326668,5.969861416848615,0.1492024019148352
29.33126,5.951519596306632,0.1491222723263754
29.335843999999994,5.935509524965156,0.14902154197960152
29.340432,5.920032333928891,0.1489328809268064
29.345036,5.90749781566386,0.14877958250569814
29.349624,5.899093915494631,0.1485774838849717
29.3542,5.886359169249936,0.14848883922585648
29.358812,5.879553909996339,0.1483225661127382
29.3634,5.874836030514958,0.14815689365681362
29.367999999999995,5.872205530805793,0.14799169945742818
29.372595999999994,5.869863541973547,0.14785604162252516
29.377184,5.872429420970605,0.1476686503301808
29.381788,5.87900373334932,0.1474443379469437
29.386384,5.890241544129048,0.14718640022345153
29.390988,5.899846812176255,0.14699489177624792
29.395568,5.911661644709822,0.14679454628952276
29.400172,5.932470821719868,0.14644951742126996
29.404751999999995,5.964972646549335,0.14591081759347635
29.409352,5.99559755921799,0.1454573479575293
29.413928,6.023690494706475,0.145089948345771
29.418527999999995,6.053870809967176,0.14472651332511793
29.423123999999994,6.08650505914253,0.1443438373473518
29.427716,6.11955000390895,0.14398861653854747
29.432312,6.157458675056044,0.1435442898653426
29.436907999999995,6.194389868489973,0.14317377637842835
29.441496,6.232997746105053,0.14279199921428815
29.446092,6.2748368073682865,0.14238231903068885
29.45068,6.31361101114614,0.14204389958778157
29.455276,6.350341976600406,0.14175295724985232
29.459864,6.390426310416974,0.14143209221052805
29.464459999999995,6.438972108404807,0.1409769472186592
29.469048,6.48445304890726,0.14058946279041948
29.473648,6.531077793285651,0.14018172474369872
29.478235999999995,6.579745775987631,0.1397433205783686
29.482824,6.63291093092785,0.13924007910728856
29.487407999999995,6.68991819308695,0.13868011488452406
29.491996,6.743083348027169,0.13819828648738025
29.496592,6.79367238433859,0.13775730891315538
29.50118,6.85129057006842,0.13719450768168576
29.505768,6.912873047731279,0.13656684747489584
29.510364,6.972123776193632,0.13595410809529107
29.514951999999997,7.028798386027185,0.1353760724436053
29.519552,7.083796311679588,0.13481761963014943
29.524136,7.133275445931959,0.13434183012450945
29.528716,7.184509307630998,0.13380815722972997
29.533308,7.2362319081866175,0.13325798791065924
29.537896,7.284845509808232,0.1327232691122095
29.5425,7.334314404428863,0.1321409420281046
29.547079999999998,7.384516407334368,0.13151917142754702
29.55168,7.428133858229419,0.13094920687953623
29.556268,7.4613246498951336,0.13048900157384158
29.560868,7.49471566954051,0.12997624519817
29.565464,7.519478898851846,0.12954419913562285
29.570048,7.540355879495672,0.12913324561327758
29.574636,7.560533653671513,0.1286829029938691
29.579228,7.57604792944634,0.1282544644893659
29.583828,7.590740814039037,0.12779264279276906
29.588428,7.5998707657830735,0.12735738515237455
29.593016,7.6021717960883635,0.1269810699205634
29.597612,7.60095313186858,0.12659890342523716
29.6022,7.597891457304874,0.12619587209355937
29.606787999999995,7.591842968521304,0.12579519594440883
29.611376,7.584728719127311,0.1253720830405642
29.61598,7.577081589428108,0.12493645350845961
29.620572,7.563504972737806,0.12454462157408662
29.625159999999997,7.541833446018674,0.12423506560304227
29.629752,7.522816081193857,0.12385809958215611
29.634339999999995,7.501100413026095,0.12350722749996387
29.638935999999998,7.47668644151539,0.12318211794093469
29.643524,7.45635894665186,0.12279202196653331
29.648104,7.437175255664269,0.12237660189756808
29.652716,7.4179915646766785,0.1219600981957621
29.657304,7.405103914822622,0.1214786706739361
29.6619,7.38735253858789,0.12106066750762534
29.666487999999998,7.366658489581923,0.12068204299407505
29.671076,7.348418374490606,0.12028956771941084
29.675672,7.3285457166667705,0.11994590423981565
29.680271999999995,7.30961663473921,0.11963111472423814
29.684867999999994,7.294163105888096,0.11928700758939813
29.689443999999995,7.27760991460967,0.11900378587798745
29.694044,7.266741840894049,0.11869357009238986
29.698632,7.257306081931289,0.11838532195291994
29.703232,7.2486475727020325,0.11807475396923259
29.70782,7.243220247120928,0.11775044937935812
29.712424,7.241679170207335,0.11741674466689558
29.717008,7.247211384160778,0.11702090574374165
29.721591999999998,7.250744501239264,0.1166966229411736
29.726188,7.2576309866800495,0.11635290989082149
29.730784,7.26852590550249,0.11599570604563934
29.735372,7.277299542735829,0.11571607266096316
29.739964,7.292779916693767,0.11539956915436433
29.744552,7.31059203985221,0.11508202732156132
29.74914,7.333800769696542,0.11472302558349533
29.753732,7.366903278465,0.11427947133599795
29.758328,7.404258590043407,0.11381325853957917
29.762916,7.439204109155788,0.11339856775491743
29.767508,7.478768985220554,0.11294272266880319
29.772104,7.525240825989584,0.11240510791883043
29.776692,7.569180689578445,0.11192484664969557
29.781292,7.616185410652686,0.11140396200465567
29.785872,7.660247458955692,0.11092450286608403
29.790464,7.7098282986587305,0.11040093268795594
29.795055999999995,7.763784125885863,0.10985659733505636
29.799644,7.819783191436581,0.10929427963516092
29.80424,7.875127191967945,0.10872860135958888
29.808831999999995,7.927772889156365,0.108189248383354
29.81342,7.982706194096662,0.10761427295887338
29.818008,8.037761683751105,0.10704016830658371
29.822599999999994,8.087664936147954,0.10649531134538066
29.827196,8.139322915991468,0.10590191673227337
29.831784,8.184684854701448,0.10535951911505871
29.836383999999995,8.226449055620837,0.10484718442085354
29.840964,8.262161584834983,0.10437711725112726
29.845564,8.292477507363241,0.10395087539523816
29.850156,8.322138364872142,0.10352409928886303
29.854752,8.355352818723006,0.10304109810788968
29.859344,8.38329285060213,0.10259146198566366
29.86394,8.408534579138308,0.10216632592304317
29.868531999999995,8.436674838997094,0.1016798284675084
29.873127999999998,8.465548207140758,0.10116428853466489
29.87772,8.4941330644075,0.10062780364813052
29.882316,8.518220749436,0.10012447143724529
29.886903999999998,8.532048101397939,0.09969900664739972
29.8915,8.540356661959844,0.09931378730944165
29.896088,8.548909591950043,0.09891791901267188
29.900679999999998,8.55770689136853,0.09851143880663003
29.905272,8.565971310481807,0.09809589038592169
29.909868,8.57153742625214,0.09769718264125499
29.91446,8.579268965060207,0.09727003799049043
29.919052,8.588921557477716,0.09683005511191872
29.923648,8.603682245704192,0.09633834041205055
29.928228,8.621385606701903,0.09582205054859373
29.93282,8.636801359947734,0.09533779281985319
29.937408,8.653483101783653,0.09483377047761458
29.942,8.668121605295982,0.09435284419600627
29.946591999999995,8.675853144104048,0.09393390982385998
29.95118,8.685261367093265,0.09351038838946645
29.955772,8.694669590082482,0.09308978003994624
29.960356,8.702567455053321,0.09270349674474579
29.964944,8.70883277729164,0.09235649981310208
29.969539999999995,8.71587534926346,0.09201154654119588
29.974135999999994,8.724716790130579,0.09165901923322997
29.978731999999997,8.742264064597254,0.09123889659215763
29.983312,8.76479725015875,0.09077718852668586
29.987916,8.791172542939128,0.0902919069577588
29.992496,8.820123954348306,0.08980258389477924
29.997096,8.850629865224487,0.08932033495398028
30.001692,8.884977883319552,0.08881441563330375
30.006291999999995,8.926521376995801,0.08828306132452314
30.010884,8.96434494816731,0.0877768363289008
30.01548,9.00000309630109,0.08729887641565393
30.020067999999995,9.035905613863159,0.08681583481836073
30.024663999999994,9.076794042520048,0.08629602801185221
30.029267999999995,9.11486198311985,0.08579435016720983
30.033868,9.152274858700293,0.08528721786197363
30.03846,9.195573079823209,0.0847382475766693
30.043052,9.241936158431503,0.08416762655450619
30.047639999999998,9.284701499249207,0.08361387096703252
30.052228,9.327833394209348,0.08304860916728941
30.056816,9.370188039435986,0.08248406474536345
30.061412,9.415607542148003,0.08190129799253615
30.066008,9.457795861211867,0.0813198684767929
30.070595999999995,9.499084745828084,0.08074819131421275
30.075191999999998,9.535754273491914,0.08020117699433851
30.07978,9.565761205879777,0.07969359664016361
30.084376,9.590615901010041,0.07919646980082048
30.088956,9.607375686111475,0.07872654894065186
30.093548,9.618616679812876,0.0782807007604612
30.098156,9.62074114432365,0.0778716180057968
30.102743999999998,9.622987793548573,0.07745750398526136
30.107352,9.62674480079187,0.07701856974456459
30.11194,9.62678188553043,0.0765962206546312
30.116527999999995,9.62052292913546,0.07619290972048016
30.121123999999995,9.615407776616424,0.07577651654158683
30.125712,9.611680797401622,0.07533844354501881
30.130316,9.605255514843872,0.07490882313159171
30.134908,9.595354679209679,0.07448548885418506
30.139503999999995,9.582755540232547,0.07406703182746445
30.144084,9.564759794569525,0.07366174891086993
30.148684,9.540468007772969,0.07327103188973355
30.153264,9.50554933376741,0.072934158593324
30.157872,9.469486855885911,0.07260676167147553
30.162464,9.42904939048032,0.07228453905381584
30.16706,9.389389174808231,0.07196268236506008
30.171651999999995,9.352916001335668,0.07161257033054935
30.176247999999998,9.319141131206049,0.07125356452036925
30.180851999999994,9.289863433314668,0.07088049120998621
30.185447999999997,9.264550027356318,0.07048250147214505
30.190048,9.244100347778643,0.07005819610610362
30.19464,9.225327352382118,0.06963402943774052
30.199228,9.200546826728978,0.06924493383634345
30.20382,9.174500312485753,0.06887012864089041
30.208408,9.154627654661917,0.06848503960532938
30.212996,9.136187311590938,0.06810991650345724
30.217583999999995,9.117136044949234,0.0677581415421242
30.222179999999994,9.10000583191697,0.06739733914063972
30.226772,9.083775053332353,0.06703394094085498
30.231364,9.074861935043064,0.0666507178626046
30.23596,9.071223238725517,0.06626042988439787
30.240548,9.078866494636328,0.06583026350099061
30.245144,9.09623720330849,0.06535366566849546
30.249731999999995,9.12014832254248,0.06485805292101288
30.254312,9.14933386374821,0.06435962519279412
30.258924,9.182239327458676,0.06385323369610638
30.263512,9.215677671474356,0.06336253462529755
30.268108,9.250914884385333,0.06287229477280598
30.272696,9.292570323143988,0.06237234327222977
30.277288,9.333737023046059,0.061894664175192626
30.281879999999997,9.373637734358047,0.061436486892588564
30.286472,9.414804434260116,0.06096757404801561
30.291068,9.462389360009873,0.060486909124399676
30.295655999999997,9.515859631302094,0.05998318835085689
30.300256,9.567775403127312,0.059477999796090066
30.304844,9.620957163542615,0.05896255336055636
30.309444,9.676059977567359,0.058443768010786296
30.314032,9.729119553268518,0.05793920556831019
30.318639999999995,9.779114271484294,0.05745225862533575
30.323232,9.828209555252423,0.05697165465311473
30.327828,9.879225892629993,0.05648937955237333
30.332412,9.925378503626888,0.056030010418901925
30.337008,9.970387310747842,0.055585534346472024
30.341596,10.010654576202267,0.055157120835862085
30.346191999999995,10.04618029999016,0.05474295582135578
30.350772,10.076187232378022,0.05433874334857923
30.35536,10.103373676708795,0.053941513818551494
30.359939999999995,10.126718013820684,0.053556469766708775
30.36452,10.142744690637244,0.05318264780585741
30.369116,10.15517362966321,0.052810816975540346
30.373708,10.16004053896556,0.052454114726008895
30.378296,10.159799352458942,0.05212125491358259
30.382884,10.157104232037673,0.051782382817497245
30.38748,10.14942320052158,0.05146283656906256
30.392067999999995,10.138799496234252,0.05115251016287551
30.396648,10.121268827242663,0.05086457058821279
30.401244,10.099118801298687,0.05058167467888092
30.405832,10.07672440592642,0.0503063960443396
30.410439999999998,10.055762325307013,0.05004223338145601
30.415032,10.027238214963985,0.04979117056015815
30.419619999999995,9.992051509344986,0.04955326592857753
30.424215999999998,9.955720999850046,0.04932308378636722
30.428816,9.912361340936696,0.04911833527621505
30.43342,9.866836258985614,0.04892511657462097
30.438016,9.822210611482182,0.04873023961107663
30.442612,9.777096225122166,0.04855082812145832
30.447191999999998,9.733780707657445,0.048369913020927635
30.451792,9.686500898259697,0.04820036075296612
30.456371999999995,9.638077284986007,0.0480376018471768
30.460975999999995,9.588632052550526,0.04787716315021531
30.465568,9.54854771873396,0.047702091327708245
30.470156,9.50809683077496,0.04753906358759878
30.47474,9.456408132036229,0.04742286119892044
30.479336,9.401898945240408,0.047309555130005856
30.483923999999995,9.3461237698545,0.04720788588182188
30.488524,9.292025278649746,0.04710978742804305
30.493112,9.235761364407256,0.047023668163594746
30.497704,9.17385647405059,0.04694499557227981
30.502292,9.108598215331627,0.046855586487987405
30.506876,9.048492193870254,0.04677487347052159
30.511464,8.986342934085295,0.046701830156648264
30.516056,8.916631644576718,0.04664091578691258
30.520647999999994,8.845243670886989,0.04657446169246556
30.525236,8.771035209140175,0.046511382534409444
30.529827999999995,8.689797597974946,0.04647616701876685
30.534416,8.605861683466776,0.046440127231452355
30.539012,8.515263173682634,0.046416241212782844
30.543608,8.428506771117375,0.04638148376028629
30.548196,8.335865023009648,0.04636554801191847
30.552792,8.241057851864186,0.04636385637678406
30.557376,8.133580555186137,0.04640172870256729
30.561964,8.016986729317464,0.046446056058261014
30.56656,7.907544237581346,0.04645605319543627
30.571147999999997,7.796302876949932,0.04646406614799713
30.575748,7.678398921042547,0.046488525046423076
30.580327999999994,7.554198924001626,0.046511978290464696
30.584928,7.429099492513056,0.04653529817830433
30.589516,7.3029784418626935,0.046565448649219514
30.594108,7.174814152888743,0.0466053069323131
30.598696,7.038432769171817,0.046651115186658126
30.603296,6.901029766293098,0.04670461519415016
30.607892,6.76554781702382,0.04675394610616103
30.61248,6.6290442485927485,0.04681152399230083
30.617059999999995,6.487921323209292,0.04687733806553319
30.621655999999994,6.346387702234771,0.046919456041250175
30.626244,6.200356909022012,0.04696126875991845
30.630835999999995,6.04676408608563,0.04703044592851285
30.635428,5.88278874536854,0.047130545318381636
30.640016,5.719179958793887,0.04721136701745607
30.644603999999998,5.550296750247493,0.04728770090473785
30.649196,5.382146649985973,0.04731945593315245
30.653788,5.222580198609867,0.04731706012763248
30.658379999999998,5.05827220556723,0.047325445490488505
30.662976,4.892820408648652,0.04735186216373065
30.667564,4.731332903663104,0.047352677549148264
30.672163999999995,4.572543702020501,0.0473528971692464
30.676752,4.4082357089778625,0.047364767167493105
30.681348,4.245071519811165,0.047353635822829795
30.685944,4.076266354530289,0.04737166312971383
30.690532,3.905784505068262,0.04738107053468712
30.695139999999995,3.7338703408533767,0.04734200164236422
30.699724,3.5592578732955475,0.0472967922754468
30.704311999999994,3.384112525432508,0.04719053672055629
30.7089,3.2110104158930555,0.04703809264333195
30.713488,3.040728794410692,0.04682799843281683
30.718084,2.8758437796142156,0.04660402875324757
30.72268,2.7214634673125944,0.04627996398111376
30.727276,2.5756668038963855,0.04585482516218002
30.731868,2.4332235088424774,0.045442589632118745
30.736467999999995,2.298752939103254,0.045046530734671
30.741048,2.168535172173979,0.044639764930242236
30.745648,2.035496917187614,0.0441555118066998
30.75024,1.9061785847059867,0.0435694666078284
30.754836,1.7789034905479464,0.04120629821915145
30.759428,1.6515062116757604,0.03885747085020462
30.764024,1.5278288553083117,0.03651071231542028
30.76862,1.4114691592361912,0.03415322877841191
30.773208,1.3006282545641037,0.03181305298592504
30.777795999999995,1.2029903557298143,0.02944474578065459
30.782391999999994,1.1125479324767076,0.027079108506043455
30.786976,1.025991757891112,0.024755407210931314
30.791563999999997,0.9485521124961404,0.022438687127990662
