Time,Force,Position
34.466379999999994,0.09829820152495616,0.0
34.470988,0.11859422382636324,0.0
34.47558,0.13917875700468982,0.0
34.48017599999999,0.15883070758538506,0.0
34.48476399999999,0.1744403229675344,0.0
34.489355999999994,0.188828091208227,0.0
34.49393999999999,0.21437562696313084,0.0
34.49853199999999,0.24449762455488552,0.0
34.503116,0.27515250245185113,0.0
34.50771199999999,0.30242086383653316,0.0
34.512296,0.33467513631603707,0.0
34.51689199999999,0.3640647792898237,0.0
34.521488,0.3981959639301409,0.0
34.526087999999994,0.42872941077986665,0.0
34.53068,0.4593850423437381,0.0
34.535272,0.4858320125462898,0.0
34.53986,0.5056163874728695,0.0
34.544452,0.5255229471135948,0.0
34.54904,0.5443637461438986,0.0
34.55363599999999,0.5602177309543392,0.0
34.55822799999999,0.5772155196407192,0.0
34.562808,0.5900826902312968,0.0
34.56740399999999,0.6062590877355463,0.0
34.571992,0.6214919093435198,0.0
34.576587999999994,0.6424437503311893,0.0
34.58118,0.6624520154225828,0.0
34.585767999999995,0.6751426202186478,0.0
34.590364,0.6799826844141734,0.0
34.59494399999999,0.6845342377327795,0.0
34.59954799999999,0.6945604410027904,0.0
34.60413599999999,0.6973911686916185,0.0
34.60872399999999,0.7007106352370291,0.0
34.61333199999999,0.7000216684007834,0.0
34.617923999999995,0.703130667334792,0.0
34.62252,0.7058289706777355,0.0
34.62709999999999,0.708483132572051,0.0
34.63170399999999,0.7195546171890059,0.00700250653714808
34.63629199999999,0.7289494176248109,0.007002506537148079
34.640888,0.7355237300035266,0.007002506537148079
34.645475999999995,0.7414429773628858,0.00700250653714808
34.65007599999999,0.745152660235884,0.00700250653714808
34.65466399999999,0.7501283316989673,0.00700250653714808
34.65925599999999,0.7488079620285153,0.00700250653714808
34.663847999999994,0.7473654076439179,0.00700250653714808
34.668444,0.7413034963069356,0.00700250653714808
34.67303999999999,0.7338092702170944,0.00700250653714808
34.67762799999999,0.7238611102126011,0.00700250653714808
34.68221599999999,0.7188988613029297,0.00700250653714808
34.68680399999999,0.7125484390890278,0.00700250653714808
34.69139599999999,0.6977365527038581,0.00700250653714808
34.695992,0.6867667735375712,0.00700250653714808
34.700579999999995,0.6746531904953452,0.007002506537148081
34.705172,0.6642162916342692,0.007002506537148081
34.70976799999999,0.6496929161260192,0.007002506537148081
34.71435599999999,0.6361911597795628,0.007002506537148081
34.718951999999994,0.6253877067760497,0.007002506537148081
34.72353599999999,0.6095983426777148,0.0
34.72812799999999,0.5912328599505821,0.0
34.73271599999999,0.5765872997281863,0.0
34.737304,0.559654131753912,0.0
34.741899999999994,0.541088421047116,0.0
34.746492,0.5222783409120286,0.0
34.751079999999995,0.5061665641198848,0.0
34.755676,0.4937747098324782,0.0
34.760264,0.48485840862151713,0.0
34.76485999999999,0.4762306182874757,0.0
34.76944799999999,0.47402105380111487,0.0
34.774044,0.47312161935346697,0.0
34.778631999999995,0.477208096000641,0.0
34.783235999999995,0.4866911793337024,0.0
34.787816,0.49682932768612,0.0
34.792416,0.5082776060772507,0.0
34.79701599999999,0.5221798183830336,0.0
34.80161599999999,0.5363705415657362,0.0
34.8062,0.5491730914442079,0.0
34.810787999999995,0.5596880335708015,0.0
34.815392,0.571879659878545,0.0
34.81998799999999,0.5949866842722085,0.006572811240374213
34.824576,0.6159282856281392,0.013262662305075099
34.82916799999999,0.6417336133647461,0.01965240273960071
34.833756,0.6724026674820294,0.02582677199612666
34.838344,0.704626221066317,0.03196849769753753
34.842932,0.7404475124411961,0.037866068415230686
34.84752799999999,0.7702612735594596,0.04413932338903564
34.85211999999999,0.8000750346777231,0.05028294777827341
34.856711999999995,0.8300109805101323,0.05647412032701666
34.861308,0.8617457952378373,0.062328691103173815
34.86589999999999,0.8898828721749508,0.06828150465233065
34.870496,0.9122567882837402,0.07439557074333031
34.875083999999994,0.9357745082684688,0.08034838429248714
34.87966799999999,0.9612132818626387,0.08614120767431974
34.884256,0.9862413598657433,0.09189227792270532
34.88883599999999,1.0095927536876983,0.09759388865386967
34.89342799999999,1.0363755591374706,0.10307790588407996
34.89801599999999,1.0661010373584778,0.1084369323766528
34.90260399999999,1.0978697539030722,0.1137181105382702
34.90720799999999,1.1278396015523706,0.1190740543001104
34.911804,1.1488151047251907,0.11790079236212624
34.916412,1.1720782156498892,0.11645819820639645
34.921,1.1917435887839962,0.11531751902835062
34.925592,1.2097322777369532,0.11431859988200493
34.93018,1.2261664672229062,0.11335232429077433
34.93478,1.2392472883465586,0.11255891123756316
34.939372,1.2566589555456766,0.11128487664187063
34.943964,1.2704728849542033,0.11020968917604032
34.948552,1.287596041276402,0.10884842156033961
34.95314799999999,1.2965021028556243,0.10795396581077675
34.95773599999999,1.3038536649678423,0.10703101083602724
34.96232399999999,1.3161911381748819,0.10573481437354247
34.96692799999999,1.326729742486626,0.10456462964822694
34.971528,1.3332599134167133,0.10347546286800238
34.97612,1.3428549418321816,0.10220240717809634
34.98071199999999,1.3528165243900865,0.10085316384922569
34.98530399999999,1.3573815002621044,0.09973038616609411
34.98989199999999,1.358715292485968,0.09865556340744418
34.99448399999999,1.3566957163475315,0.09763967583988084
34.999075999999995,1.3561864982274712,0.09641018064266463
35.003668,1.357476149002707,0.09510268595105152
35.00826399999999,1.3531248236637639,0.09404356989159905
35.01286,1.3477518791630274,0.09303490207881583
35.01744399999999,1.3378817624240513,0.09217395093147676
35.02204,1.327600950094011,0.09118155536923846
35.026627999999995,1.3136002152592328,0.09033619354235177
35.031208,1.2995994804244548,0.0894817611896379
35.035819999999994,1.287519799199118,0.08851655548854036
35.0404,1.2723752604884009,0.08774850756220907
35.045004,1.2601733945489186,0.08679390949054086
35.04958799999999,1.252590885561821,0.08563856046090539
35.054179999999995,1.2383457812987515,0.08479459072996365
35.058776,1.224222861749828,0.08390067153617965
35.063364,1.2132089411349132,0.08303739985250044
35.067968,1.196187490263383,0.0825167762931881
35.07254799999999,1.1800654738395002,0.08194563517936829
35.077148,1.1692178793873589,0.08126163686631503
35.081731999999995,1.1599247844022218,0.08059671359314553
35.08633199999999,1.153207808045883,0.07989472770739886
35.090916,1.147800961728257,0.07929750709740904
35.09552,1.1453367881818661,0.07858368864375048
35.100108,1.14749197158786,0.07772659122128048
35.10470399999999,1.155165946393887,0.07673697255390648
35.1093,1.169013777619303,0.07564131289840376
35.11389599999999,1.182128500559845,0.07474944341745214
35.11848799999999,1.2003954607579823,0.07379006899229631
35.123079999999995,1.2167413673466787,0.07292527782363438
35.127672,1.2359077619924643,0.07201125873448934
35.13227199999999,1.2547076024958128,0.0711974566318075
35.136864,1.2750619424661658,0.07042985585962772
35.14145999999999,1.2960713474558754,0.06976424898838121
35.146055999999994,1.3242762280267675,0.06896355139407767
35.15064399999999,1.354935042512312,0.06822326824804362
35.15523199999999,1.3837949881025609,0.06753130981413803
35.159828,1.4162526714834012,0.06674009710940138
35.16442399999999,1.4463005623982175,0.06617659430250397
35.16901199999999,1.4725063460941505,0.06575202286636271
35.173612,1.496668891466497,0.06542122086612885
35.17819199999999,1.5225081210199933,0.0651183250207156
35.18278399999999,1.5457712319446917,0.06483270464684257
35.18738,1.5649478662222163,0.06473338933086764
35.191968,1.589765476613919,0.0645469091047101
35.19656399999999,1.6109853492150306,0.06441656081228214
35.201148,1.6334712104062268,0.06422139248539196
35.20574,1.660942982692245,0.06388687674167744
35.21033599999999,1.6878818746730524,0.0634956141869611
35.21492399999999,1.7186628738727427,0.06304729716623308
35.21952,1.7436807122441087,0.06272300277673094
35.2241,1.7684100397385552,0.06227904140649295
35.22870799999999,1.7960820400042363,0.06178946458142067
35.233292,1.8195012374599697,0.06129298756628309
35.237891999999995,1.841365935448699,0.060785571393606616
35.24247999999999,1.8597550803609826,0.06028457077414177
35.247076,1.8754459219303223,0.05979027190154013
35.251659999999994,1.891503317642099,0.059233952415135585
35.256256,1.9051067794392238,0.05863186565883081
35.260839999999995,1.9198540451122876,0.05797333118283531
35.26542799999999,1.9357451146612907,0.05725753987968772
35.27001599999999,1.9445628933432564,0.05655568212122121
35.274616,1.9553017256346636,0.055824865637199
35.279204,1.9662849273543628,0.055037565157180356
35.28379599999999,1.9650867423980563,0.054413824400293256
35.288384,1.9619675038323088,0.053816727642714834
35.29296399999999,1.9493651819335,0.05335033738816145
35.29756,1.929445199739363,0.052931260683792225
35.30214399999999,1.90940303283108,0.052532550225113564
35.30674,1.8842527701138299,0.0522673506654429
35.31131999999999,1.8592246921107247,0.05197496495594921
35.31591199999999,1.8319090063557417,0.05177935192865657
35.32049999999999,1.7989523444865803,0.051644872517184255
35.325088,1.7676723667985685,0.05151609965564905
35.32969599999999,1.727686555510998,0.0515522283137788
35.33428399999999,1.6868013097757797,0.051581074439239094
35.338891999999994,1.6497581712594438,0.051531697339717464
35.343484,1.609894544686019,0.05149806488423725
35.348071999999995,1.5719519717220354,0.05142633972041874
35.352664,1.5341315834721971,0.05130662997720591
35.357251999999995,1.4963111952223593,0.051173834618733656
35.361848,1.4649090328202021,0.05098731717618567
35.36642799999999,1.4304420129326643,0.050880022455392485
35.371024,1.3949533738833328,0.05079409436630041
35.37560799999999,1.3658829606816822,0.050678864780310064
35.38021199999999,1.338611416375327,0.05056112791200758
35.384803999999995,1.3187797170784463,0.050375489023412885
35.389391999999994,1.3061434933627483,0.05017925067144892
35.393988,1.2878662935328717,0.050041040752407465
35.39857999999999,1.2698334631312866,0.049844955544879936
35.403168,1.2584632280056731,0.04954539408409026
35.40776399999999,1.2509351000989426,0.049179339481571646
35.41235199999999,1.2423853530304183,0.04883476129044656
35.416943999999994,1.2346128556953966,0.04852226125056054
35.421524,1.2395104838929623,0.04794971927492303
35.426112,1.2441637426622365,0.04742651344519724
35.430699999999995,1.2504936856126612,0.04695463637201028
35.43529999999999,1.2602991816395313,0.0465180189631058
35.43989199999999,1.26986030823811,0.046139804147615315
35.44447999999999,1.2800764998560452,0.045834032859541025
35.449076,1.2893932570263327,0.04553042540774126
35.453664,1.296666775873033,0.045294676092961554
35.458256,1.3058613483291748,0.04502546406411573
35.462848,1.3206968968994948,0.044713151136211465
35.467436,1.3328341421268712,0.04439332521572124
35.47203199999999,1.3450935720683936,0.04404510212734106
35.47661999999999,1.3535108947910328,0.04375122597928506
35.481227999999994,1.3580861102947897,0.04351684588453645
35.48582,1.3683023019127247,0.04322742416171307
35.490407999999995,1.379295743264162,0.04296400326509671
35.49499599999999,1.3854254582349232,0.042794222159922006
35.499588,1.3934762268151257,0.04260916602557536
35.50418399999999,1.4056134720425024,0.04231784326124091
35.50876399999999,1.4146858597844985,0.042099759401085395
35.51336399999999,1.4139086100509966,0.0420657045675006
35.51795599999999,1.4150524139269356,0.04200795638670828
35.522556,1.4077347536316074,0.04201029858288568
35.527144,1.3938766827744524,0.042057187435805145
35.531744,1.3810402310790912,0.0420779884864032
35.536336,1.3625628032695514,0.04215637922552603
35.54093199999999,1.3408983332604851,0.04238411629327135
35.545516,1.3162911904801844,0.04270142407261044
35.550108,1.2919284171281749,0.04292709861670913
35.55471199999999,1.2582047451572502,0.04083371927258065
35.55930399999999,1.2256248770622644,0.038747952335057206
35.56389199999999,1.1912461400719827,0.03669058256542371
35.568487999999995,1.1596878911387907,0.03461281687617947
35.57307599999999,1.1246540891291523,0.032505842703985474
35.57766,1.0894981024053687,0.030424025946805797
35.58225199999999,1.0557302889858156,0.028317051774611805
35.58684399999999,1.0190198027950272,0.02621386230640711
35.59144,0.9746251021664739,0.024156492536773617
35.596032,0.9260217401766004,0.02217853354603144
35.60062399999999,0.8799503553668967,0.020125464649220395
35.60521599999999,0.8360443935949259,0.018030146669719818
35.609807999999994,0.7912389973753073,0.01593482869021924
35.61439599999999,0.7521967619840129,0.01379961305532883
35.61898399999999,0.7191620568493337,0.011613115258768077
35.62358,0.6872711555905936,0.009426617462207323
35.628167999999995,0.6592223615507363,0.007179572432482909
35.63276,0.6362816633198468,0.004815551017637661
35.63735599999999,0.6164058225743377,0.0023619588911986435
35.64194399999999,0.5952639932387439,0.0
35.646539999999995,0.5805403897508307,0.0
35.651132,0.567249101015776,0.0
35.655724,0.5556344964618714,0.0
35.660312,0.5415659579933145,0.0
35.664911999999994,0.5312173420294949,0.0
35.669492,0.5190698571703796,0.0
35.674091999999995,0.5065558181688271,0.0
35.678688,0.4969844519385096,0.0
35.68327999999999,0.49023357376528137,0.0
35.687868,0.4874469875250815,0.0
35.69245999999999,0.48249497824714893,0.0
35.69705199999999,0.47909746843622075,0.0
35.701648,0.47762101223473385,0.0
