Time,Force,Position
32.09867199999999,0.20195354427256468,0.0
32.10329999999999,0.17771295563470083,0.0
32.10794000000001,0.15911334311101544,0.0
32.11256800000001,0.14092442617839523,0.0
32.11721600000001,0.1262110623222207,0.0
32.12185600000001,0.11995916263731389,0.0
32.12649200000001,0.11370726295240707,0.0
32.131144000000006,0.11489520827697443,0.0
32.13578000000001,0.11673821862089828,0.0
32.14040800000001,0.1258988892601506,0.0
32.145039999999995,0.13289413686167026,0.0
32.149676,0.14325002894764624,0.0
32.154304,0.15622618111104827,0.0
32.15894800000001,0.1679732100108373,0.0
32.163576000000006,0.17796551146395873,0.0
32.16820799999999,0.19490891906997165,0.0
32.17284799999999,0.20854309976231267,0.0
32.17748,0.22144417216977968,0.0
32.18211600000001,0.23373432100651825,0.0
32.186756,0.25183177212020913,0.0
32.191384,0.2793342633014437,0.0
32.196023999999994,0.31121174200677193,0.0
32.20065199999999,0.3385140052083433,0.0
32.205299999999994,0.3681480176104212,0.0
32.20993999999999,0.39974722507056865,0.0
32.214575999999994,0.4275484667604615,0.0
32.21920800000001,0.4601353915655131,0.006838796332197502
32.223851999999994,0.49211139279983634,0.013800820320963763
32.228488,0.532304488777136,0.020276520165227623
32.23313200000001,0.5730304650596464,0.026739599391366217
32.237776,0.6180092441521048,0.033122978303809156
32.24240800000001,0.6621666320624326,0.039393294732026865
32.247056000000015,0.7017827062858932,0.04584481380359235
32.2517,0.74123245434658,0.0522281927160353
32.256332000000015,0.7814153106921409,0.05848194209907698
32.260964,0.8167344406570253,0.06485756765813867
32.265612000000004,0.8540968089454969,0.07119833723724654
32.27024399999999,0.8912928510711946,0.07747814372350034
32.274888000000004,0.9243582751010901,0.08397386138106931
32.27953199999999,0.952638016015827,0.09046957903863828
32.284164000000004,0.9742110202059635,0.09701161751210352
32.288816,0.9923084713196544,0.10364690678321421
32.293440000000004,1.0178016259941916,0.10988091607767259
32.298068,1.0446829539729587,0.11599145572048669
32.302708,1.071520140503098,0.12199906153482043
32.307332,1.1003564239081964,0.12791894419334748
32.31196800000001,1.1250620892174923,0.12707690940044497
32.31661600000001,1.1521775469928124,0.12592470002163192
32.32123999999999,1.1701764755775081,0.12551167583367046
32.325872000000004,1.1895635774664344,0.12492235426041319
32.330512,1.2045756918312671,0.12456860412618416
32.335148000000004,1.2201206865013108,0.12430710733420568
32.339776,1.2395077883902372,0.12373898993095717
32.344415999999995,1.2585283361367265,0.12329999659552034
32.34904800000001,1.2764050800072766,0.1230161012097435
32.353696000000014,1.2945261933061183,0.12263534607842773
32.35832400000001,1.3146905449285466,0.1221223479051981
32.36297200000001,1.3355099615703319,0.12165582632212697
32.367616,1.360049300716854,0.120928364468946
32.372252,1.387164758492174,0.12012176358910072
32.37689599999999,1.4132585971057003,0.11936568308652541
32.38154399999999,1.440129685452729,0.11857050569218046
32.386168,1.460993243543142,0.11830734096497252
32.390804,1.4780146944146724,0.11830251186761094
32.395432,1.49287072224847,0.11849642330946032
32.400071999999994,1.51018068399692,0.1186443606859769
32.40471600000001,1.5276128304595156,0.11874600986651983
32.40935200000001,1.5394040008079328,0.11917955029175757
32.41399200000001,1.5597788200417635,0.11909090896230072
32.418632,1.573491043999622,0.11939764499626307
32.42326399999999,1.5941102326617436,0.11926219858174297
32.42790400000001,1.6143187257328004,0.1190569008552868
32.43254400000001,1.630440742156683,0.11913196699728049
32.43718000000001,1.6452526285418525,0.11915376321203473
32.441828000000015,1.6604310690694593,0.119085150784545
32.44646800000001,1.6739328254159156,0.11905646214855943
32.451104000000015,1.6808941712005456,0.11936887744458297
32.45575199999999,1.6855237677846695,0.11970552585504103
32.460384000000005,1.689742668777728,0.11995727082229544
32.465024,1.6867660941896039,0.12052266217633717
32.469663999999995,1.686976561801006,0.12084462213886689
32.47430399999999,1.6871428879637798,0.12098940227033629
32.478939999999994,1.6895968218784319,0.1209347623276957
32.48357200000001,1.6929060487921037,0.12066218921972818
32.488208000000014,1.698092187866589,0.12010946719822746
32.49284,1.697348839949976,0.1197363947802558
32.49748,1.6960726117281524,0.11930795042699872
32.50211200000001,1.698105610420001,0.11860911471949434
32.506756,1.692165883797164,0.11822342827704373
32.51139599999999,1.6897797535162904,0.11750882869588422
32.516028000000006,1.6792987132065864,0.11712301082032998
32.52067199999999,1.6647311962497084,0.11700401862007999
32.525312000000014,1.6519184067394976,0.11663680700204171
32.52994799999999,1.6356300641528414,0.11639406756175212
32.534592,1.6148445493279455,0.11635630881204106
32.53924000000001,1.595569392521426,0.11610570211995087
32.543868,1.5805028970762263,0.11552993255343018
32.54849999999999,1.5645369671833789,0.11499193950388512
32.553144,1.5457505492334422,0.11459611432039112
32.55776800000001,1.5311727926448249,0.11385847420097717
32.562404000000015,1.51234223324626,0.1132440606011831
32.56704400000001,1.4913462508099624,0.11280277234251082
32.571676,1.469817388068454,0.11227106202652964
32.57631599999999,1.4479219711845086,0.11182611811768389
32.58094800000001,1.4228395121010369,0.11161430998100642
32.58557999999999,1.3976348683034194,0.11145669965264601
32.59021999999999,1.3734518436675955,0.11119492011107365
32.59484800000001,1.3491466343176262,0.11092876660433583
32.59949599999999,1.3245970555393654,0.11075737905517614
32.60414,1.300580357066315,0.11061776253441796
32.60877199999999,1.2810608308315043,0.11026371197214477
32.613416,1.2620300434532763,0.1097789421957503
32.618048000000016,1.2436543210944047,0.10930187142144017
32.62267600000001,1.2324740743167155,0.10848919735639387
32.62731199999999,1.22681261893906,0.10738594795465221
32.63195200000001,1.2225834783142626,0.10632673725020847
32.636584,1.2173327185276719,0.10534473523318927
32.64122800000001,1.2164569462651744,0.10422696617780487
32.64585600000001,1.2179129232031836,0.10310383934678537
32.650492000000014,1.2222335296469102,0.102074129034415
32.655124,1.2313398192057956,0.10102249807739355
32.659760000000006,1.2436772924128354,0.09993439768438
32.66439199999999,1.2572027109444424,0.09898752987712937
32.66902400000001,1.2740814978383497,0.0979966618458914
32.673664,1.2912487956091763,0.09710177063242141
32.67830000000001,1.3135683306375985,0.09606364747797615
32.682931999999994,1.3387524951717387,0.09514835675933561
32.68758,1.3653689744587372,0.09432422046325084
32.69221999999999,1.3990587446127731,0.09328462445562347
32.696860000000015,1.4304609070149303,0.0924349789704775
32.701504,1.4585538425034157,0.09185944679209798
32.706132,1.4955189377542337,0.0910667037929554
32.71075999999999,1.535470847224915,0.09035737467106487
32.71539999999999,1.5768550714484548,0.0897854566034856
32.720032,1.6176283721012663,0.08939816657738142
32.72466399999999,1.6562362497163452,0.08916032153208728
32.729308,1.6960320726559914,0.08902903027813662
32.73394400000001,1.733906841986196,0.08899074191097797
32.73858000000001,1.7747242840876356,0.08885564932439037
32.74322799999999,1.8187287683886018,0.08860040042231485
32.74786,1.8608121990801263,0.08841647295747301
32.75249600000001,1.9040394336475903,0.08817617328297389
32.75714400000001,1.9454677993197584,0.08797349677179417
32.761776,1.9839534922206916,0.08787060793572803
32.766424,2.0294683345400335,0.08750150172156519
32.771060000000006,2.076249165449461,0.08708840240313673
32.77569199999999,2.118899378263086,0.08669351571334893
32.780336000000005,2.1579518532861193,0.08636806623654933
32.784964,2.1908304718897638,0.08614485634247644
32.789604,2.2259966982452863,0.08579095073053632
32.794252,2.2653715859621286,0.08526176110063068
32.79889600000001,2.296529378935995,0.0849281288694951
32.80353600000001,2.325721976851791,0.08453003276316326
32.80817200000001,2.34784128390055,0.0842331091060514
32.81279599999999,2.3669737767294468,0.08388869351812449
32.817432,2.386717193129071,0.0834424193278793
32.822068,2.4025743608611845,0.08296082285703604
32.826716000000005,2.4162219641069376,0.08244040216240263
32.83135200000001,2.422796276485653,0.08201831554586689
32.835992000000005,2.4183330060643033,0.08180638707562732
32.84062,2.409983486975442,0.08155862600113162
32.845264000000014,2.399546588114367,0.0812465218761696
32.84990400000001,2.388821178376371,0.08084186610000926
32.854536,2.381116484675128,0.08020870881176749
32.85918799999999,2.3636401967639045,0.07968685799658233
32.863816000000014,2.341666736614441,0.07921983518835993
32.86844400000001,2.318383146426265,0.0786851550957751
32.873076,2.295954849237109,0.07799848461978626
32.877703999999994,2.2749147253521835,0.07720824595517795
32.88234,2.250643417819103,0.07638664530546821
32.886979999999994,2.2210976883142814,0.07559515334131013
32.89160799999999,2.1955162507424877,0.07469783034483127
32.896248000000014,2.1662148906659575,0.07384357626511666
32.90088800000001,2.1372800847318643,0.07290626609738729
32.90552,2.108223094083625,0.07197254388222116
32.91016400000001,2.0761012459500057,0.0711159524560833
32.914800000000014,2.0457782667116815,0.07022050496855486
32.91942800000001,2.0190530252639496,0.06927458166943701
32.924068000000005,1.9938822832832215,0.06833208477954968
32.928696,1.9745968868449635,0.06721745285414879
32.933344000000005,1.9605859123784466,0.06605605324632285
32.937984,1.945308949321845,0.0649592752086182
32.942620000000005,1.9295432474086605,0.06393933955671639
32.94727599999999,1.911367753029452,0.0630413065244433
32.951908,1.8993661150696328,0.06210041775357209
32.95654400000001,1.8844218043385788,0.06120429557016955
32.96118799999999,1.8746297308651205,0.060308107188540884
32.965832000000006,1.8629607452308492,0.05958554400690644
32.97046,1.8527240743494362,0.05891467886159438
32.97509600000001,1.8485390751732669,0.05825076382345866
32.979720000000015,1.8478296290735434,0.057583595471130275
32.98436000000001,1.8432780757549374,0.0569797539073964
32.989000000000004,1.8423242602269227,0.05635370746174874
32.99363600000001,1.848443735565945,0.05572790977475924
32.998268,1.8582831334097043,0.05506953088372709
33.00291200000001,1.873885692081788,0.05432979021372801
33.007540000000006,1.8929638038303174,0.05361293027791349
33.01218800000001,1.908977058093466,0.05298026165253613
33.016828000000004,1.9335739612420282,0.0522650548820603
33.02147199999999,1.9605026135910966,0.051630728319536634
33.02611999999999,1.9882085156736677,0.05103853277789158
33.030756,2.016569482775595,0.050488800946303515
33.035392,2.0468515034869634,0.049918940548293156
33.04002800000001,2.075090285874745,0.04939380006571577
33.04467600000001,2.101530199367231,0.0488869467200338
33.049308,2.1365537617451302,0.04830814291532034
33.05394000000001,2.167613032190001,0.04779981317648982
33.058580000000006,2.202758779282046,0.04720962936424236
33.06321600000001,2.2380267110882364,0.04661531819030388
33.06786,2.271373589284986,0.04606505245993606
33.072508,2.305253347786946,0.045581157464789086
33.077136,2.3427308440794974,0.04510438024941147
33.081772,2.378942351781964,0.044688936474682445
33.0864,2.409512883370252,0.044319157763583354
33.091048,2.4398390455302486,0.04399569610678589
33.095676,2.465956546328926,0.043762031498972113
33.10030800000001,2.489253559070514,0.043547059984483466
33.104956000000016,2.5162704943168395,0.04332226928598029
33.109588,2.5297178695829294,0.04321951442814729
33.114216,2.540466941506075,0.043115749183403544
33.11886000000001,2.5456972220291885,0.04302142164477159
33.123508000000015,2.548229199209358,0.0429218796902555
33.12813600000001,2.5508833611036734,0.042806821446582044
33.13278,2.554192588017345,0.0427257633216186
33.13740799999999,2.5553363918932845,0.04269291275784942
33.14204799999999,2.5485516119031666,0.042749352366671475
33.14668399999999,2.5429106357889886,0.042773384302947234
33.15131600000001,2.5335497371700724,0.04280571767014222
33.15595200000001,2.5221456002275695,0.042866821210501144
33.160596,2.5051004871708886,0.042950510019032107
33.165223999999995,2.4809820832471705,0.043002488676515696
33.169872,2.453143756818715,0.043061921223368105
33.17451600000001,2.4217076925996683,0.04311755907344541
33.179148,2.388472759485326,0.04316876619628985
33.18380400000001,2.3527838924563316,0.04317138542406208
33.188436,2.317461579569774,0.043120736416720255
33.193072,2.278541528892625,0.043058174265848154
33.197708000000006,2.229238960434767,0.04305108422843524
33.20234400000001,2.1890087797189057,0.04290422611114898
33.206976,2.1430154381747193,0.04279965379193131
33.211612,2.0980437157923264,0.042666970849099276
33.21624,2.055770296752878,0.04253950232215139
33.220879999999994,2.009654770494546,0.04243078757442506
33.22552400000001,1.961085310321562,0.04227186734640072
33.230155999999994,1.9155807076339588,0.042049820731529464
33.234792,1.8694210399269988,0.041775246142264646
33.23943600000001,1.820563068877095,0.0414701859265513
33.244068,1.7713385436847546,0.041232930226253114
33.24871200000001,1.723013452940062,0.04099752748130847
33.253356,1.676609415804811,0.040738217021565215
33.25798800000001,1.6357241700695926,0.04045934400142975
33.262643999999995,1.5948389243343741,0.04016989068942627
33.26728399999999,1.558695220265686,0.03984463797427183
33.271912000000015,1.5232065812163547,0.03957462082588102
33.276556,1.4846530846816426,0.039352678261989155
33.281204,1.4423796656421934,0.03911276448537364
33.28584000000001,1.4047256035551292,0.038856976246045664
33.29047600000001,1.3737341367440372,0.03854635716575593
33.29511199999999,1.3375123894098322,0.03837218266644073
33.29975200000001,1.3097521062468942,0.03816118406243964
33.30439200000001,1.2827690728174586,0.03797404930194821
33.309023999999994,1.2528433666167882,0.03783753838574121
33.31365600000001,1.2216516718260328,0.03780603638147319
33.318296000000004,1.1941798995400146,0.03774919990761409
33.32292799999999,1.1624994658926768,0.037854274868615215
33.327572,1.1363378236453716,0.03795049898213731
33.33221599999999,1.1135295497603666,0.038146501788929255
33.336848,1.0909656453036525,0.038282646556055545
33.341504000000015,1.0655812527898498,0.038446218049524215
33.34613200000001,1.0436724133524922,0.03868345396533759
33.350764,1.0226630083627828,0.0389103106446741
33.35540399999999,1.0017757880872191,0.039091155958877556
33.36003199999999,0.9790896989163597,0.039239321473670194
33.364664000000005,0.9594684672308808,0.039299503819925995
33.36930799999999,0.9445887772119325,0.03931894709797976
33.373940000000005,0.9352278785930169,0.03934472101957337
33.37857600000001,0.9231686766311578,0.039329488887957884
33.383216000000004,0.9122532785452379,0.039230617632361554
33.38784799999999,0.904280553230553,0.03908373836377551
33.392492000000004,0.8869469292969523,0.03723205269199651
33.397132,0.8684695014874125,0.035389608246156376
33.401764000000014,0.8510136928396664,0.033496539956031836
33.40641199999999,0.8394432297343902,0.03151131678757382
33.411056,0.826973332181466,0.02957002575617783
33.41568799999999,0.8178126615422134,0.027516451235183405
33.42034000000001,0.8030110147887828,0.025494396082604627
33.42496800000001,0.7847338149589063,0.023420610351714166
33.429592000000014,0.7692771031861189,0.021360025339497463
33.43422799999999,0.7559858144510643,0.019272013600938366
33.438852,0.7394633420678552,0.017123454266710674
33.44349600000001,0.7190987624657635,0.015016455144078239
