Time,Force,Position
30.30338,0.5014016377735125,0.01862287645852725
30.307972,0.42860137005840143,0.015649272456563734
30.312568,0.363896012372121,0.012603789353411266
30.317156,0.3075299341429625,0.009388405011960735
30.321752,0.25439503956195836,0.006241546149681942
30.326336,0.20629019752440442,0.003147016789197163
30.330924,0.16435921190623973,0.0
30.335503999999997,0.12974588658340355,0.0
30.340096,0.09873029905115874,0.0
30.344691999999995,0.0728669487765097,0.0
30.349284,0.049457532416512885,0.0
30.35388,0.030545288294755318,0.0
30.358459999999997,0.01829563944896973,0.0
30.363055999999997,0.008866478660273368,0.0
30.367644,0.004056674823961934,0.0
30.372232,0.002722424064096236,0.0
30.376828,0.0,0.0
30.381415999999994,0.0,0.0
30.386028,0.0,0.0
30.390615999999994,0.0,0.0
30.395204,0.0,0.0
30.3998,0.0,0.0
30.404388,0.0,0.0
30.408992,0.0,0.0
30.413588,0.0,0.0
30.418192,0.0,0.0
30.422771999999995,0.0,0.0
30.427375999999995,0.0,0.0
30.431963999999997,0.0,0.0
30.436564,0.0,0.0
30.441148,0.0024646320823930924,0.0
30.445747999999995,0.011924511766305804,0.0
30.450343999999998,0.024781901261146724,0.0
30.454939999999997,0.040259550833413676,0.0
30.459532,0.06052288352083938,0.0
30.464127999999995,0.0835286609998368,0.0
30.46872,0.11185300189920383,0.0
30.473308,0.14075436455240983,0.0
30.477895999999998,0.17857202841657682,0.0
30.482484,0.2173332681770198,0.0
30.487067999999997,0.258181887709678,0.010032526016728245
30.491656,0.30393837507164057,0.019429244246138913
30.496244,0.351537872777527,0.028862807522767164
30.500828,0.4008140546645635,0.038099486287128524
30.505424,0.4548317782181306,0.04665848410771958
30.51,0.5108927400952847,0.05491830544099497
30.514591999999997,0.5674865822776497,0.06323388779965558
30.51918,0.6244911200510799,0.07165370513435887
30.52376,0.681129103682073,0.08022334696758061
30.528367999999997,0.7394437714942161,0.08865146019523994
30.532956,0.7927176885951683,0.09732067481854126
30.537544,0.8319230672275638,0.10685822466764877
30.54214,0.8636003179532288,0.1169168878849405
30.546727999999995,0.8923687977245484,0.1267889852065184
30.551323999999997,0.9138976604660568,0.13699972193029453
30.555904,0.9334171867008676,0.1467804922285762
30.560503999999995,0.9475740080666807,0.15622406033935876
30.565092,0.9595551667630222,0.16548234618942412
30.569692,0.9574236455421788,0.16548234618942412
30.574276,0.9517282883476335,0.16548234618942412
30.57888,0.9439014099322449,0.1554498201726959
30.583464,0.9292014686294822,0.14605310194328522
30.588052,0.9081172032959282,0.136619538666657
30.592644,0.8814700051137134,0.12738285990229561
30.59724,0.8406762251974241,0.11882386208170453
30.60184,0.7989388693848591,0.11056404074842915
30.606435999999995,0.7558472420849528,0.10224845838976854
30.611023999999997,0.7123007777453528,0.09382864105506525
30.61562,0.6662562380424729,0.08525899922184352
30.620208,0.6166920038145189,0.0768308859941842
30.624796,0.5667170739954999,0.06816167137088286
30.629383999999995,0.521728055271303,0.058624121521775346
30.633984,0.4786600901565472,0.0485654583044836
30.638575999999997,0.43441396081296074,0.0386933609829057
30.643168,0.39262176538402654,0.028482624259129594
30.64776,0.35009646167021835,0.01870185396084791
30.652348,0.30761529940503823,0.009258285850065353
30.656932,0.26673277805549067,0.0
30.66152,0.231046635412167,0.0
30.666107999999998,0.1979807528462694,0.0
30.670724,0.164959011729,0.0
30.675304,0.13390246566980005,0.0
30.679911999999995,0.10738723329746751,0.0
30.684504,0.08475824959264588,0.0
30.689108,0.07153430595536794,0.0
30.693692,0.05721069989077896,0.0
30.69828,0.0437084850083203,0.0
30.702876,0.030250411574489804,0.0
30.707472,0.019656967646376675,0.0
30.712076,0.012061036105867486,0.0
30.716663999999994,0.014647394366404156,0.0
30.721264,0.024229000228460435,0.0
30.725852,0.03990641924438848,0.0
30.730452,0.061058946747723275,0.0
30.735043999999995,0.08609772291856896,0.0
30.739644,0.11142500996633414,0.0
30.744235999999997,0.13794024233866667,0.0
30.748831999999997,0.16821953866436443,0.0
30.753423999999995,0.20136346449577955,0.0
30.758019999999995,0.23724983511876638,0.0
30.762607999999997,0.27906569273285114,0.008354416429238896
30.767204,0.32231386509979465,0.016656781204392776
30.771792,0.369814840276686,0.024518739158544335
30.776388,0.42042481438758605,0.03221052483392848
30.780975999999995,0.47066823435604915,0.04006589201867684
30.785571999999995,0.5242650226868124,0.047657975494272545
30.790152,0.5803157449322278,0.055097385098216725
30.794743999999994,0.6399642049682346,0.06223278195456719
30.799339999999997,0.6992461108618042,0.06950337938733009
30.803932,0.7554524611022526,0.07697361548338132
30.808524,0.8021757280096397,0.08480650762371339
30.813104,0.8450127462495158,0.09250312601552145
30.817699999999995,0.8866618191648247,0.09995661332217984
30.822284,0.9253240778602704,0.10728878196230886
30.826871999999995,0.9602222726023509,0.11457597515997489
30.831475999999995,0.9958535756293055,0.12174691303015636
30.836063999999997,1.0305413027599841,0.12883040441497534
30.840652,1.0590110320226451,0.1360383136828245
30.845243999999997,1.0842054361885238,0.14313657320437184
30.849836,1.108167753581207,0.14994138954709224
30.854432,1.1246460845157877,0.14843746950701037
30.859012,1.1400586548399472,0.14685074915633825
30.863615999999997,1.1477428692777125,0.1459383681912951
30.868196,1.1520295739045499,0.14502944952989155
30.872795999999997,1.1561499523686134,0.1438844236958569
30.877376,1.1575278860411051,0.1427644162463282
30.881975999999995,1.157840059103175,0.14154823408990408
30.886571999999997,1.1513233107264995,0.14075045586401944
30.891164,1.1452511597577784,0.13949703018975437
30.89576,1.141710985969227,0.13780845978469358
30.900355999999995,1.1381266707320472,0.13578847483071188
30.904951999999994,1.1293901182372719,0.13406994096762365
30.909547999999997,1.1148462634655445,0.13265680930781723
30.914136,1.0987479092268124,0.13126575582238545
30.918732,1.0833826632729542,0.12952301186137602
30.92332,1.0676067217280312,0.12762238482704677
30.927907999999995,1.049010292126019,0.1259336868032679
30.932495999999997,1.0314354816857998,0.12407228891054904
30.937092,1.012716867369642,0.1169740293890017
30.941683999999995,0.9897895916921642,0.11016921304628131
30.946276,0.9686611849099821,0.10331871665712429
30.950872,0.9467555283942977,0.09660307223264256
30.955459999999995,0.9276703599357027,0.08965349524353411
30.96006,0.9071970181728771,0.0828706282295535
30.964648,0.883658818924671,0.07616028687883977
30.969244,0.8566892080486471,0.06968821085277278
30.973836,0.8266547396872428,0.06346498340525271
30.978424,0.8021390627258713,0.05712736477478688
30.98302,0.7765237233371886,0.051110193016289086
30.987612,0.7502974603777779,0.04532852732529867
30.9922,0.7293456193901084,0.03951562013894827
30.996796,0.7133016462317433,0.03353753561022846
31.001383999999995,0.7012661064550348,0.027497179963376483
31.005976,0.6879645780882415,0.021556064808679245
31.010563999999995,0.6735633872941371,0.016011615572022613
31.015159999999995,0.6572852843392194,0.01074130473617039
31.01974,0.6435833000130996,0.005346511375130306
31.024336,0.6300476418497535,0.0
31.028924,0.621786405658149,0.0
31.033524,0.6221088183519579,0.0
31.03812,0.6203879927221797,0.0
31.042716,0.6217761660264104,0.0
31.0473,0.6254960885311474,0.0
31.051891999999995,0.632813748826476,0.004704795764233733
31.056492,0.6511689919218702,0.008975677217130645
31.061091999999995,0.673366342236147,0.013166776944974048
31.065679999999997,0.7007159298080196,0.017280835376002005
31.070276,0.7284762129709572,0.0213128094645577
31.074867999999995,0.7598342339244863,0.025308929800597124
31.079452,0.7929911237733112,0.029257760286107496
31.084039999999995,0.8251263944603424,0.03312569144737526
31.088635999999997,0.8584054690233129,0.03691753529022493
31.093228,0.8916845435862835,0.0406902514448288
31.09782,0.9285613559398453,0.04442624620983415
31.102416,0.965560353007553,0.04819583201334076
31.107004,1.0037031539512,0.05199913128559085
31.111596,1.044666442951936,0.055715786847839975
31.116187999999998,1.088816774152198,0.059368029502550164
31.120776,1.1302688020095168,0.06297394332577438
31.125372,1.1637922460007786,0.06667385244793254
31.129963999999998,1.1998918086208383,0.07038888289187169
31.134572,1.231372014288513,0.07417028476773847
31.13916,1.263218774098625,0.07785386779354589
31.143764,1.2921228611375015,0.07688085718669366
31.148352,1.3110109845381066,0.0763614518583757
31.152939999999997,1.3279780543292696,0.07593993793403887
31.157535999999997,1.3417139404722789,0.07552840499405902
31.162128,1.349686665786964,0.07535861357863477
31.166732,1.3525071538440532,0.07525181180498809
31.171319999999994,1.354794761595932,0.07506276904326213
31.17592,1.3533624468430732,0.07499459600090644
31.180508,1.350009078480773,0.07500251027696883
31.185108,1.344079591489675,0.07503384355475097
31.189696,1.3346745514221312,0.07510643813089313
31.194295999999994,1.324614446335231,0.07512797737085408
31.198884,1.3179857528761483,0.07486635380953004
31.20348,1.3078815063406204,0.07463385756451477
31.208068,1.2990432483951768,0.07427784839494864
31.212664,1.2864850679449962,0.07400834697313423
31.21726,1.2742934416372524,0.0736359510007312
31.22186,1.261691119738444,0.07313613466352002
31.226451999999995,1.2493331672679266,0.07255729546396575
31.231044,1.2342769114544654,0.0720116310903342
31.235631999999995,1.2175439714598548,0.07145474496829664
31.240219999999997,1.200688846751098,0.07091904503269772
31.244812,1.1858769603659287,0.07026744540513546
31.249396,1.165301913152435,0.06981229864417654
31.253984,1.1471366584049651,0.06911889201739664
31.258571999999997,1.132569141448087,0.06833735422303679
31.263172,1.1149367670058283,0.0677134250237143
31.267751999999994,1.101146499782452,0.06692958059572449
31.272344,1.088500036435015,0.0660450757269477
31.27694,1.0766308228210806,0.06516601430293784
31.281532,1.0693809661595306,0.06416918422205789
31.286128,1.06495159755507,0.06309435264395533
31.290716,1.0581124364845855,0.062263644858893095
31.29532,1.0520505251476033,0.06145077031740098
31.299916,1.0437010060587424,0.06082133713268324
31.304503999999994,1.0370281711510316,0.060195892657137255
31.309104,1.0348525084815603,0.05952663995217818
31.313703999999998,1.0333319108314452,0.058928625879430915
31.318307999999995,1.0342652470959826,0.05837631170927715
31.3229,1.0320115411609934,0.057983404634450036
31.327504,1.036176061073685,0.05749532012953184
31.332095999999996,1.0467588068340574,0.05691516791150013
31.336692,1.0560755640043447,0.0564672097015069
31.341272,1.0737316006317539,0.055845557284800874
31.345871999999996,1.0929421367261678,0.05529938984267023
31.350463999999995,1.1111310536587882,0.054814217678858246
31.355064,1.1330398930961454,0.05426349625909709
31.35966,1.1499628214386808,0.05390625198165732
31.364256,1.164842511457629,0.0536533470265306
31.368835999999995,1.1806216359242252,0.05339070731316304
31.373431999999998,1.1934580876195864,0.053241296347904046
31.37802,1.2023302473819195,0.05322957143133596
31.382616,1.2086262885154544,0.05319677259032175
31.387199999999996,1.2156995793824916,0.05319952609804961
31.391796,1.2200745669065851,0.05321515168015111
31.396387999999995,1.2234279352688855,0.05327030268552864
31.400975999999996,1.2212625122311525,0.05339642375913045
31.405567999999995,1.216931666155687,0.05365075081227492
31.41016,1.213988993384452,0.05373988248111683
31.414748,1.2159100469938937,0.05369088356748777
31.419335999999998,1.2134561130792414,0.05362832416000421
31.423931999999997,1.2062606374980587,0.05365950048948223
31.428512,1.1991873466310214,0.05365627282395742
31.433103999999997,1.1912146213163362,0.053651217955392655
31.4377,1.1834862654299425,0.053572296540558596
31.442288,1.1757579095435486,0.05349337512572453
31.446884,1.1631658272764787,0.05353619462506568
31.451471999999995,1.1518397335994937,0.0534732623022651
31.456059999999997,1.1405136399225086,0.05341004355663212
31.460655999999997,1.1312307845691107,0.0532620369320502
31.465247999999995,1.1212928641963562,0.053037251943082675
31.469843999999995,1.1122543782712495,0.052810851052203345
31.474424,1.1010504693084104,0.05270309759919377
31.479012,1.0861266378408339,0.05265566275516936
31.4836,1.0722244255350508,0.05255733068178876
31.4882,1.0604876362670008,0.052328497295833824
31.492791999999994,1.0505497158942463,0.05208420816813467
31.497387999999997,1.0398345457879896,0.05180855772105029
31.501968,1.024133464586911,0.04906917754604961
31.506564,1.00765513365233,0.04637316488232992
31.511163999999997,0.9888891949658708,0.04374890975938774
31.515759999999997,0.969468191260055,0.04108210945896142
31.520348,0.9483705033730894,0.0384153091585351
31.524939999999997,0.9213874699436538,0.03579463771371673
31.529528,0.8904401445811898,0.03325095052432989
31.534116,0.8560172661422801,0.030707263334943058
31.538704,0.8227381915793097,0.028079306730901112
31.543299999999995,0.7889703781597565,0.02548356964021923
31.547892,0.7532815111307619,0.022884440090843637
31.552484,0.7127289177210909,0.020370098420416972
31.557075999999995,0.669766531845396,0.017932535114375918
31.561663999999997,0.6261490809503446,0.015454367456458333
31.56626,0.586740291416613,0.012883951824618302
31.570848,0.5493747402064686,0.010257348385173113
31.575439999999997,0.5079227123491499,0.007673254576025907
31.580036,0.46569343475832903,0.005135969030739479
31.584624,0.42154310355806685,0.002595876640040771
31.58922,0.3791675205319476,0.0
31.593808,0.3396124255629176,0.0
31.598395999999997,0.2998129611655962,0.0
31.602999999999994,0.26295616953950984,0.0
31.607588,0.2277760620945734,0.0
31.612184,0.19427263883078705,0.0
31.616764,0.16473350750002907,0.0
31.621364,0.13801486422636036,0.0
31.625952,0.11477177402913734,0.0
31.630551999999994,0.09332755272721004,0.0
31.63514,0.07404875446301547,0.0
31.63974,0.057590444255910124,0.0
31.644336,0.043952622105894,0.0
31.648928,0.03337965744125844,0.0
31.653507999999995,0.02448337695777292,0.0
31.658103999999994,0.015220542331850382,0.0
31.662699999999997,0.0067349574394300225,0.0
31.6673,0.0031130989276859336,0.0
31.671892,0.00014630543529835322,0.0
31.676492,0.0,0.0
31.681071999999997,0.0,0.0
31.68566,0.0,0.0
31.690248,0.0,0.0
31.694844,0.0,0.0
31.699436,0.0,0.0
31.704027999999997,0.0,0.0
31.708623999999997,0.0,0.0
31.713212,0.0,0.0
31.717796,0.0,0.0
31.722384,0.0,0.0
