Time,Force,Position
30.99554,0.1036158696143981,0.0
31.000136,0.09265686619724607,0.0
31.004728,0.08067624361830054,0.0
31.009319999999995,0.06971724020114853,0.0
31.01392,0.05761443290805731,0.0
31.018508,0.045389440900820414,0.0
31.023112,0.0339416986270857,0.0
31.027696,0.023515575515144514,0.0
31.032295999999995,0.012190017955555485,0.0
31.036892,0.00572818677664272,0.0
31.041488,0.0010652244930256568,0.0
31.046071999999995,0.0,0.0
31.050664,0.0,0.0
31.055264,0.0,0.0
31.059864,0.0,0.0
31.064452,0.0,0.0
31.069047999999995,0.0,0.0
31.07364,0.0,0.0
31.078224,0.0,0.0
31.082816,0.0,0.0
31.087399999999995,0.0,0.0
31.091992,0.0,0.0
31.096576,0.0,0.0
31.101168,0.0,0.0
31.105756,0.0,0.0
31.110352,0.0,0.0
31.114944,0.002439975243844386,0.0
31.119532,0.013640165167614736,0.0
31.124128,0.032701135323663186,0.0
31.128716,0.06166612403557678,0.0
31.133303999999995,0.1024561849127969,0.011077597972922485
31.137899999999995,0.1512292107364408,0.021721699731635166
31.142488,0.21092787427774334,0.03159307554087748
31.147084,0.27963112192726325,0.041155288321409744
31.151672,0.35631733452320685,0.050599544367964454
31.156276,0.4439291848368091,0.05966689219056611
31.16086,0.5386245656491875,0.06874377090257892
31.16546,0.6433461497315766,0.07760100505651396
31.17004,0.76079224042692,0.08613276677678915
31.174636,0.8891639688399221,0.0944849559014814
31.179224,1.027195346380498,0.10278444198877462
31.183816,1.1781955999623195,0.11084051019091097
31.188407999999995,1.336235242594289,0.11885649408033835
31.193003999999995,1.5015586437046977,0.12680224454593916
31.197592,1.6724891191123952,0.13472522235873693
31.202188,1.848493788512171,0.14260785987609537
31.206776,2.022591362973313,0.15050951161735765
31.21136,2.1908713955257646,0.1582976230686346
31.215952,2.3528451473129417,0.16606258198366292
31.220548,2.5055699455636113,0.17383123324142302
31.22514,2.6468803672400383,0.17055614963707955
31.229732,2.7834390076181963,0.1676542338332816
31.234328,2.9116481289074936,0.1654629304694772
31.238907999999995,3.0303639272319907,0.16363923030623348
31.243492,3.1434285098105708,0.16190096281088429
31.248072,3.24393491193897,0.16065241260646096
31.252664,3.340999662807813,0.1593678010465845
31.257259999999995,3.4300034054647157,0.1583129458712224
31.261848,3.5074705868332297,0.15760432026441926
31.266436,3.5769989447039494,0.15704628274307503
31.271032,3.642019890704691,0.15642466806648844
31.27562,3.6944826562552513,0.15607696218063105
31.280216,3.7427706622613814,0.1557564893383535
31.284796,3.7808763784664654,0.1556743105179013
31.289392,3.8172612690417718,0.15556294587900268
31.293972,3.851192225702426,0.15550412145422046
31.298572,3.88679986654423,0.1554092444579587
31.30316,3.9224516488346626,0.15540147203519
31.30776,3.9577368769826577,0.15543567622539403
31.31234,3.9944544198835112,0.15546249137282878
31.316936,4.032970831679661,0.15543934323874026
31.321528,4.06956618986637,0.15548248424558792
31.326116,4.104773374748847,0.15560596298931734
31.330704,4.1465209701931505,0.15554654895081924
31.335296,4.187246946475661,0.15552596855192474
31.339887999999995,4.235002072176581,0.15527163116063494
31.344472,4.281036372247723,0.15499329332106823
31.349064,4.327803780603738,0.15464745524396634
31.35366,4.3721172550451,0.15433387060142886
31.358252,4.41152286165716,0.15409946095221566
31.362852,4.441934123792739,0.1540841904144487
31.367444,4.474510808966052,0.15398984989245257
31.372028,4.503445614900144,0.15391669344111603
31.376624,4.5394876135181645,0.15353997854443757
31.381204,4.572664982630467,0.1531849062720095
31.385796,4.605631884131367,0.15272437772751105
31.390392,4.637533025021845,0.15224046901312613
31.394972,4.667835524996692,0.15172103704019899
31.399564,4.69641719934176,0.15116772175023335
31.404156,4.723400232771195,0.15057433380171503
31.408748,4.743920898904322,0.15006439535219596
31.413352,4.764763977731258,0.14946401814388172
31.41794,4.785152219518501,0.14877943719505599
31.422536,4.798300844275933,0.14819926186008953
31.427116,4.811771881727172,0.1475298478014151
31.431708,4.8184139977396665,0.1469827592991148
31.4363,4.821947114818151,0.14646557254217585
31.4409,4.820572364067334,0.14601324807084043
31.445492,4.820175091029681,0.14546965954423313
31.450092,4.823986479353348,0.14479783104186517
31.45468,4.834171952076066,0.14392495592172583
31.459272,4.839449556969481,0.1431170662225898
31.463852,4.84599315045298,0.1422573143200249
31.468447999999995,4.845874148660507,0.14156030878013007
31.473036,4.843545582381674,0.14087158105885128
31.477632,4.838274343331604,0.14025948396606522
31.48222,4.833491843138119,0.13960562543547517
31.486808,4.823601247135666,0.13909004647420134
31.491396,4.815509520028507,0.13853977731752565
31.495992,4.80435293543597,0.13807159576487232
31.500584,4.797815707795816,0.1375025279478014
31.505176,4.793488044642025,0.1369310745390473
31.509772,4.788427273203358,0.13642560064339976
31.514351999999995,4.781856143746315,0.13598841186725705
31.518944,4.773774656270896,0.13562307064659537
31.523532,4.769046537157777,0.1352132019131221
31.528124,4.76538417865508,0.1348349321869658
31.53272,4.766096807676477,0.1343849113221472
31.537308,4.769918435631882,0.1339162207375251
31.541912,4.770430836673616,0.13355156886883557
31.546496,4.771109563878123,0.13323955779631513
31.551084,4.77796214750202,0.1328311284711506
31.555676,4.7861248611646285,0.1324374527438938
31.560268,4.7985403776371855,0.13198816390108367
31.564872,4.815741577224901,0.13150538273781173
31.569452,4.835152341298977,0.13102202145924532
31.574056,4.85244182378395,0.1306608418863769
31.578644,4.877415520706689,0.13013976058452079
31.58324,4.90484315154408,0.12960665711522396
31.587824,4.9403656924103005,0.12895048298875572
31.592424,4.981040470534118,0.12824649166615518
31.59702,5.015052653381962,0.12767428570177042
31.601608,5.052784758734543,0.1270454423958424
31.6062,5.096812905220659,0.126322251826283
31.610796,5.139697247830836,0.12563062335828284
31.6154,5.18155997127922,0.12497069487947364
31.619992,5.2264875522129834,0.12424803293584463
31.624568,5.268228090947223,0.12360976856336717
31.629152,5.306493076605015,0.12302172755113315
31.63374,5.348067289176479,0.12234978253989562
31.638332,5.387964817566793,0.1217036119428681
31.642916,5.42504185790002,0.12111782239889447
31.647504,5.461586017928034,0.12052381393585868
31.652092,5.500417785707926,0.11988188922626475
31.656668,5.53781723873496,0.11924964296518331
31.661252,5.575949800046868,0.11857258661363065
31.665848,5.615837088805445,0.11782071714949728
31.670435999999995,5.653026074221076,0.11711791352652391
31.675032,5.68314176876967,0.11649823223023495
31.679628,5.709126845222463,0.11592023929749212
31.68422,5.731880738027101,0.11537170991106604
31.688812,5.759864911354853,0.11471897333752304
31.693411999999995,5.783840651300948,0.11409088281121997
31.698004,5.805729011474827,0.11345940341001136
31.702584,5.832969836885965,0.11272524577876787
31.70718,5.8589005322583905,0.1119789396660876
31.71176,5.880578424820869,0.11126894879643259
31.716356,5.904666109849371,0.1104987920570908
31.720944,5.928998164306165,0.10971160465742523
31.725544,5.951531349867662,0.10895059692404059
31.730128,5.9726322206763,0.1081855626321733
31.73472,5.9914013422844326,0.10742411714612826
31.73932,6.006694910816119,0.10669133892170814
31.743916,6.017613491823711,0.1060026638934916
31.748508,6.021336597250122,0.10538295876400355
31.7531,6.0223613993335885,0.10479250530749051
31.757688,6.020932267502403,0.1042118657503429
31.762284,6.015005963432977,0.10367275216486284
31.766872,6.012921766582436,0.10307932401555506
31.771468,6.005318778331862,0.10254372906689883
31.776056,5.993218617843047,0.10205056766633495
31.78064,5.975355296525909,0.10163220644510501
31.785232,5.957369790494624,0.10121990910272728
31.78982,5.935664361958603,0.10084729412258191
31.794416,5.90729633814661,0.10055555527527535
31.799004,5.881215922086495,0.10021049267906336
31.803591999999995,5.857056559635822,0.09983816032240019
31.808184,5.831220513003999,0.09947096533194094
31.812771999999995,5.805506651086322,0.09909252059230039
31.817367999999995,5.777871735559203,0.09873530874254856
31.821956,5.752157873641526,0.09835186256895052
31.826544,5.727465630885641,0.0979493531772419
31.83114,5.708292179529789,0.09749181400967662
31.835732,5.689773793193295,0.09704143498993185
31.840323999999995,5.676652013542687,0.09654298519284732
31.844904,5.662142060587849,0.09608258119463141
31.849495999999995,5.651107660709456,0.09560044830308431
31.854084,5.643670998621655,0.09508652332845068
31.858684,5.637255955695647,0.09455801985566037
31.863271999999995,5.639180192226761,0.09394933438240674
31.867872,5.643680547386673,0.0933260176437649
31.87246,5.653821878660763,0.0926434847914066
31.877052,5.663596655792416,0.09198473843638759
31.881644,5.678523670181668,0.09130278729587255
31.886236,5.697947856809156,0.0905875090284933
31.890816,5.714473512114038,0.08996249988822978
31.895404,5.7307547979906275,0.08935675890850177
31.899992,5.7511667019630215,0.08874883818383852
31.904584,5.773665985707631,0.08816534626467155
31.909175999999995,5.8016840608522715,0.08754149978385366
31.913768,5.828313962692682,0.0869601700734635
31.91836,5.859973917076542,0.08637452483895533
31.92294,5.888202459832584,0.0858596232978243
31.927536,5.915287198712688,0.0853671772849162
31.932124,5.945969675383383,0.08485863433601952
31.936716,5.978328836235227,0.0843448098459455
31.941312,6.012364681268222,0.08383768543381173
31.9459,6.048854460215869,0.08333486735363893
31.950508,6.082812261983348,0.08289114010390594
31.955096,6.1117841526560035,0.082510110090422
31.959684,6.142554912223955,0.08212299975387623
31.964276,6.1759017904207045,0.08173728540533523
31.968864,6.21411239499813,0.08130975225902998
31.97346,6.252567369003847,0.0808761756552808
31.978052,6.29000072384777,0.08045987776893404
31.982648,6.331520555338867,0.07999889702326099
31.987228,6.377171004925767,0.07954333820998039
31.991828,6.420245335883869,0.07910158837720108
31.996416,6.465729459307996,0.07862417183892051
32.00102,6.507127106084948,0.07819761208175258
32.005612,6.550690175899632,0.07774624172164979
32.010208,6.588734454314284,0.07733108222123526
32.0148,6.630210144356753,0.07686711300435031
32.019396,6.672829638275161,0.07638664973403664
32.023984,6.710829775241184,0.07593755595983555
32.02858,6.74931865106379,0.07546308199928148
32.033176,6.780612051305215,0.07502132075147556
32.037768,6.809695887060277,0.07456812885826146
32.042356,6.845031622500247,0.07405163323250324
32.046952,6.881511161816155,0.07351909742017906
32.051532,6.916191832236768,0.07299801307246757
32.056128,6.9457202653997845,0.07249063609970209
32.060716,6.970629341610418,0.07201102907071495
32.065316,6.990796876154518,0.0715629513449277
32.069908,7.011330964841057,0.07109863249212048
32.074496,7.02556901239406,0.07065641831918686
32.079088,7.034121942384257,0.07020553150044652
32.083676,7.041242557621596,0.06974251689850541
32.088272,7.04092332784946,0.06931570345085523
32.092864,7.04043777191455,0.06885311484962822
32.097452,7.033778359560252,0.06840165579789748
32.10206,7.025931001881385,0.06792120740599764
32.106652,7.01076598390719,0.06746647912716987
32.111239999999995,6.995845335361286,0.06699846635002162
32.115832,6.982312860119613,0.06650147924442605
32.12042,6.967225885410935,0.0659948096936272
32.125015999999995,6.956103202635285,0.06545692094142119
32.129608,6.944081085411987,0.06492048623973243
32.134212,6.923719688731569,0.06441615797134731
32.138791999999995,6.903724846193588,0.06389194040408258
32.143388,6.8811538850268095,0.06336476092486082
32.14798,6.855640251088795,0.06285202184924134
32.152572,6.825629444912541,0.06234362688060909
32.15716,6.7922652703739885,0.06182383582000174
32.16176,6.750439631664167,0.06133432257013825
32.166352,6.713477719335021,0.060811825806079384
32.170948,6.676515807005876,0.060284203302714244
32.175543999999995,6.631625310810674,0.059801912898099246
32.18014,6.5875120643489735,0.059318942138266176
32.184728,6.5393123412401,0.058863059582513255
32.189324,6.494221617065235,0.058422304958095056
32.193912,6.450563207643229,0.05799328907932084
32.198496,6.409236547421728,0.05757482112871036
32.203084,6.363945595267201,0.05717820595524787
32.207676,6.314445981751353,0.05681688791355745
32.212264,6.2633138255029825,0.056493644824550555
32.216856,6.2115707456838845,0.0562014901544156
32.221452,6.157784427541198,0.05592027407587311
32.226044,6.103631555256076,0.05565491095929445
32.23064,6.0443705871619855,0.05542523958050998
32.235228,5.9866641185348985,0.05520274598264522
32.239824,5.932311018270114,0.05498669771920625
32.244416,5.879268048044041,0.05479383738954652
32.249008,5.833298368685007,0.05459481038005781
32.2536,5.79350254574536,0.05439218048057763
32.258188,5.74655538867316,0.054244647339857
32.262768,5.695277385525494,0.05414236466602492
32.267364,5.654137530730245,0.05401222032723205
32.271956,5.616839783153878,0.05385994664562886
32.276551999999995,5.582118154206309,0.05370984213479046
32.281136,5.546497090811095,0.053559206283996144
32.285736,5.509732223539939,0.0534223450087655
32.29032,5.473866790716432,0.05328319181462827
32.29492,5.439433672645784,0.053164083328331474
32.299504,5.4067994234704315,0.05304150228658523
32.304096,5.377107847066313,0.052899410119812196
32.308688,5.341775294548017,0.05277706540630032
32.31328,5.305709633744848,0.052701930223045895
32.317868,5.269521788227531,0.052633837058883956
32.322464,5.233989007729571,0.05258085000481351
32.327051999999995,5.190772012793846,0.05256884428588797
32.331648,5.141136792010441,0.05257185907921769
32.336228,5.094688613426561,0.05253633195877567
32.340812,5.040678405119062,0.052531847527239404
32.3454,4.985768762363915,0.0525266268940981
32.349996,4.933679607665857,0.05251153552715116
32.35458,4.885432560186682,0.05247515444710053
32.359168,4.832443971040976,0.052459721372541686
32.36376,4.771526798029213,0.052505176090882344
32.368348,4.710609625017451,0.05254905186461882
32.37294,4.646871963948599,0.052605389408169646
32.377536,4.57941438037501,0.05267580571980233
32.382116,4.507581809277328,0.052738875091194584
32.386716,4.432640239245637,0.05276516955780586
32.391307999999995,4.353079312261561,0.0528064900439571
32.395908,4.265056921106217,0.05288834024892973
32.4005,4.174458411322075,0.05297112133125599
32.405088,4.079851468156278,0.05302527244554775
32.409684,3.9872877633140664,0.05305142888800478
32.41428,3.893047374290705,0.05307464131715809
32.418884,3.801749658038579,0.05308128690602768
32.423464,3.7105741265005983,0.053077424771728575
32.428064,3.6164559221913826,0.05309186959177552
32.432644,3.521193914006228,0.053147340822814006
32.437244,3.4214347335828337,0.05320866245349808
32.441835999999995,3.3199988689782898,0.053260229598833704
32.446428,3.2139436474213605,0.05333687455466468
32.451012,3.1062117416832815,0.053403512398801214
32.455608,3.0005230742687896,0.0534559465573589
32.460196,2.890215049901913,0.053538132115641186
32.464792,2.7772087221920922,0.05364310165981844
32.46938,2.6631807753204777,0.05379701885382893
32.473976,2.5469874054111314,0.05403815228368346
32.478564,2.430305296645202,0.05437942023267725
32.483148,2.315544241488714,0.054719052638421604
32.487739999999995,2.2065463471605504,0.05498822497225625
32.492332,2.1028228748041276,0.05530742290515806
32.496924,2.0033522052576536,0.0556974264100936
32.501512,1.899017809330503,0.05624592353574292
32.506108,1.798403335908089,0.05676877051791406
32.510696,1.703307653885708,0.05723412097268073
32.515291999999995,1.6125869593874207,0.05773256529427123
32.51988,1.524564568232077,0.058205379489920536
32.524468,1.4403842842956158,0.058679584280835244
32.52908,1.360456803169103,0.055978393512744695
32.533668,1.282983255957242,0.05328394589459213
32.538264,1.2089852618218266,0.05057228614823082
32.542852,1.1347428982581202,0.04786762181840607
32.54744,1.063321022751503,0.045149100079876665
32.552043999999995,0.9934536467118901,0.04240892366495871
32.55664,0.9298823118058123,0.03964010255687985
32.561236,0.8700308994044714,0.0368149409838091
32.565828,0.8164755281366655,0.03391735725318346
32.570424,0.7684389482688924,0.030946856949497673
32.575008,0.725554605658715,0.02796979614046576
32.579608,0.6823037089061007,0.025039164488421677
32.584184,0.6401966160294255,0.022045273254657154
32.588784,0.6001327614763372,0.018981509962938282
32.593368,0.5666093174850754,0.015784001548541697
32.597964,0.530021016008433,0.012602934540242666
32.60254,0.4917560303506405,0.009469450857207582
32.607136,0.4542682944263503,0.006306072803773341
32.61174,0.41281626656903164,0.003177217567037255
32.616332,0.3761057803782435,0.0
32.62092,0.33771861000630543,0.0
32.625512,0.30084233377013947,0.0
32.630108,0.2667865455910628,0.0
32.634692,0.23735011436437112,0.0
32.63928,0.2095903673188294,0.0
32.64386,0.1865721619398183,0.0
32.648447999999995,0.16445339100845505,0.0
32.653028,0.14503292342003538,0.0
32.657604,0.1266340749934092,0.0
32.662188,0.10823522656678304,0.0
32.666776,0.08905912840665468,0.0
32.671372,0.07270351830361556,0.0
32.675968,0.05802459238172645,0.0
32.680556,0.04412291619333952,0.0
32.685148,0.030099055290806937,0.0
32.689724,0.020816736054804944,0.0
32.69432,0.013088916285807316,0.0
32.698899999999995,0.006382715678603203,0.0
32.703496,0.004418056737929698,0.0
32.708084,0.0004101594736691469,0.0
32.712684,0.0,0.0
32.717276,0.0,0.0
32.721868,0.0,0.0
32.726448,0.0,0.0
32.731044,0.0,0.0
32.73564,0.0,0.0
32.740236,0.0,0.0
32.744812,0.0,0.0
32.749407999999995,0.0,0.0
32.753996,0.0,0.0
32.758588,0.0,0.0
32.763172,0.0,0.0
32.76776,0.0,0.0
32.772348,0.0,0.0
32.776924,0.0,0.0
32.781516,0.0,0.0
32.786112,0.0,0.0
32.7907,0.0,0.0
32.795292,0.0,0.0
32.799884,0.0,0.0
32.804472,0.0,0.0
32.809068,0.0,0.0
32.813652,0.0,0.0
32.818248,0.0,0.0
32.822835999999995,0.0,0.0
32.827436,0.0,0.0
32.832016,0.0,0.0
32.836616,0.0,0.0
32.841204,0.0,0.0
32.8458,0.0,0.0
32.850384,0.0,0.0
32.85498,0.0,0.0
32.859576,0.0,0.0
32.864172,0.0,0.0
32.86876,0.0,0.0
32.873352,0.0,0.0
32.877939999999995,0.0,0.0
32.882524,0.0,0.0
