Time,Force,Position
33.79176,0.8849175915930032,0.019170636994700955
33.796352,0.8657409573154788,0.01748678814074937
33.80094,0.8387579238860433,0.015865293392762433
33.805532,0.8109976407231057,0.01425696630743077
33.810132,0.7850362264554637,0.012651368999490382
33.814736,0.7569093891500889,0.011085364008817924
33.819312,0.7269836829494185,0.009558759884011855
33.823908,0.7030655070053635,0.007998147548898469
33.828496,0.6789029616330172,0.006470470326458247
33.833096,0.6540073079757969,0.00511246327211831
33.837684,0.6274349701374266,0.0037760000646067733
33.842288,0.5982865136702582,0.0024406750200460727
33.846872000000005,0.5679942533271507,0.0011708052683740435
33.851456,0.540278111612841,0.0
33.856044,0.5174256962792079,0.0
33.860640000000004,0.491874977602631,0.0
33.865236,0.4645253900307584,0.0
33.86983600000001,0.4353769335635901,0.0
33.874427999999995,0.40904896515351113,0.0
33.87902,0.38872852700004756,0.0
33.883607999999995,0.368408088846584,0.0
33.8882,0.34862053099833124,0.0
33.892788,0.3383160564831396,0.0
33.897384,0.32968826614909813,0.0
33.901976000000005,0.3210604758150566,0.0
33.906564,0.31566386912916955,0.0
33.911156000000005,0.3148085761301499,0.0
33.915744000000004,0.31506318519018006,0.0
33.92034,0.32370121515596034,0.0
33.924927999999994,0.3425215349227865,0.0
33.92951600000001,0.36903630875911686,0.003842437795047218
33.934112,0.3984259517329035,0.008807345133037362
33.9387,0.43796398269084663,0.014196406363119946
33.943287999999995,0.48969363995653326,0.019683394525642526
33.947884,0.5467079588257001,0.025499810877334474
33.952472,0.6155473498601733,0.03143401517709047
33.95706800000001,0.6962118130599532,0.03746041221374054
33.961659999999995,0.7858808603679504,0.04365261519300901
33.966256,0.8835328726223713,0.04995350197939388
33.970836000000006,0.9850813731760419,0.05648459702359903
33.97542800000001,1.0965338922855776,0.06308669951450596
33.980008,1.2133932577127393,0.06983822571685061
33.984607999999994,1.3366810886193203,0.07660120061880286
33.989204,1.4651313964152362,0.08355499391437063
33.993796,1.6054509178250864,0.09058113131602447
33.998388000000006,1.7556744577908017,0.09763830085657822
34.002984,1.9107719637689322,0.10478855580519575
34.007572,2.069922044577347,0.11196536744729088
34.01217200000001,2.228627527977808,0.1191924778540915
34.016772,2.382757795874512,0.1265072652908799
34.021364000000005,2.536843922322588,0.12995928994200287
34.025952000000004,2.6974602197007513,0.13210144853021671
34.030544000000006,2.8536132466575648,0.133794865100038
34.035124,3.0003170920982063,0.13543137076907724
34.039716,3.141003167650493,0.13676123830482131
34.044312000000005,3.271296485790333,0.1380110456691775
34.0489,3.3958164034701097,0.13909410491077234
34.053492000000006,3.512641867080382,0.1400409940114128
34.05808400000001,3.6235717455164456,0.14085030937155635
34.062676,3.735146449340127,0.14132711700984169
34.067256,3.8418471871513935,0.14167772276880922
34.071836000000005,3.9452284584172497,0.1418655103639344
34.076443999999995,4.040304352042873,0.14208594557937798
34.081036,4.135125636608465,0.14205669598013235
34.085624,4.221631303902089,0.14185607806247097
34.09022,4.297900300314298,0.141548676904537
34.094815999999994,4.367574505084313,0.1411107209931799
34.099419999999995,4.428732864602694,0.14060845717535508
34.10400800000001,4.486571757575665,0.14001974897397965
34.1086,4.542523498756084,0.13933368381423825
34.113192,4.597776033468517,0.13860300897538075
34.117788000000004,4.643379158685116,0.13807460456947815
34.122367999999994,4.684973850520057,0.13759148484520595
34.126971999999995,4.728567639229958,0.13699795468646478
34.131556,4.774204666263446,0.13635429393706078
34.136160000000004,4.825893365002177,0.13562421941283045
34.140744,4.876438259864969,0.1349528597731177
34.145336,4.932746315556086,0.1341683470519131
34.14993200000001,4.983413395133024,0.13349602330670676
34.154528,5.029050422166511,0.13290883905407283
34.159124000000006,5.072644210876412,0.13238438315131335
34.163724,5.118281237909899,0.13182332446164308
34.168316000000004,5.165184253533472,0.13121667809059104
34.17290800000001,5.208489531366453,0.13068005391191762
34.177496000000005,5.252249646239127,0.13023739151179747
34.182084,5.296342413437349,0.12989041984530383
34.186672,5.345465233179022,0.12950386774412942
34.191264000000004,5.396963943569828,0.1291627364909623
34.19586,5.450139338141786,0.12881592871300807
34.200452,5.506912470504333,0.12842679411057442
34.205044,5.563685602866881,0.1280550705323529
34.209624000000005,5.626510406934674,0.127619670557825
34.21421600000001,5.695098371830791,0.12709250178823114
34.218808,5.759599860079733,0.1266585695686486
34.223395999999994,5.823446283309319,0.12622892892625248
34.227999999999994,5.88544969619498,0.12579187584655668
34.23258800000001,5.944344110146633,0.12537066326821053
34.237176000000005,5.9969424829647515,0.12504074119847297
34.24176800000001,6.056037124896069,0.12456495437914974
34.246368000000004,6.114598886522174,0.124081385899638
34.250960000000006,6.169763138337352,0.12357895820169648
34.255551999999994,6.2174434036944275,0.12314017391060705
34.260148,6.265446081745313,0.12263766175702727
34.264736,6.314548422223508,0.12206731801609412
34.269336,6.362296491214363,0.12144773552234601
34.27392400000001,6.408568104003733,0.12077976645218508
34.278524000000004,6.443757992544407,0.12021317453741807
34.283112,6.474895306254796,0.11962069686113867
34.2877,6.496216884306577,0.11908881771956815
34.292283999999995,6.5125864530804245,0.11854826516758077
34.29688,6.519140286195664,0.1180656890125082
34.30147600000001,6.515756198938148,0.11764919213816996
34.306064000000006,6.50603192909847,0.11725864089488444
34.310652000000005,6.495975006933244,0.11679084801993714
34.31524,6.4808438907759385,0.11631105402718196
34.319828,6.455408300103442,0.11591423330994971
34.324411999999995,6.423632526848782,0.11553701172316828
34.32900000000001,6.38858142849734,0.11512512801062567
34.333592,6.347967397297237,0.11472848562629777
34.338176000000004,6.300524444658387,0.11438334272560063
34.342764,6.251526992552534,0.11403738277749623
34.347364,6.203140464017407,0.11364628579543676
34.351952,6.147680644615245,0.11331913856276907
34.356539999999995,6.088090207117278,0.11300715049001608
34.361124000000004,6.0229809782192785,0.1127554432237299
34.36570400000001,5.957461053730214,0.11247007074372924
34.370292000000006,5.8928405636887975,0.11217496328819127
34.374888,5.830141127256822,0.11184312614964212
34.379476,5.772593928082443,0.11146545984560823
34.384072,5.710593698118453,0.11118122847415965
34.388664000000006,5.656321824040856,0.11082821472054738
34.39326,5.607446556649147,0.11041115964927312
34.397848,5.555794942648976,0.11007969219424525
34.40244800000001,5.503165850935643,0.10981272794275058
34.407036000000005,5.456221876785114,0.10951238898117749
34.411640000000006,5.419704561863924,0.109118010631024
34.416228000000004,5.394268971191426,0.10863865526363288
34.420828,5.375828628120448,0.10814974954883567
34.42542,5.359764175698605,0.10770807705119424
34.430008,5.3520831441825125,0.10721321829706897
34.434596,5.3499650455150825,0.10670438892170071
34.439192000000006,5.354187129429813,0.1061846342048056
34.443792,5.369124383450802,0.1056172955150481
34.448387999999994,5.3890136467497225,0.10508443578868713
34.45297600000001,5.41602034236431,0.10453871243363387
34.457572,5.447734677828537,0.10404870978285251
34.46216,5.492573975865045,0.1034618165191987
34.466747999999995,5.543386902341278,0.10290315350893517
34.47133600000001,5.600662196113822,0.10233837249584278
34.475928,5.66926358356335,0.10169508466349751
34.480524,5.735988058852065,0.10113264359143012
34.48510400000001,5.806110043951708,0.10061327304616405
34.489688,5.8867808729948345,0.1000168086310641
34.494268000000005,5.973259004314913,0.09939920780965657
34.49886000000001,6.057738038760032,0.09887230377859453
34.503452,6.139440726596691,0.09843468336016035
34.508039999999994,6.2214319253102675,0.09804609401000663
34.512648,6.3021571354337595,0.09769605612147325
34.51724,6.385580648900196,0.09732884405064095
34.52183600000001,6.4688819776524875,0.0969771856283676
34.526424000000006,6.554881609747721,0.09661692845179469
34.531015999999994,6.639859622681161,0.09628295389835259
34.535612,6.718175040338629,0.09602364591018693
34.5402,6.793914339367301,0.09577860935322315
34.544799999999995,6.868221323643113,0.09552914273871484
34.54938800000001,6.9394193089849185,0.09528045167307568
34.55398,7.001500765136097,0.09511405882049243
34.558567999999994,7.057652734296178,0.09497438152402533
34.563168000000005,7.107097966731659,0.09486066401651416
34.567764,7.150491527461896,0.09478072765852434
34.572351999999995,7.195762000352947,0.09464184720521296
34.576932,7.238290028452425,0.09448230456485616
34.581524,7.2725568203603,0.0943448184939989
34.586116000000004,7.30612440580019,0.09416390094387334
34.59070800000001,7.338215535038593,0.09393460195462854
34.595299999999995,7.369851827237304,0.09364577983463802
34.599884,7.394370687120348,0.09335711229992712
34.604472,7.417290906087761,0.09302889828141651
34.609072,7.436447061101807,0.09269168711434515
34.61366,7.45376020577193,0.09232828457346137
34.618252,7.4653882328792465,0.09197331359160806
34.622848000000005,7.469654458242607,0.09162679850313647
34.627436,7.4747318351563585,0.09119665340485762
34.632036,7.478454940582768,0.09071221449828248
34.636624,7.477758917036456,0.0902068574222951
34.641216,7.4732988295367795,0.08968702508449967
34.64581200000001,7.466218481959676,0.089134098312636
34.650400000000005,7.45447463598156,0.08856905244292261
34.654996,7.438600171907642,0.08800527945284818
34.659576,7.4170405902709176,0.08744079039189208
34.664164,7.391228205824244,0.08688640014452602
34.668760000000006,7.359608519100618,0.0863362095090575
34.673351999999994,7.3282332018052845,0.0857691514865933
34.677944,7.287863540033473,0.08524552774708377
34.682524,7.244795574918717,0.08473133976928295
34.687124,7.199928740908666,0.0842220173369804
34.691704,7.156083526060408,0.08369613951811453
34.696312000000006,7.109417823155061,0.0831858143340216
34.700900000000004,7.062996489678005,0.08265750262422053
34.705484,7.015431352325011,0.08214288423807535
34.710064,6.963246858019633,0.08165095317205087
34.714648,6.915681720666638,0.08112475356556245
34.71924800000001,6.868405094190561,0.08062155995380273
34.72384,6.826280704972081,0.08010230769799616
34.728432,6.788164749135259,0.07958447851746259
34.733024,6.752624911927233,0.07905626596165223
34.737616,6.721870757834366,0.0785340999614571
34.7422,6.698312079322681,0.07797733774125451
34.746787999999995,6.683747745287476,0.07738101208724929
34.751384,6.674457833224012,0.07676460185698541
34.755976000000004,6.668399104808702,0.07615204061912165
34.760555999999994,6.672644850908585,0.07552352352674006
34.765156000000005,6.6783229117613265,0.074907301219673
34.769744,6.692506578233964,0.07428051510984257
34.774339999999995,6.713763535573637,0.07363516407391205
34.778932,6.740294914885052,0.07298176871386204
34.783524,6.7730001506158555,0.07231926178688709
34.788116,6.8099581891566086,0.07165621689817382
34.79269600000001,6.847082553860135,0.07103142234580562
34.797284000000005,6.886005787458957,0.0704041852282802
34.80188,6.934944984696051,0.06974098509248543
34.80648000000001,6.986338115847797,0.06909069964323553
34.811076,7.037364692857106,0.06846360925912098
34.815664,7.08123993573386,0.06790512907822782
34.820260000000005,7.130756154724794,0.06733035071630425
34.824848,7.1875900340110555,0.06674064649900695
34.829448,7.243646663563815,0.06615408606599435
34.834024,7.296638435631194,0.06559898380445249
34.838624,7.346931904355629,0.06506011756371814
34.84322,7.401600360604157,0.06452520884010861
34.847812000000005,7.457412620728626,0.0639829742917506
34.852396,7.506395959414349,0.06344666388075733
34.856984,7.558444155585451,0.06289368448951277
34.861571999999995,7.609426591146133,0.06231740042422454
34.866168,7.656034039182719,0.06175061708218204
34.870756,7.694180023048038,0.06121828525371409
34.87535200000001,7.728073204103411,0.060690159028450145
34.879940000000005,7.762577308729511,0.06014016112474996
34.884524,7.795893468031044,0.05956562907817637
34.889116,7.825734074256132,0.05899234880204783
34.893708000000004,7.847601955166533,0.058428779548869346
34.898304,7.864195414105192,0.05786887610106524
34.902896,7.879356558290994,0.05729452238696535
34.907492000000005,7.895372995475817,0.05667798708319748
34.912071999999995,7.897653546517629,0.05608933754047336
34.916664,7.887752710883439,0.05553679807695824
34.921260000000004,7.873599072439299,0.054975621265222985
34.925852000000006,7.861610857032891,0.054395993061697706
34.930448,7.841283362169361,0.053829679396580295
34.935028,7.812083707543499,0.053264013795880645
34.939620000000005,7.774666958174661,0.0527050970074475
34.944216,7.7313648632633525,0.05216428674370524
34.948808,7.678701869733128,0.05164081156330738
34.953404000000006,7.617088673175054,0.05115420106180476
34.957984,7.550611750236304,0.05068007883812872
34.96258400000001,7.486300250335287,0.0501802803591085
34.967168,7.410995309082831,0.04972812426547164
34.971772,7.323020242297789,0.049317583957506246
34.97636,7.231980318027366,0.04891608645958526
34.98096,7.138652786005065,0.04853091792782613
34.985544000000004,7.0447143304120345,0.048167289977070406
34.99013600000001,6.947711017333624,0.04781269831108587
34.994724000000005,6.84662122760804,0.04747439794911786
34.99932,6.741977841540492,0.04716991854340844
35.003908,6.639666204673451,0.04687480332883109
35.0085,6.535555698911113,0.046569528092474735
35.013088,6.429690465702109,0.046301411688078206
35.017675999999994,6.31217672612231,0.046068151906632625
35.02226400000001,6.197894170190666,0.045848337683544495
35.02686,6.078136964307618,0.04567531323777203
35.031452,5.962266007092081,0.04553263402577493
35.036044000000004,5.852691091010079,0.04538445107284309
35.040636000000006,5.744548489680934,0.04525151346142407
35.045224000000005,5.6416803103235305,0.045124280221487484
35.04982,5.542287684042574,0.045000164113582056
35.054396,5.440485265295592,0.04490422079113419
35.058983999999995,5.345345441824583,0.04478619554302712
35.06358,5.258300528382405,0.04466923277441554
35.068172000000004,5.174364613874235,0.04458213335199064
35.072768,5.088263276328333,0.04451676191115135
35.077364,5.000895950192346,0.04447522681614126
35.081952,4.914716569380926,0.04447679382391686
35.086556,4.83483322970304,0.04447888724406109
35.091144,4.760346496711042,0.044483849808271726
35.095740000000006,4.687536447900194,0.04449673025365203
35.10032,4.621555320528093,0.04453903515499722
35.10492000000001,4.557495246765432,0.04457486212019177
35.1095,4.506149439983986,0.04461140154719116
35.114104,4.458401370993133,0.044650446399062356
35.118696,4.421280189211281,0.044641717087674296
35.123292000000006,4.3815828888006285,0.04462194946832488
35.127888,4.340741784514038,0.044618221127997466
35.132484000000005,4.305419471627482,0.04460835082834019
35.137068,4.270097158740923,0.04459816045893715
35.141664000000006,4.23465266114022,0.0445964235606804
35.146264,4.2017842821683145,0.04460704105319633
35.150859999999994,4.173290890720503,0.04463056370334793
35.15544800000001,4.148517421777428,0.0446470109859011
35.160044,4.120268399757908,0.044650791606679036
35.164632,4.099703592176152,0.04462124007995903
35.169228000000004,4.082858707099135,0.044585685008391045
35.173816,4.06956741836408,0.044480326832572345
35.1784,4.0479368501719035,0.044385776742236094
35.182996,4.020787490579694,0.044295286641417735
35.187588000000005,3.9933937615591937,0.044225990308087416
35.192184,3.962524479462247,0.044142234299771356
35.196768000000006,3.9317773820794466,0.044045021912115394
35.201364,3.8902370713248717,0.04393424630667881
35.205944,3.8472644458174377,0.04378322894314514
35.210532,3.8002053436628307,0.04366917857361592
35.21512800000001,3.7559667295653116,0.0435428637821807
35.219716000000005,3.709929246572498,0.043411199295597155
35.224316,3.655430299408416,0.04330160511526737
35.228908000000004,3.6001541025108317,0.043174239901827206
35.233496,3.5421796022703043,0.0430386249560519
35.238091999999995,3.4826506025627717,0.04287111156023021
35.242688,3.417724996169353,0.04269116095487006
35.247288,3.3426612414235155,0.042513100688696834
35.25188,3.268619105839473,0.04231191932699287
35.25648,3.189058178855396,0.04209855501401683
35.261067999999995,3.1072876873849595,0.04180918125670908
35.265671999999995,3.020286915391409,0.041575719041723316
35.27026000000001,2.9388049347978913,0.04133269318597926
35.274852,2.8621866805850504,0.041043517850959714
35.279439999999994,2.784258296333496,0.04067246323681953
35.284032,2.705308292920148,0.04029936281139975
35.288612,2.6232934320214207,0.03995033732982445
35.29320800000001,2.5494956658656687,0.03959120071301677
35.297796000000005,2.472388672796245,0.03928694292695279
35.302392,2.396303298888615,0.03896239957279188
35.306972,2.318296871371542,0.038627300858901696
35.31156,2.241312063016264,0.03825241901964718
35.316148,2.1711120346511033,0.03780640325022046
35.32074,2.09989038712415,0.03734458051539938
35.325332,2.0285465548830497,0.03687167996295
35.329924000000005,1.9549151148900716,0.03644775467904815
35.33451600000001,1.883204728506535,0.035970397297102816
35.339108,1.8180347526848248,0.035442573547742676
35.3437,1.752498222720677,0.03495531193737863
35.348288,1.6895378113853274,0.03447167845822201
35.352875999999995,1.6260886611933953,0.03402958049798931
35.357472,1.5654599990585523,0.033563513017862506
35.36206,1.5029102833142676,0.03307392010154838
35.366668000000004,1.438195144532251,0.032610774087292356
35.371256,1.3769555588266795,0.032141303248278005
35.375844,1.3187808306064885,0.030340657141899183
35.38044000000001,1.265469828766974,0.02853125301759506
35.385031999999995,1.2062734813849896,0.026743662699724665
35.389628,1.1538619139931228,0.024941435309207647
35.394216,1.097730424096519,0.02315167684474517
35.398816,1.0423761839334171,0.021388487408410536
35.403403999999995,0.9903753121326158,0.019671977015555352
35.408004000000005,0.9363312020082271,0.0180139096557947
35.412592000000004,0.8820427224555472,0.01639106967426326
35.417199999999994,0.8297974812264541,0.014789236237099176
35.421792,0.7852364544351267,0.013161606392219827
35.426388,0.740431058215508,0.011599033821073584
35.430980000000005,0.6932158695298652,0.010093725652554111
35.435576,0.6509865919390444,0.008575269770807074
35.440172000000004,0.6096567487958715,0.007085407509692063
35.444768,0.5729462626050834,0.005620490632289468
35.449364,0.5400778836331779,0.004166662189130146
35.453964,0.5109294271660096,0.0027443631194282664
35.458556,0.4819031554129871,0.001337706637425853
35.463148000000004,0.4525103295175275,0.0
35.467740000000006,0.4246720030890722,0.0
35.472324,0.3986325455559127,0.0
35.476912,0.38129892162231216,0.0
35.481504,0.3579577674320962,0.0
35.48610000000001,0.3420564582513543,0.0
35.490692,0.3307745060229974,0.0
35.495288,0.3149953815564012,0.0
35.499876,0.3008929412709551,0.0
35.504464,0.2894888043284526,0.0
35.509052,0.2814380357482501,0.0
35.513639999999995,0.27261001743454544,0.0
35.518236,0.26660248717793,0.0
35.522824,0.268645725501517,0.0
35.527435999999994,0.26852354078737134,0.0
35.532016,0.2722434632921084,0.0
35.536612000000005,0.27314289773975625,0.0
35.541208,0.26827917135907997,0.0
35.5458,0.2653364985878451,0.0
35.550404,0.2648477597312624,0.0
35.554992,0.2675460630742059,0.0
