Time,Force,Position
31.127047999999995,0.7239841983635267,0.007643689856406039
31.131628,0.7040303143525,0.00764368985640604
31.136224,0.6848536800749758,0.00764368985640604
31.14082,0.6674759146927471,0.00764368985640604
31.145404,0.649076530148725,0.00764368985640604
31.149995999999994,0.6319431341947876,0.00764368985640604
31.154591999999997,0.6100681965743197,0.005601136757732973
31.159172,0.5861500206302646,0.003649051947424236
31.16376,0.5590448024866833,0.0017940161324507863
31.168367999999997,0.5300185307336609,0.0
31.172948,0.501114443694784,0.0
31.17756,0.4750308447129963,0.0
31.182148,0.4469040074076216,0.0
31.186736,0.4213532887310447,0.0
31.191332,0.39465876617852874,0.0
31.195919999999997,0.3660431900165713,0.0
31.200523999999994,0.34306858996879236,0.0
31.205119999999997,0.32561278132104615,0.0
31.209712,0.30983365685444997,0.0
31.214304,0.29855170462609304,0.0
31.2189,0.2873919371118818,0.0
31.223492,0.28522651407414906,0.0
31.228092,0.2771757454939465,0.0
31.232679999999995,0.26757047744673973,0.0
31.237283999999995,0.25694359023773927,0.0
31.241876,0.24774901778159758,0.0
31.246472,0.24059768364904296,0.0
31.251056,0.23242473035469474,0.0
31.255652,0.23324612153682506,0.0
31.260256,0.24310599864406207,0.0
31.264848,0.2621265463905514,0.0
31.26944,0.28442241923382333,0.0
31.274027999999998,0.3102821280507972,0.0
31.278616,0.3442469865283405,0.005304361743811957
31.283204,0.3899147324570447,0.010876165189366375
31.287792,0.4445870624939662,0.01677110998223219
31.292387999999995,0.5081417919249595,0.022822908762925056
31.296983999999995,0.5767368135311415,0.029066788410794228
31.301576,0.6563796575691279,0.03536957019791242
31.306163999999995,0.7423287823723881,0.04181664303825141
31.310744,0.8392035448933068,0.04829435128791703
31.315335999999995,0.940830088712495,0.05486009376935479
31.319928,1.058245996630018,0.06138488622538106
31.324516,1.1836448694939647,0.06802867384651144
31.329124,1.3214458362770574,0.07479817057657215
31.333704,1.4678067897604126,0.08173412073198602
31.338296,1.628779401649274,0.08871871728256563
31.342892,1.808083594448379,0.09569273923304808
31.34748,1.9930831444420294,0.10270140083007806
31.352072,2.183567584018823,0.10966039223635446
31.356668,2.374917556226375,0.11666056011180026
31.361259999999994,2.5730184066071558,0.12363344382367067
31.36584,2.7810130359120624,0.1305104594289809
31.370439999999995,2.983156221491389,0.1321463702571413
31.375028,3.1785485288974877,0.13353329956241558
31.379624,3.3691110117397995,0.13462073877260117
31.384212,3.554066420284822,0.1355479959524248
31.388804,3.7336591239608463,0.13628555773464712
31.393392,3.904579895854201,0.13702824524261095
31.397988,4.070548658469623,0.13765813762147036
31.402576,4.228867108464169,0.13829399477919085
31.407172,4.383377353056723,0.13882681166158378
31.411759999999997,4.527661166399601,0.13944187692811705
31.416348,4.67005782794993,0.13990764119812654
31.420932,4.802340003332991,0.14020409474391096
31.42552,4.923974812243572,0.14031107098006762
31.430111999999998,5.0322639513387335,0.1403315113002363
31.4347,5.121400118341522,0.14035526683191937
31.439291999999995,5.194780823062862,0.14038109135404883
31.44388,5.2519614680948035,0.1405240134830433
31.448471999999995,5.298949583693961,0.1406233378391328
31.453064,5.332147432069741,0.14075337335495877
31.457648,5.351310643793855,0.14093627677128928
31.462244,5.369564181438582,0.14095522582445816
31.466832,5.385886425842128,0.14084089104539033
31.471439999999998,5.399910822862059,0.14062406784764428
31.476036,5.405096961936545,0.14043026842040268
31.480639999999998,5.399157235313708,0.14033195104016752
31.485232,5.3914084001638365,0.14008728641312002
31.489819999999995,5.381195391467575,0.13969280522969021
31.494415999999998,5.365086797597104,0.13925510991044857
31.499012,5.341039380228837,0.1388256193641755
31.503604,5.311995812134011,0.13833717156591663
31.508184,5.275257789969678,0.13783443514406843
31.512788,5.23475570385198,0.13734065169213913
31.517376,5.19408729157151,0.1367926217591261
31.52198,5.151453684232968,0.1362200093801471
31.526568,5.1079206424467785,0.13565482043820562
31.531167999999997,5.06859626202191,0.1349692520262224
31.535751999999995,5.031681674063065,0.1341956586376946
31.540347999999994,4.993090401923068,0.13343423286944373
31.544943999999997,4.9562979986783695,0.13263271252400516
31.54954,4.91787305270115,0.13190235847664383
31.554136,4.87601669509611,0.13127410814593626
31.558736,4.826109568910871,0.13083932614671023
31.563323999999994,4.775835888583192,0.1304239272151064
31.567919999999997,4.732391129694259,0.12990951846100263
31.572512,4.699861768891247,0.12919277542923563
31.577096,4.666887810680279,0.12857362055999755
31.581684,4.630160028147687,0.12815444693749742
31.586279999999995,4.601815666520845,0.12762981185857908
31.590872,4.579933672190311,0.12704479749974593
31.595464,4.564025306299503,0.12644516100606074
31.600055999999995,4.552824580258337,0.12588045274106827
31.604636,4.546575863495103,0.12533007926963338
31.609232,4.54143704879092,0.12487551461026754
31.613816,4.538063201165142,0.12452350840270673
31.618407999999995,4.542461850874386,0.12413398091128401
31.623,4.548869837090328,0.12382945137274971
31.627579999999995,4.563294690069584,0.12347322258166717
31.632172,4.588190343726803,0.1230458494871855
31.636768,4.615217518604866,0.1226897114686641
31.641355999999995,4.648462691350948,0.12230491443584462
31.645951999999998,4.688048046679192,0.12188679082646393
31.65054,4.7372047682377545,0.12139699757795556
31.65514,4.787715761283657,0.12098771894776904
31.659732,4.837659972207458,0.12069727350031303
31.664328,4.889980073780396,0.12047532883529095
31.668907999999995,4.947085858468491,0.12022624000906486
31.673503999999998,5.01114274930948,0.11988394144103753
31.678096,5.07320054327551,0.1196623561892971
31.682688,5.136201913137814,0.11949671058128677
31.687268,5.200635597752978,0.11934381624371355
31.691863999999995,5.26482491293985,0.11921126986095129
31.696452,5.3306909123078725,0.11907162146992327
31.701048,5.399133030304692,0.11890532512313727
31.705636,5.473338309129836,0.11864444133457308
31.710232,5.546766338221478,0.11839759802180738
31.71482,5.6173738792560295,0.11818964683980712
31.71942,5.68720417055708,0.11800341252747658
31.724008,5.7535589087816845,0.11786401302726576
31.728604,5.820524570577017,0.11767898543260133
31.733196,5.886302287047785,0.11747577627935751
31.737784,5.952446557660988,0.1172586965908667
31.742376,6.017891621806205,0.11699271425301488
31.746956,6.085091413398091,0.11666327354979261
31.751548,6.156333540188522,0.1162215444196356
31.756144,6.223156538006232,0.11578579696232907
31.760724,6.287114906318225,0.11534656036464898
31.765332,6.348575199266937,0.1148820897338246
31.769924,6.407537416852368,0.11438751703514473
31.774511999999994,6.463879374360374,0.11387493028329941
31.779108,6.518867060381039,0.11331696472291411
31.783696,6.573399909362011,0.11269875787683716
31.7883,6.622492010208467,0.11209483596541511
31.79288,6.668308785958139,0.1114643957215592
31.797472,6.704309826049204,0.11088309321754118
31.802052,6.738712225224637,0.11026849798131505
31.806652,6.7736814065221695,0.10957178814393848
31.81124,6.795647809961567,0.10896961278984847
31.815839999999994,6.811640584961238,0.10836114409410953
31.820435999999997,6.8248909151693375,0.10773506248297644
31.825032,6.837319854195306,0.10706990163352115
31.829615999999994,6.842509176191465,0.10642861568965761
31.834211999999997,6.843690064805966,0.1057999922728863
31.838815999999994,6.835343728638779,0.1052348304833164
31.843408,6.815915668222896,0.10473414576082206
31.848,6.792234804997067,0.10425533092412845
31.852591999999994,6.764789877817873,0.10376831567481563
31.857184,6.733991582276379,0.10329437678358382
31.861771999999995,6.700861537534378,0.10281789622773263
31.86636,6.663234320554137,0.10237712874013954
31.870952,6.618577954155487,0.10203131317299068
31.875547999999995,6.5711010996997485,0.10171068349203233
31.880136,6.524645864405803,0.10137104635243735
31.884732,6.477169009950064,0.10104132117834222
31.88932,6.432023904694832,0.10070803377277433
31.893916,6.380871269182983,0.10045324355926384
31.898504,6.333971436481084,0.10016997231005212
31.903099999999995,6.2991308057410444,0.0997664784395829
31.907688,6.265478120325572,0.09938224049193989
31.912268,6.236977672167695,0.0989676797913917
31.916856,6.207621931010797,0.09860312801771917
31.921443999999997,6.180109200197824,0.0982672913380808
31.926036,6.151985545814123,0.09796662330479602
31.93064,6.137597777573429,0.0975456105845359
31.935236,6.131349060810195,0.09710631425591652
31.939832,6.129108777428618,0.09666139959164273
31.944419999999997,6.133453046057495,0.0962007095119882
31.949012,6.143360247535034,0.09573985232381484
31.953592,6.157153697680083,0.09528403757631719
31.958195999999997,6.178142623406314,0.09477738082887399
31.962788,6.207470828589669,0.0941973525435575
31.967384,6.240807467154678,0.09361855635975976
31.971968,6.278152539101345,0.09304392839279595
31.976564,6.319383859715524,0.09247853945219905
31.981168,6.3696095248061795,0.0918620402512166
31.985764,6.426009046316225,0.0912073985400735
31.990359999999995,6.481264763950332,0.09058928614992716
31.99496,6.533211254670767,0.09003628894357113
31.999551999999998,6.591575971238882,0.08944286955571384
32.004144,6.6489190686452035,0.08887616404742588
32.008731999999995,6.706262166051526,0.08831086810956947
32.013324,6.766670120943228,0.08771130547103813
32.017911999999995,6.834640105558551,0.08705615452261153
32.022504,6.890062149355431,0.08652696639139355
32.027096,6.940987020914072,0.08602641029947751
32.031687999999995,6.994976749958093,0.08549819859772392
32.03628,7.045246556497378,0.08500312582100607
32.040868,7.093428983264446,0.08449705939062624
32.04546,7.144143387211685,0.08395186425149265
32.050048,7.190727173063123,0.08341834024555328
32.054635999999995,7.231914352228673,0.08291721478626024
32.059236,7.2698703477460676,0.08241851605748925
32.063824,7.302918475434159,0.0819244857659894
32.068411999999995,7.33400140806418,0.08140943877456634
32.073007999999994,7.356456550360161,0.08092482662026597
32.077596,7.3809107895311,0.0803862546991653
32.082187999999995,7.403155464215678,0.07983968152213358
32.086783999999994,7.425111628023336,0.07926854194450166
32.091379999999994,7.441382674268187,0.07869778171682558
32.095968,7.451846418236087,0.07812908614714824
32.100568,7.463165455203007,0.07751905208129203
32.105148,7.473174362131213,0.07689497414013875
32.109739999999995,7.47365604427773,0.0762919826908243
32.114324,7.479856745803944,0.07560878085089473
32.11892,7.490632662833913,0.07486572138817203
32.123512,7.495601277586931,0.07412378809050237
32.128108,7.50191392419555,0.07331777655235465
32.1327,7.504095952708367,0.0725077714074781
32.137296,7.49716145203056,0.0717320329260706
32.141887999999994,7.488428082457458,0.07095899973762876
32.14648,7.480427821169229,0.0701469394265218
32.151067999999995,7.47303848345173,0.06930384541448584
32.155652,7.466915134324314,0.0684382667211907
32.160236,7.460258904891687,0.06755752548871621
32.164832,7.452703241011413,0.06667496428590323
32.169424,7.440039481322173,0.06583556123496857
32.174015999999995,7.420713126356958,0.06502265562748774
32.178611999999994,7.397011783867652,0.06420906038281035
32.1832,7.374987125559495,0.06339480089269352
32.187791999999995,7.3534953475565485,0.06258955618791065
32.19238,7.329183081496514,0.0617922627894039
32.196968,7.3039713809888305,0.060994802257259985
32.201564,7.282235233557594,0.06019030340193637
32.206152,7.259233097536272,0.05940366265651846
32.210739999999994,7.230223431258334,0.05865277802787314
32.215323999999995,7.198803972514372,0.05792634725024234
32.219924,7.162564928838363,0.057259759097783025
32.224515999999994,7.129557068810508,0.05660100870259941
32.229104,7.100679826878453,0.05594786478363531
32.2337,7.074500888289344,0.055287627943179804
32.23828,7.0504093294724495,0.054652524385805874
32.24288,7.023663608761238,0.05405734587753053
32.247463999999994,6.995285345317507,0.05349584165868646
32.252064,6.964907984998815,0.05298622756381554
32.25666,6.93776180832828,0.05248928669595685
32.261252,6.910371262229452,0.05200084812070135
32.26584,6.891075626159455,0.05150300068872833
32.270436,6.876443488490471,0.051035456415640196
32.275023999999995,6.860178808088965,0.050603990344507424
32.279619999999994,6.843425388830877,0.05019348355198544
32.284212,6.8276155454690635,0.049822617077858185
32.288804,6.811972028270025,0.049487202203265857
32.293395999999994,6.798538075557348,0.04917524674942072
32.297979999999995,6.78424882984565,0.04890503176018242
32.302572,6.774212386943901,0.04864461171089872
32.307164,6.771371419623334,0.048382070239268986
32.31176,6.7740492437028,0.04811211749194352
32.316348,6.7762383289256825,0.04786711922759447
32.320944,6.7801040983297165,0.0476285005169786
32.325523999999994,6.783236759448875,0.047426982193318555
32.330116,6.782160759206715,0.04725551833838902
32.334703999999995,6.781739823983911,0.047095328418894605
32.339292,6.779275650437519,0.046946133854917645
32.343884,6.777955280767067,0.04678401534797713
32.348476,6.771649000001793,0.04664563165637568
32.353064,6.76281074205635,0.046543598711434854
32.35766,6.747842769140145,0.04647812295968877
32.362252,6.731075927328645,0.04641207226607806
32.366856,6.713287466355351,0.04635174593575964
32.371444,6.7004849164768805,0.04626642473691532
32.37604,6.687804551312555,0.0461744208455259
32.380627999999994,6.672303698091139,0.046087609276308256
32.385228,6.649240815146104,0.046017458584357684
32.389816,6.625645051895857,0.04592726928683614
32.39442,6.599106615874376,0.04584856018989312
32.399012,6.56656064959628,0.04580008347998295
32.403608,6.524165045842684,0.04579420201580395
32.408192,6.474984662098971,0.04581355914799906
32.412783999999995,6.423761040031673,0.04584451690539973
32.417392,6.367918061011989,0.04588148376716303
32.421988,6.312319451420596,0.04590524626333977
32.426576,6.254921972933907,0.04592853861098532
32.43116,6.200222797790162,0.045952688722759406
32.435748,6.140537711551595,0.04600305324539111
32.440335999999995,6.082118613903113,0.0460324982919481
32.444924,6.0262314934348,0.046020598792259663
32.449524,5.967768254337689,0.04600219703595956
32.454111999999995,5.906484527183491,0.0459890750477149
32.4587,5.842380311972203,0.045982742691517114
32.463292,5.772390751218444,0.046000271818148274
32.467879999999994,5.698681267959949,0.04602278845591145
32.472476,5.622273481358509,0.046044120323933554
32.477064,5.54586569475707,0.046067385624798916
32.481652,5.465493616222602,0.046111341149060785
32.486259999999994,5.383444853506984,0.0461455767294691
32.490848,5.297021103267273,0.04617365564073497
32.495444,5.217504317731825,0.04616718781277386
32.500035999999994,5.1448944969006405,0.046122744276396496
32.504624,5.063823211898188,0.0461027743663518
32.50922,4.979931438838648,0.04609370493806987
32.513808,4.892197558560222,0.04610055071342043
32.518404,4.805363112729446,0.046107405987169975
32.522983999999994,4.714930929108078,0.04611277310006074
32.527584,4.630506275743326,0.04607192047382105
32.532172,4.543138949607338,0.04604384634280899
32.536767999999995,4.453606200433619,0.04603711382947521
32.541356,4.371757665697664,0.04599164820882355
32.545956,4.2890096965140625,0.04594388015433492
32.550548,4.201642370378075,0.04590626645080547
32.555139999999994,4.110310752309059,0.04590247024119268
32.559732,4.018856949525898,0.04591073946398045
32.564328,3.9280582117620924,0.045945769954705715
32.568915999999994,3.837259473998288,0.045986069141576894
32.573511999999994,3.7483817898439242,0.04601825235412593
32.5781,3.657338682651828,0.046088915803629726
32.582696,3.5730803554498496,0.04610766060200628
32.587284,3.485346475171425,0.04610240468621853
32.59188,3.3918494340646768,0.0461276445708748
32.596467999999994,3.3042377385003983,0.04610909491746962
32.601063999999994,3.2240658879455943,0.046073635677939054
32.605656,3.1496571982191144,0.045995753568648906
32.610236,3.0725502051496902,0.04591198798756922
32.614836,2.992500539309032,0.0458571521624017
32.619423999999995,2.904522289602316,0.04588626851726584
32.624019999999994,2.8191201585243983,0.04593715399988332
32.628608,2.7344952771799824,0.04600993737426419
32.633196,2.645006669454891,0.046114583061934535
32.637792,2.5543742578538597,0.046267591301414716
32.64238,2.472203310424096,0.04638027347147145
32.646967999999994,2.3950182740891544,0.046435220569267244
32.651564,2.317833237754213,0.04650320797987078
32.656152,2.240892570847563,0.04654523521963408
32.660748,2.1659951422645003,0.04654544649670421
32.66534,2.0901982792337894,0.04654337738460878
32.669936,2.015667404793163,0.04647629187792376
32.674516,1.9360284345435697,0.04651793297907759
32.679116,1.858843398208628,0.04659230891744256
32.683704,1.7855004690925693,0.046615463766267864
32.688308,1.7131791591383043,0.04657410170084369
32.692899999999995,1.6355834272122978,0.04647004986858529
32.697495999999994,1.5546784683726196,0.046527029547229495
32.702088,1.4745507592664433,0.044285880564786884
32.706684,1.4012078301503847,0.04201754898943345
32.711271999999994,1.3348940504527351,0.03969796047002859
32.715868,1.266903586573935,0.03735975660336368
32.720456,1.1942937657427508,0.03500186115908089
32.725052,1.1196407065879792,0.032645541306686884
32.729644,1.0499735585280294,0.030244562286533522
32.734227999999995,0.9791626065921402,0.027867470458095324
32.73882,0.9119493924468428,0.02551567326000499
32.743416,0.8495999046822216,0.023140547591498247
32.748008,0.7919919585841311,0.02076684017556586
32.752604,0.7368379464006926,0.018423262873500962
32.757196,0.686303291169639,0.016083360221648028
32.761784,0.639366373729177,0.01378048387748727
32.766375999999994,0.5972931826693911,0.011414653630491696
32.770959999999995,0.5550978068954596,0.00904988906878206
32.775548,0.5098375736361477,0.006724655839260156
32.780144,0.4640886015202529,0.004483494205397702
32.784735999999995,0.42475785525203874,0.002305022338369452
32.789331999999995,0.38783690144984867,0.0
32.793924,0.3593774118189263,0.0
32.798528,0.3316951719215061,0.0
32.803112,0.3017253242722075,0.0
32.8077,0.2780515177564438,0.0
32.812296,0.2646380443072436,0.0
32.816876,0.25584392781042825,0.0
32.821476,0.24770487633296945,0.0
32.826055999999994,0.24160906317909767,0.0
32.830656,0.23359219641578452,0.0
32.835244,0.22533096022418006,0.0
32.839844,0.21682535460428423,0.0
32.844428,0.2121618562032712,0.0
32.849024,0.2062323692121732,0.0
32.853604,0.20173519697393394,0.0
32.8582,0.1989147089168447,0.0
32.8628,0.19633859028804684,0.0
32.867396,0.2014466860970145,0.0
32.871984,0.2142389963437476,0.0
32.876572,0.22576531800039584,0.0
32.881159999999994,0.23770233524810924,0.0
32.885756,0.24514218025758336,0.0
32.890344,0.2514382213911184,0.0
