Time,Force,Position
31.694844,0.0,0.0
31.699436,0.0,0.0
31.704027999999997,0.0,0.0
31.708623999999997,0.0,0.0
31.713212,0.0,0.0
31.717796,0.0,0.0
31.722384,0.0,0.0
31.726975999999997,0.0,0.0
31.731572,0.0,0.0
31.736152,0.0,0.0
31.740744,0.0,0.0
31.745335999999995,0.0,0.0
31.749928,0.0,0.0
31.754527999999997,0.0,0.0
31.759124,0.0,0.0
31.76372,0.0,0.0
31.768308,0.0,0.0
31.772912,0.0,0.0
31.7775,0.0,0.0
31.7821,0.0,0.0
31.786688,0.0,0.0
31.791287999999994,0.0,0.0
31.795872,0.00031263159807217464,0.0
31.800467999999995,0.0013244696641290113,0.0
31.80506,0.003035514198170508,0.0
31.809656,0.006223014933698843,0.0
31.814243999999995,0.012685840766009725,0.0
31.818839999999994,0.020258568657370427,0.0
31.823428,0.03552575061823542,0.0
31.828024,0.059919701401463375,0.0
31.832612,0.09176373682590426,0.0
31.8372,0.1317129219109146,0.0
31.841787999999998,0.17862345278055516,0.010116880369997187
31.846383999999997,0.23335062243384574,0.01978156285138087
31.850976,0.2945062575665557,0.029401194282689287
31.855563999999998,0.3669540845593613,0.03841537940925781
31.860164,0.4505719186981169,0.047021454888329234
31.864743999999995,0.5425392719257334,0.0555191563035987
31.869336,0.6379924178615342,0.06429845124108237
31.873923999999995,0.7368091717913741,0.07336889032446844
31.878511999999997,0.8420543912006333,0.08244944813434517
31.883107999999996,0.9534395652123924,0.09146233883176433
31.887688,1.0697526277809315,0.10046517236338265
31.89228,1.192650242359925,0.10931628863255176
31.896871999999995,1.3233983975394579,0.11792475513721708
31.901464,1.4601201811587166,0.12650175927942064
31.906063999999997,1.6011389090365515,0.1350311963135149
31.910644,1.7479649391913388,0.1435164285999076
31.915243999999998,1.8910269053927609,0.1520092034674365
31.919832,2.027049482544035,0.16048791982381366
31.924432,2.1560326706451614,0.16900316524589712
31.929024,2.277199219962638,0.17757240981093622
31.933623999999995,2.3938583574101364,0.17595779722706642
31.938219999999998,2.504177312275472,0.17486759426803533
31.942815999999997,2.6128534847765468,0.17371004322383576
31.947396,2.709259987704361,0.1732921962073184
31.951992,2.7967060479725854,0.173251350302187
31.956588,2.8790337728001036,0.17324059031597278
31.961187999999996,2.9618841383010936,0.1728583274910329
31.965779999999995,3.0471781980849975,0.17204120090773364
31.970375999999995,3.128664052466908,0.17122147352426537
31.974963999999996,3.2056085931619505,0.17051967392958442
31.97956,3.281076677655507,0.16977745792317153
31.984148,3.350448948995191,0.16920507511210955
31.988739999999996,3.4141361027720687,0.16885349371574898
31.993331999999995,3.47241641023132,0.16845186266484516
31.997916,3.5251676866588,0.16801795025319474
32.002503999999995,3.5740666162356587,0.16751147931735702
32.00709199999999,3.618380090677022,0.16699484637875825
32.011688,3.6611390656513807,0.1665085480170317
32.016276,3.709539016739918,0.165843944805964
32.020864,3.759082771704394,0.16511808156059615
32.025464,3.8055616691834895,0.16452485024754138
32.030044,3.8567379668804875,0.1637117586568447
32.03464,3.9014960387298054,0.1631103807004998
32.039227999999994,3.95136220638809,0.162300306730077
32.043816,4.003027242941671,0.1614619752827776
32.048412,4.054980790372172,0.16069305291154645
32.052992,4.1065677836602354,0.15999350633230952
32.057592,4.156233723338857,0.15939436309303776
32.06218,4.211129943540593,0.15863428529013693
32.066779999999994,4.2712564442654415,0.15770899574766672
32.07136,4.331260760276144,0.15682025438471153
32.075959999999995,4.397805486848673,0.15578964929494585
32.080552,4.465249647868849,0.15475928858896337
32.085148,4.533759569499448,0.15378555476876904
32.089732,4.606033555083412,0.1528200443200016
32.09432399999999,4.680927800744803,0.15191223221323907
32.098924,4.76318384815015,0.15092644442441758
32.103516,4.848915448631942,0.1498896559948147
32.108104,4.93056057246656,0.14900703047870104
32.112696,5.018746106863007,0.14801677628373852
32.117284,5.109752129316539,0.14695598473025837
32.12188,5.19499499094175,0.14606455067108856
32.126468,5.286123198109432,0.1450252999370882
32.13106,5.376351970829465,0.1440345584096426
32.13565199999999,5.464004624920701,0.1431031238958872
32.14024,5.550835887829805,0.14214267761864513
32.144839999999995,5.6369679442709275,0.1411489345746967
32.14942799999999,5.720113186492185,0.14018629095251633
32.15402,5.796429507274695,0.1393566886081182
32.158604,5.865139656884958,0.13864590768915108
32.163191999999995,5.93057448139844,0.1379243423048619
32.1678,5.988647504167963,0.13730187183458162
32.172388,6.046265689897794,0.13662488190940905
32.176976,6.103062484445495,0.13591754791992375
32.181572,6.149921358620442,0.1353151460349201
32.186167999999995,6.189007735460366,0.13476598824991576
32.190772,6.219544365231767,0.13427506812945725
32.195359999999994,6.245373355153525,0.1337681334213966
32.199963999999994,6.269559562711024,0.1331782372062104
32.204544,6.281109546552822,0.13272255673624558
32.209143999999995,6.2906501938879265,0.13220853454038803
32.21373199999999,6.297159885554536,0.13165191745838828
32.218332,6.298961937371504,0.13107472747122878
32.222924,6.292580796262386,0.13051030980622766
32.227528,6.282635819179567,0.1298895426528073
32.232119999999995,6.266839398371165,0.12926927038154762
32.236715999999994,6.244047729961245,0.12867597993047744
32.241299999999995,6.215404617825745,0.12807879885923287
32.245892,6.181687311698166,0.12747368161175915
32.250499999999995,6.1472707991026025,0.1268098212550845
32.255092,6.109456776696111,0.12612002300369507
32.25968,6.06428095254566,0.1254771597164802
32.264275999999995,6.010843892203606,0.12489071797101876
32.26886399999999,5.95208826844118,0.12430544185442743
32.273447999999995,5.895087372125424,0.12363887182633101
32.27804,5.833833672999719,0.12300663192779547
32.282636,5.768982236083423,0.12241407045280679
32.287223999999995,5.701843191415248,0.12187229868138291
32.291804,5.628818801204605,0.1214298427802173
32.296395999999994,5.5596365182128435,0.12091068986357884
32.300988,5.487511562449847,0.1204333370476662
32.30558,5.416286041134499,0.11993128097586228
32.310171999999994,5.344571780962568,0.11944982417045041
32.31476,5.279564257515237,0.11889500703149428
32.319368,5.214356506088244,0.1184023922117255
32.323955999999995,5.153812253062262,0.11788202463545452
32.32856,5.094866640951912,0.11740434345166535
32.333147999999994,5.04495951476667,0.11685221251260043
32.33774,4.999349332840004,0.11630763184156423
32.342324,4.95648159570491,0.11577527069165484
32.346912,4.917544248685956,0.1152820529612631
32.351507999999995,4.8874010181638186,0.1147438004027536
32.356095999999994,4.86478591554841,0.11420178468030018
32.360696,4.843158530277906,0.11375644887513844
32.365275999999994,4.826360969571189,0.11334552099629575
32.369876,4.82219963258017,0.11282981375845935
32.374464,4.827854031247761,0.11225416212827243
32.379064,4.8429134699828955,0.11159884161058375
32.38366,4.8695875132719335,0.1108661140457408
32.388251999999994,4.90415623861014,0.11012643186249267
32.392836,4.9486628843211005,0.10933851253546063
32.397431999999995,4.999798223491145,0.10857974610467017
32.402027999999994,5.0589504294245,0.1078129193718525
32.406628,5.11741366852161,0.10716568118175264
32.411216,5.182872155220241,0.1065136224022148
32.415811999999995,5.249807098120357,0.10593529545457006
32.420399999999994,5.328190319411603,0.10526520008512161
32.424983999999995,5.406617682151481,0.10467205540931764
32.429564,5.493795019939544,0.10402927234201013
32.43416,5.581915933623882,0.10343796218027532
32.438751999999994,5.6732680309563746,0.10284611310039539
32.44334,5.768095681365313,0.10224450830683582
32.447931999999994,5.861002278164811,0.10167401498355863
32.45252,5.963025404154933,0.10101672721185057
32.457116,6.067213953182787,0.10033523955784654
32.461707999999994,6.168826383581845,0.09969916388223393
32.466296,6.267740510637958,0.09910056353581642
32.470892,6.362157465455831,0.09856316556471299
32.47548,6.451422183016109,0.09806861614338395
32.480072,6.534513044156998,0.09763260433459402
32.484668,6.610408429716704,0.09726625349987116
32.489256,6.68266193603719,0.09689080685554391
32.493848,6.7433449792524005,0.09660070243848537
32.498431999999994,6.803328815999626,0.0962575146579139
32.503032,6.859382262630712,0.09587345317625676
32.507611999999995,6.911260949717368,0.09545888357920737
32.512212,6.951691358412894,0.09512385278978462
32.5168,6.989623691745139,0.09475677169447072
32.5214,7.014431062505103,0.0944678998870352
32.525996,7.031099381787607,0.09418967966859589
32.530592,7.040772453468593,0.09390528719972731
32.535183999999994,7.042961538691476,0.09364301326664864
32.53977999999999,7.043429798284581,0.09334286657224063
32.544376,7.033060703057283,0.09307357623854925
32.548972,7.015207621371884,0.09282268295321533
32.55356,6.986150630723645,0.09261926669674178
32.558156,6.952674511102685,0.09239365851106163
32.562743999999995,6.912247285328832,0.09220012299310416
32.567328,6.869077614763408,0.09197828660985105
32.571915999999995,6.820711565491759,0.09173046227402766
32.576516,6.768703636980892,0.09145929252119211
32.58110799999999,6.710766221478929,0.09120346416696867
32.585711999999994,6.655360783157133,0.0908902400156644
32.590304,6.597745780348976,0.09056024284381844
32.594891999999994,6.538454093359669,0.09022709951432886
32.599484,6.480184025532157,0.08987471050571684
32.604071999999995,6.421381077399433,0.08950215978571781
32.608664,6.356037718704882,0.08917781424025986
32.61326,6.291838163886271,0.08882850330998546
32.617847999999995,6.236222257953074,0.08839212836394227
32.622443999999994,6.186247328134055,0.08789971955661278
32.627032,6.139337255800418,0.0873626786598326
32.63163599999999,6.094103867647928,0.08681675913118166
32.636224,6.050180609534154,0.08628331494403667
32.640815999999994,6.010510154230326,0.08573298260664146
32.645408,5.981510727584127,0.08512077306593792
32.64998799999999,5.955742484586082,0.0845050961395347
32.654591999999994,5.934471413826277,0.08385719761426913
32.659172,5.916431526714626,0.08320831309225131
32.663771999999994,5.9026885838615515,0.0825912043691146
32.66836,5.8957745624472215,0.08195424494072652
32.672968,5.899531569690521,0.08126587384455845
32.67756,5.908318629477271,0.08057254544506466
32.682156,5.922912991540973,0.07987947179651413
32.68673999999999,5.938573114215096,0.07922226723762739
32.691336,5.95566555164208,0.07858120079144845
32.695924,5.979709095221953,0.07792162779540779
32.70051599999999,6.011725364116512,0.0772285615401131
32.705108,6.049793304716314,0.07652229071431405
32.709692,6.089537929497267,0.07583046827716293
32.714284,6.126628392383902,0.07520613024630877
32.71886799999999,6.164007366147459,0.0746204061090921
32.723448,6.206905131311049,0.0740171292388368
32.728044,6.259408164521846,0.07335115496210735
32.73264,6.315098239932168,0.072660983034999
32.737227999999995,6.372709368951931,0.07197372025346004
32.741828,6.432896616600491,0.07129243858737501
32.746416,6.500768078686818,0.07057342304674528
32.751008,6.570560594382585,0.06985414925471807
32.755599999999994,6.644806140867966,0.06908675306348908
32.760188,6.719173872067491,0.06832866224313411
32.764796,6.788144996581129,0.06760322415390208
32.769388,6.855561621627762,0.06688109293324654
32.773996,6.921668116635684,0.06615279779775407
32.778583999999995,6.989162784947836,0.06540206037814345
32.783188,7.056124572954776,0.06464245252171555
32.78778,7.118955742865913,0.06388516561753702
32.79237199999999,7.179455163576546,0.06312509888541734
32.796968,7.238522269534318,0.06236092489680377
32.801551999999994,7.291948399377913,0.06162926425540289
32.806144,7.3459854527922355,0.060870906814623454
32.810728,7.3997339953296395,0.06009008032984465
32.815327999999994,7.441301151191038,0.05935928468025458
32.819916,7.471586354824079,0.058678228374942056
32.82452,7.490878117105683,0.05806784139894226
32.829103999999994,7.502974403806103,0.05747267400106178
32.833696,7.510040637963074,0.05686905652574771
32.838292,7.505947104605834,0.05630074269553781
32.842884,7.492614857343826,0.05575314412384298
32.847483999999994,7.468900092301107,0.05523852094899689
32.852079999999994,7.4349249941918245,0.05474868783699341
32.856668,7.394165116092425,0.0542842662857731
32.861259999999994,7.346087577697697,0.05382713532637415
32.865852,7.288404771255761,0.05340229205258615
32.870436,7.224181554252001,0.05298898125473328
32.875024,7.154972426153418,0.05259742320256798
32.87962,7.0817990061218055,0.052219295983159573
32.884212,7.000819186938283,0.051869373624798404
32.888808,6.90921248054576,0.051555629942167044
32.8934,6.811720428610767,0.05126396397820201
32.897988,6.706299792809718,0.051007281497918736
32.902587999999994,6.590785150104877,0.05080715118433924
32.907176,6.478090995457126,0.05059090971639887
32.911772,6.363231417771644,0.050389814611720776
32.916363999999994,6.250537263123895,0.05016301559965985
32.920944,6.1326128279530305,0.04997302610465031
32.92554,6.012156415601997,0.0498172519072279
32.930119999999995,5.88929021078494,0.049692732397458694
32.93470799999999,5.7706768087778295,0.049574380998158765
32.93930399999999,5.65541677513302,0.04946274941801122
32.943895999999995,5.541711240955213,0.049361289233864736
32.948488,5.431603444568,0.049254555503475086
32.953067999999995,5.326403516010092,0.04917092133371676
32.957668,5.224190401672046,0.049127014086140425
32.962247999999995,5.1261079054298015,0.04910146897270149
32.966843999999995,5.028558289492769,0.04909898883763565
32.971436,4.9314193691468,0.049127116713417365
32.976032,4.837511632448987,0.049182639756969286
32.980628,4.747856698561121,0.0492597491157072
32.98522,4.6634761866449965,0.049347146257963714
32.98981199999999,4.584614466128905,0.049423720195816784
32.994404,4.51511364423173,0.04947200714164735
32.998988,4.443980279602031,0.04957857238062627
33.003575999999995,4.378487891086513,0.04966268677012515
33.00816,4.315571621199791,0.049752610519176434
33.012744,4.257274708265454,0.04983472428604049
33.017332,4.200654479512268,0.04992915899674376
33.021924,4.146732554102026,0.050027789906791825
33.026512,4.0908895750823415,0.05013812972305885
33.031104,4.0345578572060745,0.050295488339799466
33.0357,3.9835005613015486,0.050463837184611074
33.04028,3.931421646235229,0.050645482428015115
33.044867999999994,3.8756228086641737,0.05084552401987779
33.04948,3.823133198006789,0.050992068959570196
33.054056,3.7661464151111654,0.05114547296716575
33.05864,3.7112028705391285,0.051277166082150646
33.063232,3.6553598915194447,0.05141730614536554
33.06782,3.601804520251638,0.051510617369442624
33.072419999999994,3.5542566792404484,0.05153837897086102
33.076995999999994,3.5051543387622535,0.051544293858042614
33.081599999999995,3.45490819440812,0.05157649910957781
33.08618,3.403762615606337,0.05160603127500719
33.090776,3.3558040790040815,0.05158747417347737
33.095364,3.3068239232400334,0.05157718539992924
33.09996,3.2577215827618384,0.05157823456791226
33.104544,3.2059209389406997,0.051582608077753306
33.109136,3.1515441764907637,0.051579341712931506
33.113724,3.1012538906880014,0.051513683394345186
33.11831599999999,3.0489203665616533,0.05148213381684013
33.122904,2.996176146844239,0.05139870736383222
33.1275,2.9411001779263177,0.05127090481330187
33.132088,2.8868014587418984,0.05115847704205607
33.13668,2.831481120395686,0.051070221580409636
33.14126,2.772196490116445,0.05103203949523681
33.145852,2.7136891095707063,0.05101494808695943
33.150436,2.6503180026442914,0.05106594793982832
33.155024,2.5898895684891112,0.05107969294459543
33.15962,2.5272957112961993,0.05115137533234689
33.164207999999995,2.458938693274963,0.05127968371246285
33.1688,2.3931577938825246,0.05142116058360929
33.173392,2.327621263918377,0.05152952090442256
33.177975999999994,2.2582426267353464,0.05169427265405808
33.182576,2.185921316781081,0.051920086638526014
33.187164,2.1096357148937877,0.0522508871038645
33.191751999999994,2.0297523752159026,0.05261978330085239
33.19634799999999,1.9547327619186945,0.05288665159915494
33.200944,1.8843325055738707,0.053118883880724596
33.205552,1.810867391743666,0.05341631743525024
33.210151999999994,1.744309242617725,0.05356325335725252
33.214744,1.6767294743299903,0.05374614127191864
33.219336,1.6039194255191425,0.05418549653767467
33.223927999999994,1.5312315614224403,0.054636531615829244
33.228516,1.4634074237064147,0.055007315355274734
33.233115999999995,1.396727089866328,0.05534518607386356
33.237696,1.3360542862828568,0.05543922500982716
33.242296,1.2812668282418551,0.055379742092475405
33.24688,1.2254577510390603,0.05273762229271055
33.251472,1.1687492393886174,0.05006251867135626
33.256068,1.112817977471677,0.04737304127254582
33.260664,1.055332216087732,0.04468050760597873
33.26526,0.9987458891514348,0.04200410160759213
33.269859999999994,0.9415044971957813,0.03928458925335326
33.274452,0.8890046469066583,0.036516563656323275
33.279044,0.8403469038364179,0.03365639219443151
33.283632,0.7961863330044169,0.030756479890577934
33.288216,0.7494937849922462,0.027953401140372848
33.292804,0.7017796178182818,0.025179338395769545
33.297396,0.6511227778730826,0.022388010576842886
33.301987999999994,0.5944584076712681,0.019709841491993278
33.306576,0.5413917752600449,0.01700900567270976
33.311164,0.49625372671487855,0.014084017664333624
33.315748,0.45125788361133323,0.01112749029168962
33.320348,0.40703929024129015,0.008208495568322781
33.324935999999994,0.3662962499476927,0.00529651663491342
33.329524,0.3241650363498648,0.002600144940409415
33.334115999999995,0.28268888777139345,0.0
33.338711999999994,0.24391104253586568,0.0
33.3433,0.2097525542527228,0.0
33.347891999999995,0.17931398847431698,0.0
33.352492,0.15132935661056338,0.0
33.357096,0.12502140892795985,0.0
33.361687999999994,0.10398788321709772,0.0
33.36628,0.08283217279208992,0.0
33.370867999999994,0.06347533126237782,0.0
33.375468,0.045017924180313584,0.0
33.380044,0.0296253745836299,0.0
33.384648,0.01603169388224193,0.0
33.389239999999994,0.008078989295032406,0.0
33.39383599999999,0.0048678263743534836,0.0
33.398428,0.0025560979013224128,0.0
33.40302,0.0,0.0
33.407619999999994,0.0,0.0
33.412212,0.0,0.0
33.41681199999999,0.0,0.0
33.421403999999995,0.0,0.0
