Time,Force,Position
31.085876,0.1707640784266575,0.0
31.090472,0.15224250916848964,0.0
31.095064,0.14001698104385674,0.0
31.099647999999995,0.12946813710037386,0.0
31.10424,0.11843055430030831,0.0
31.10884,0.11213451316677335,0.0
31.11342,0.10007531120491428,0.0
31.118004,0.08891554369070304,0.0
31.1226,0.07434166445224606,0.0
31.127188,0.06234390384258695,0.0
31.131784,0.05202282741407786,0.0
31.136371999999994,0.041579566271423125,0.0
31.14096,0.03407897790000328,0.0
31.145556,0.03131993119511403,0.0
31.150136,0.02766145004257694,0.0
31.154728,0.024002968890039843,0.0
31.159316,0.02316497579459197,0.0
31.163903999999995,0.02316497579459197,0.0
31.168508,0.023235958788276445,0.0
31.173103999999995,0.023045970440352042,0.0
31.177696,0.01848805484016709,0.0
31.18228,0.01737496985944424,0.0
31.186872,0.023711969519934338,0.0
31.19146,0.041996226059876636,0.0
31.196064,0.07283866304999946,0.0
31.200652,0.10806632719595469,0.0
31.205251999999994,0.1551190635072164,0.009675044383965499
31.209836,0.2093775150313997,0.019233442064306588
31.214431999999995,0.27323417433095687,0.028456871247703967
31.21902,0.3480164713481727,0.037270992963764384
31.223616,0.4300044835783101,0.04608291316592409
31.228196,0.5222630685067498,0.05461195467645913
31.232783999999995,0.6264689103146415,0.0628398827293926
31.237372,0.7399237056590421,0.07096158150987614
31.24196,0.8632825195593076,0.07899708833320108
31.246552,0.992048179777199,0.08715350647917049
31.251144,1.134271454892919,0.09498588243261649
31.255731999999995,1.2881976174597995,0.10270430166994386
31.260324,1.451546119997796,0.11034423841558612
31.264916,1.6231558587273964,0.11794134898716341
31.269507999999995,1.8020864371122314,0.12553635781906505
31.2741,1.988121028821087,0.13290200895532217
31.278687999999995,2.168915100375091,0.14023075705213028
31.28328,2.338827675660064,0.14762072410944405
31.287876,2.5013343077524524,0.1549878776762583
31.292455999999994,2.6597442235659274,0.16231927273241498
31.297048,2.8122585542051945,0.15996299296590186
31.301644,2.9598989188320464,0.1576977003991702
31.306231999999994,3.098168145208244,0.155794002496653
31.310835999999995,3.223224126114905,0.1543978332292581
31.31542,3.3408300223803513,0.1530309822678266
31.320015999999995,3.4494754759862105,0.15195577447589126
31.324604,3.548749791341414,0.15112797081403098
31.329204,3.635465926246438,0.15054135303604066
31.333791999999995,3.711378608147948,0.15006410927237787
31.338387999999995,3.783316758484691,0.14946041967883833
31.34298,3.8396318708858734,0.14926860775776155
31.347576,3.883422704653765,0.14912784350810898
31.352156,3.919352758189378,0.14896015927662495
31.356748,3.946522597045065,0.14877649187429734
31.361352,3.9667310901161215,0.14852246811496606
31.365948,3.9745918703484002,0.14857946324029847
31.37054,3.9807318249509,0.14859574452004926
31.375136,3.987194192247208,0.1484963704220693
31.37972,3.988993061142504,0.14845089402766076
31.384308,3.9872722355127257,0.14840879574454904
31.388895999999995,3.98268678037723,0.14837430137028856
31.393488,3.976913379917167,0.14831575250999926
31.398084,3.9751042713901326,0.1481303330150752
31.402676,3.9802021275673614,0.1477297446766753
31.407264,3.9881204718016785,0.14725479228833613
31.411852,3.99538375101664,0.14677679934751567
31.416447999999995,3.999582172746222,0.14640359763169686
31.421032,4.013385862523009,0.14575926765606068
31.425619999999995,4.033119039290895,0.14501726099400533
31.430228,4.055794888830016,0.14420364536614705
31.434816,4.082723541179084,0.14330842727990767
31.439404,4.110273356730621,0.14256359988181283
31.443996,4.1373785748742025,0.14194712706998913
31.448595999999995,4.163794826181538,0.14147130063423938
31.453191999999994,4.193119848443219,0.14106599031997105
31.457792,4.230051041877147,0.14053080377365418
31.462384,4.268336506798417,0.14008315547676065
31.466975999999995,4.306954624045234,0.13974504444678024
31.471571999999995,4.35203510858836,0.13932896751983026
31.47616,4.402067602409421,0.1389216459689308
31.48076,4.458195909384352,0.13848063628930932
31.48534,4.51465686868483,0.13814611702739177
31.48994,4.571817034453293,0.13789962008503173
31.494524,4.628899156956238,0.13774818566949887
31.49912,4.687946474517252,0.1376228590674082
31.503699999999995,4.747282302955188,0.13753089476182193
31.508295999999994,4.812014738079011,0.137337780189723
31.512884,4.874093011308517,0.13727540253654444
31.51748,4.9322069926049945,0.13731579996968027
31.522056,4.9879111814354475,0.13744694818265357
31.526644,5.045536423875343,0.13753812599515056
31.531232,5.1094135660001445,0.13746342434926212
31.535824,5.172391273677299,0.1373975813263619
31.54042,5.24137651161107,0.1371873148256216
31.545012,5.310728303687276,0.13695311286030315
31.549608,5.3758272929535345,0.1367804866231225
31.554196,5.439860521609373,0.13658079625653916
31.558788,5.505770662426026,0.1362876894589254
31.563376,5.568938358451106,0.1359991673113691
31.567964,5.625643687179877,0.1357679374644654
31.57256,5.677152637202424,0.13555818363660974
31.577148,5.734214280441893,0.13515518251882155
31.58176,5.785424479955783,0.13476307788732894
31.586336,5.829883801296443,0.1343950774072729
31.590928,5.868491678911524,0.13403838014691755
31.595524,5.909831761686437,0.13353971615913315
31.600103999999995,5.941233924088596,0.13313645032699467
31.6047,5.968172816069405,0.13269428769714753
31.60928,5.992202937095868,0.13219959678728058
31.613879999999995,6.012547037434484,0.13165815524291585
31.61846,6.026262444314018,0.13112873161863148
31.623059999999995,6.026808747172641,0.1307159251186599
31.627655999999995,6.024690648505211,0.13023109584468306
31.632244,6.015166606645197,0.12975897157712002
31.636828,6.001301479077977,0.12923197749672877
31.641424,5.9838725155370565,0.12864295359517036
31.646024,5.957649435499319,0.12810679690566604
31.65062,5.92251005425062,0.12763381373973584
31.655204,5.880908305705612,0.1272031018893721
31.659792,5.839995523996848,0.12666065330624307
31.66438,5.792742559705921,0.1261501965432081
31.668968,5.729666329499772,0.12583252802810835
31.673548,5.662703850626111,0.12553009495436757
31.678135999999995,5.596596664751468,0.12515104133770608
31.68272,5.529668087694695,0.12470968460978993
31.687304,5.454644600609092,0.12436853998688085
31.6919,5.385217948189039,0.12386609810771268
31.696487999999995,5.314891861321338,0.12336212521355823
31.701076,5.2416231016824035,0.12290962821145167
31.70568,5.170031026224618,0.1224266514315805
31.710268,5.10101506939563,0.1219017463473347
31.714856,5.041648522062478,0.12124690891782203
31.719452,4.985268788949188,0.12057826168623484
31.724039999999995,4.928688827856235,0.11997594590772363
31.728635999999995,4.870764834907679,0.11947118458458023
31.733228,4.817915035951202,0.11896743758549128
31.737824,4.776146961243419,0.11834584128361511
31.742411999999995,4.743539557174889,0.11764223894935785
31.747012,4.71535128207908,0.11693866233337427
31.7516,4.687251289880529,0.11634614054318818
31.756204,4.670643717521737,0.11566855768849155
31.760791999999995,4.6673274338979995,0.11487844592575176
31.765392,4.674726320380519,0.11400964944114125
31.769976,4.684789608389092,0.11323337931861195
31.774572,4.700870666286019,0.11252541600478892
31.779152,4.72550147125147,0.11179743182814787
31.783748,4.75435117720998,0.1111721369399075
31.788336,4.788030707732277,0.11059024157850797
31.792932,4.834224277256126,0.1099222164461042
31.79752,4.882549368000818,0.10933422351395883
31.802108,4.933905414414003,0.10881677790321226
31.806695999999995,4.987637351476322,0.1083710044885697
31.811288,5.044522428921278,0.10798566803994494
31.815884,5.112489230614926,0.10752205520528092
31.820476,5.192681560433209,0.10695943185272139
31.825064,5.275860704471353,0.10642087197524583
31.829652,5.361904478015215,0.10592654343780636
31.834244,5.45207886965488,0.10543822698169229
31.838832,5.551125421056878,0.10488723808566786
31.843419999999995,5.65646801359241,0.10427713149014407
31.848032,5.757846314194914,0.1037452261727239
31.852619999999995,5.857958626207333,0.103264163505003
31.857216,5.956027699896166,0.10283569752426473
31.861808,6.056384381336876,0.10236349762544524
31.866408,6.157718540490753,0.10184367908766448
31.870999999999995,6.260685242377151,0.10129058923396786
31.875592,6.36360780281492,0.1007087340034578
31.880188,6.4663640370899165,0.100099489636493
31.884768,6.563801707944543,0.09950611177255675
31.889364,6.66426009483592,0.09883803552550399
31.893952,6.763119840811666,0.09813286755819939
31.898544,6.858826446404776,0.09739917919417596
31.903127999999995,6.955710757690714,0.09657210179840825
31.90772,7.041102649136892,0.0957891554398777
31.912316,7.113491762724935,0.0950889594999357
31.916912,7.176964575102018,0.09440525175439304
31.921492,7.227923348477549,0.09376190277922958
31.926088,7.269188570908616,0.093138319537685
31.930688,7.298061939052277,0.09255039487378028
31.93528,7.320306613736855,0.09193863870502064
31.93986,7.344628428561909,0.09122047406778379
31.944448,7.364364788251467,0.09045104744428376
31.94904,7.379515692805531,0.08963040122845338
31.953636,7.388692968919868,0.08878828584459612
31.958224,7.386788520785511,0.08797892787304522
31.96282,7.370981860345373,0.08722106805874051
31.967408,7.34433784508483,0.08647860768139283
31.971996,7.309432593632684,0.08574103457226906
31.976596,7.267698420741793,0.08501655493557317
31.981176,7.215659773335711,0.08431673840910286
31.985752,7.159857061976261,0.08359315095047971
31.990348,7.095060006140334,0.08290463861507155
31.994936,7.01669339032417,0.08232269451507165
31.999544,6.936527905612712,0.08173912698114587
32.004132,6.854152856414892,0.08113170500869524
32.008724,6.774842664702454,0.08047860147358574
32.01332,6.699374580208898,0.07978158800256657
32.017911999999995,6.62174107267761,0.07910135372724833
32.022507999999995,6.544640445451532,0.07842501574675204
32.027096,6.46680670994058,0.07777900402829875
32.031696,6.381210716726345,0.07723553566298057
32.036283999999995,6.294637245798945,0.07673657759627639
32.040884,6.207863546891881,0.07628468153942078
32.045472,6.123832292776389,0.07585548262943478
32.050072,6.045363971509558,0.07543262728869478
32.054655999999994,5.977200124757919,0.07498233392700915
32.059248,5.916275895036091,0.07453891417334732
32.063835999999995,5.8616918478964255,0.07410882347171581
32.068428,5.814469602500716,0.0736821501752537
32.07302,5.773220985544734,0.0732934782362878
32.077611999999995,5.734103889809596,0.07297450738542628
32.0822,5.708644636951949,0.07263700829874326
32.086788,5.696554716094874,0.07224818989057652
32.091372,5.692848216143547,0.07185850479559788
32.095972,5.698302386831474,0.07147243936807887
32.100556,5.7090751209397705,0.07112425993359037
32.105148,5.726432407058522,0.07078882102059862
32.109744,5.754749232711822,0.07045567302767193
32.114332,5.791693848699162,0.07011592056298181
32.118932,5.836489005287043,0.06976710476730552
32.123512,5.889012517761316,0.06941114134595247
32.128104,5.94848713638848,0.06904876492444394
32.1327,6.014013426720889,0.068684692768444
32.137288,6.083914704577391,0.06832110246261601
32.141896,6.16395413078631,0.06792397733491827
32.146484,6.245548056462235,0.06754473255524387
32.151072,6.330984089357042,0.06715162462064786
32.155656,6.420384414184877,0.06673742773197891
32.160256,6.510029108441005,0.06632118135736802
32.164852,6.604904083220244,0.06586206365571196
32.169428,6.708074196007979,0.065335873931433
32.174028,6.805070452376323,0.06483049423718559
32.178616,6.8987133403823675,0.06433317897154592
32.183215999999994,6.9920677175114925,0.06381907535247143
32.1878,7.085133583763699,0.06328832838418232
32.192384,7.175212635796041,0.06274422839954918
32.19698,7.263981557789671,0.062193505196941896
32.201572,7.3491086005440796,0.06162121779216814
32.20616,7.427162352431453,0.061064366549205544
32.210756,7.496343944556494,0.060523445433546715
32.215348,7.562128026870606,0.05994346610615122
32.21994,7.621083187745972,0.05936262011039307
32.224532,7.673331611896738,0.05877478022136763
32.229116,7.7177294954469655,0.058191557588907414
32.233704,7.747858612548973,0.057630214688176966
32.238304,7.771280992926379,0.057057320644021005
32.242892,7.784931779093805,0.056492932769530546
32.247476,7.789832590213044,0.05592948246272096
32.252067999999994,7.78639412187516,0.05538530493843288
32.256648,7.770119201841916,0.05486486864116384
32.261244,7.737165722894427,0.054380990577046595
32.265832,7.6972611377940465,0.05388625070367496
32.270419999999994,7.650038892398338,0.05339823456550934
32.275016,7.59243412922192,0.05293608422702405
32.279604,7.524324663550646,0.05250510900219952
32.284192,7.446976483974604,0.05208397306275966
32.288788,7.356303113846619,0.05169926029849027
32.293375999999995,7.25369272647092,0.051321579076565385
32.297971999999994,7.142620874923952,0.050958473625281775
32.30256,7.030649588929337,0.050586280653870476
32.307164,6.909605915192726,0.050255839929301584
32.311744,6.784842318951378,0.04992130611911794
32.316344,6.655992246062855,0.04960302118102981
32.320924,6.525098934850745,0.04928696849810555
32.325523999999994,6.387831539239584,0.04901739534196975
32.330116,6.2444344286576605,0.04878060937213406
32.334708,6.098138786753131,0.04860403210959202
32.339292,5.950088417401934,0.048468556057139615
32.343888,5.797052136955917,0.04836231404987923
32.348476,5.646347605710403,0.04827149110541584
32.353068,5.501694746170134,0.04818580650075228
32.357656,5.359906516135584,0.04814304280495941
32.362252,5.220327850587392,0.04812842079019168
32.366844,5.083980368687355,0.048136534005537926
32.371432,4.948287951806676,0.04816297899621132
32.37602,4.818525021917094,0.04820858852621111
32.380612,4.69607975232284,0.04824298696610198
32.385208,4.5811184691866895,0.0483162778674893
32.389788,4.4753958999553065,0.04836682069982984
32.394388,4.371105645476784,0.0484401047095178
32.398976,4.2769535393506795,0.048490493435808135
32.403568,4.1868098666062314,0.04857636163052078
32.408164,4.102062800547669,0.048659573954384215
32.412752,4.021690722013202,0.04874830426968937
32.417359999999995,3.957342137373622,0.048779720074992955
32.421948,3.902232266638812,0.04879254847554577
32.426556,3.8541515453224107,0.048747386999206714
32.431144,3.8097907465107466,0.04869248323242461
32.435731999999994,3.7786329535368806,0.04858435196696183
32.440328,3.74620917197293,0.04850819243163231
32.444928,3.711742152085392,0.0484525111377727
32.44952,3.6785411207879393,0.04836327673994166
32.454111999999995,3.647383327814073,0.048250065685806975
32.458715999999995,3.618268773163794,0.04811220106285796
32.463304,3.5976156826847827,0.04793744420235979
32.4679,3.573242669701034,0.04777143241848621
32.472491999999995,3.5486252872889947,0.04762695784153218
32.477087999999995,3.525151708752894,0.047457078168631504
32.481683999999994,3.4996348918932063,0.04730815670487443
32.48628,3.4742402597476647,0.04714344760544823
32.490876,3.4430824667737987,0.04701270236187173
32.495472,3.4055064479522525,0.046893777735433705
32.500052,3.3611456491405884,0.04682874964563425
32.504648,3.30934500531945,0.04678992843800613
32.509248,3.246384593984101,0.046785274761613975
32.513844,3.180848064019953,0.04675636308195716
32.518432,3.1124910459987167,0.04673066353824591
32.523028,3.039392486310949,0.04673984830358548
32.527615999999995,2.957710277737769,0.04680082176848033
32.532212,2.8815027191159928,0.04672711563038444
32.5368,2.802474672437127,0.04667733170925055
32.541396,2.7236909951865527,0.04657051330210025
32.545988,2.6393885265359462,0.04646361192360905
32.55058,2.55226556982825,0.04636054477601764
32.555172,2.455781714501639,0.04629219690364099
32.559756,2.3622405319462625,0.04617904107688013
32.564347999999995,2.267022665209737,0.04604103187110041
32.568936,2.167185441520825,0.04589765085186812
32.573524,2.0655493489366177,0.04573745742839971
32.578115999999994,1.9589273452575882,0.045681239538111304
32.582708,1.8524275262927048,0.045598240258445215
32.587308,1.7524681178896477,0.045484033544100244
32.591904,1.6564730014196185,0.043112573892821915
32.596492,1.5657523069213315,0.04072643912353413
32.601088,1.4768304813183397,0.03834097708105449
32.60568,1.3858654173917613,0.0359911444986531
32.610276,1.294655984036891,0.033661008448243095
32.614864,1.2103535153862843,0.0312964163870593
32.619468,1.1298931539545605,0.0289133301045154
32.624056,1.0449797617332253,0.026632287552654683
32.628656,0.9676283992355101,0.024316481998147146
32.63324,0.8888888634335643,0.0220704092530903
32.637828,0.8153015648892143,0.019837191282977906
32.642412,0.7405704624689252,0.017613165431145505
32.647003999999995,0.6731570203439645,0.015378136669482885
32.651612,0.6054992087907126,0.013178418689362092
32.656203999999995,0.5415613197421976,0.01099213217399395
32.660796,0.48289785266542407,0.008824562925789677
32.665388,0.4297531769886832,0.006675306048484254
32.669968,0.38531433491150147,0.004436978392067271
32.674552,0.34422886119661983,0.002214788864329076
32.679144,0.30788492914826876,0.0
32.683727999999995,0.274361485157007,0.0
32.688323999999994,0.2439028986511257,0.0
32.692916,0.217819299669338,0.0
32.697508,0.19611068821164387,0.0
32.702092,0.17746693423933038,0.0
32.706684,0.1555139533533449,0.0
32.711276,0.13421603748671593,0.0
32.715864,0.11676022883896973,0.0
32.720476,0.10008166992472574,0.0
32.725064,0.08814465267701234,0.0
32.72966,0.08209298097176873,0.0
32.734248,0.0837255237042906,0.0
32.738836,0.08445863198916462,0.0
32.743436,0.08813441304527354,0.0
32.748024,0.09066639022544329,0.0
32.752627999999994,0.09139949851031731,0.0
