Time,Force,Position
33.900288,0.08155667470200677,0.0
33.904875999999994,0.0917105267983621,0.0
33.909468,0.10131579484556898,0.0
33.914055999999995,0.1144123197131592,0.0
33.918644,0.12738665986660375,0.0
33.92324,0.14138261918184183,0.0
33.927828,0.1524202019819074,0.0
33.932424,0.16280271976261643,0.0
33.93702,0.17420685670511898,0.0
33.941624,0.18458937448582804,0.0
33.9462,0.19484970755239145,0.0
33.950799999999994,0.2011457486859264,0.0
33.95538,0.21050664730484198,0.0
33.959984,0.21831304645675312,0.0
33.964575999999994,0.2228882619605099,0.0
33.969168,0.2255424238548253,0.0
33.973755999999995,0.23600298490105187,0.0
33.978351999999994,0.24928403400436766,0.0
33.982955999999994,0.2570462917076507,0.0
33.987551999999994,0.2599448230302574,0.0
33.99214,0.26080011602927716,0.0
33.996736,0.25769111709526843,0.0
34.001324,0.2526610645518183,0.0
34.00592,0.24493270866542463,0.0
34.010507999999994,0.23810378722667885,0.0
34.015103999999994,0.22910944275020034,0.0
34.019692,0.21987072884543046,0.0
34.024276,0.20666772300763217,0.0
34.028872,0.19514140135098396,0.0
34.033448,0.18349289498019003,0.0
34.038044,0.17208875803768747,0.0
34.042628,0.16068462109518492,0.0
34.047208,0.14903611472439096,0.0
34.0518,0.13894210782060143,0.0
34.056388,0.13040260038381624,0.0
34.060987999999995,0.12084147378523752,0.0
34.06558,0.10653880552012819,0.0
34.070172,0.09168755320587041,0.0
34.074763999999995,0.07875735450105402,0.0
34.079359999999994,0.06864764385332683,0.0
34.083952,0.05955955236739318,0.0
34.088528,0.052514699205046575,0.0
34.093128,0.049982722024876844,0.0
34.097708,0.04720637541641577,0.0
34.102307999999994,0.04287552934095033,0.0
34.106891999999995,0.04058792158907194,0.0
34.111484,0.0403435521607806,0.0
34.116076,0.03985481330419792,0.0
34.120672,0.036119187055523215,0.0
34.125271999999995,0.03340517996864204,0.0
34.129867999999995,0.029547369005821677,0.0
34.134456,0.026711177204794833,0.0
34.139052,0.023997170117913656,0.0
34.14364,0.023484769076180387,0.0
34.148228,0.027724149332716504,0.0
34.152815999999994,0.04227824373618293,0.0
34.157408,0.06841304087666453,0.0
34.162004,0.10810943955616846,0.0
34.166588,0.16028597542033543,0.008423222795317093
34.171184,0.22199997569793053,0.016763290532829017
34.175771999999995,0.2895315178842167,0.025397359002147055
34.180367999999994,0.3640244058551331,0.03412306632380205
34.184956,0.44317532811486376,0.04299489168688232
34.189544,0.5280216075691399,0.052124367075369986
34.194156,0.6212615475609048,0.06128703139681193
34.198744,0.7269816247373329,0.07005907462903425
34.20334,0.8376198093748042,0.07898289939697539
34.207924,0.9609825006252297,0.0877571770641702
34.21252,1.0950863053575883,0.09651105103229213
34.217112,1.244124181189262,0.10497922654738154
34.221703999999995,1.4042540209013687,0.11337989972541877
34.226299999999995,1.5737549988641293,0.12168336887013781
34.230884,1.7495181161435358,0.129955089637169
34.235484,1.9307299399986706,0.13812263229400604
34.240072,2.1095658732046703,0.1463010864029079
34.244671999999994,2.2836058836637725,0.1543435075033009
34.249264,2.4474975061387183,0.16244433025610414
34.253864,2.5980095569813533,0.17058915120525583
34.25846,2.7373516006780383,0.17031515652036489
34.26306,2.8703873636094497,0.17006115347272205
34.26764,3.0008367682803243,0.1694520480126451
34.272236,3.1282110758340793,0.16869483590006676
34.276824,3.2515667103744392,0.16772089624722142
34.28142,3.375645213567934,0.16632562724074376
34.286007999999995,3.4963601087673903,0.1648114134564616
34.290603999999995,3.6021850743161594,0.16377366625865183
34.295192,3.7081219849473355,0.162468979615288
34.299775999999994,3.8084076798325937,0.16123721627133666
34.304364,3.903897451970955,0.159925108838658
34.308955999999995,3.985108218029358,0.15890253298905538
34.313551999999994,4.059968561873859,0.15782781913546082
34.318132,4.129177689972442,0.15676476345662185
34.322731999999995,4.195966785973263,0.15563950971233192
34.327324,4.256249373229147,0.15458992940585137
34.331916,4.313623189530685,0.15349660767081308
34.336499999999994,4.3627799110892465,0.15262059762906266
34.341088,4.416389663437419,0.15158307535713628
34.345684,4.47175414323226,0.15044109810958078
34.350272,4.525275612683176,0.14927910176584458
34.354876,4.5729897798571395,0.14822038516186523
34.359468,4.6187387519730345,0.1471729684213762
34.364068,4.661334583706292,0.1461169209902891
34.368672,4.699389101752683,0.1451105066775192
34.373256,4.728815829465032,0.14428518815213442
34.37786,4.755377927671663,0.14348524456140987
34.382439999999995,4.779441950515014,0.1426391645593623
34.38704,4.796510725756846,0.14187547945480308
34.391628,4.807850241987243,0.14113308362129962
34.396224,4.8113392176171015,0.1405367951425342
34.400808,4.8101646948459456,0.13997793288814137
34.405392,4.802938500369546,0.139527768479837
34.409976,4.79002718833034,0.13914649809807064
34.414568,4.772085823747684,0.13883617280495553
34.419155999999994,4.749769471640935,0.13860268195286818
34.423748,4.727575304248332,0.13835438121132212
34.428335999999994,4.709834167645339,0.13795373444029013
34.43292,4.685796989908811,0.13767392845460594
34.437507999999994,4.656118836058106,0.13752155769937785
34.442091999999995,4.622720759702663,0.13745446910390746
34.446684,4.591488106384952,0.13731642137352582
34.451268,4.558700953600237,0.13718470767716198
34.455859999999994,4.523626193063643,0.13713111440917797
34.460448,4.489983747279909,0.13707333102013308
34.465039999999995,4.457240735943823,0.13699848168606335
34.46964,4.4205334326747066,0.13702939759111962
34.474216,4.3926982891679245,0.13688724698669216
34.478828,4.3643744068045605,0.13679016739615105
34.483416,4.336094665889823,0.13675464527329165
34.488015999999995,4.313455901089265,0.13658652690003636
34.492591999999995,4.294947754384509,0.1363647270126422
34.497187999999994,4.274929249661377,0.136221860628302
34.501783999999994,4.259329873910966,0.13606496487157313
34.506384,4.244796258770977,0.13594353600396789
34.510988,4.236436500050377,0.13570677234977785
34.515564,4.2295090560826365,0.13546991139530823
34.520168,4.220582515239936,0.13535842350600105
34.524747999999995,4.216563842226542,0.13518816958427454
34.529343999999995,4.223094013156628,0.1348316488058903
34.533932,4.241194647191993,0.13426591884832073
34.538532,4.263181529894867,0.13368106074922048
34.543124,4.2888102918369615,0.133102005974149
34.54772,4.3193469216083615,0.13247331765521883
34.552312,4.350949311990182,0.1318836930733946
34.556904,4.386071396897076,0.13130374047090587
34.561496,4.426223534347421,0.13065694450404186
34.566092,4.465764748227038,0.1300950413449327
34.570684,4.511890514117108,0.1294708006478894
34.575284,4.558959855903454,0.12888710505809256
34.579871999999995,4.607872208033724,0.12835462402027792
34.584464,4.66054862411736,0.12781901855363306
34.589051999999995,4.720298331068032,0.12717176419567558
34.593652,4.77992585330456,0.1265466023419885
34.598236,4.842007309455738,0.12590053342276927
34.602827999999995,4.905276710931486,0.12529852123422544
34.607423999999995,4.970633492179448,0.1247219545606634
34.612012,5.042530683989236,0.124031444984711
34.616603999999995,5.115327310246672,0.12334633429154847
34.62119199999999,5.183260210123432,0.12278472772294231
34.625784,5.246329383619515,0.12234734448951262
34.630368,5.307477503506155,0.12195557431671378
34.634955999999995,5.365027885602206,0.12161861966124426
34.639543999999994,5.419224899335958,0.12131827661201612
34.644132,5.473255586906935,0.12097618212068839
34.64872,5.527242133029283,0.12058591230425796
34.653324,5.578652560522833,0.12022556852726933
34.657916,5.623111881863493,0.11994551348701873
34.662507999999995,5.658821228155965,0.11976752759261906
34.667095999999994,5.695752421589894,0.11949721718827744
34.671696,5.72802011662281,0.11924781496018945
34.676283999999995,5.757134671273089,0.11896223864117897
34.680879999999995,5.786327269188885,0.11862771062757216
34.685468,5.811755803151317,0.11829676695811187
34.690068,5.836362945931618,0.11792196766898404
34.69466,5.854874275558047,0.11755794335505217
34.699251999999994,5.868189226478253,0.11719384156751353
34.703835999999995,5.875041810102149,0.1168668260165653
34.708428,5.874288222553797,0.11660006773355468
34.71302,5.868993321318579,0.11633530567173075
34.717611999999995,5.857113868072905,0.11611156735446287
34.722199999999994,5.842614154749806,0.11585986164505223
34.726792,5.830235723015811,0.11550984647260516
34.731379999999994,5.8157699115096,0.11514615289067265
34.735964,5.798195101069382,0.11478750502072442
34.740556,5.776611857247506,0.11444387635932908
34.745135999999995,5.754862287262857,0.11405705692220552
34.749731999999995,5.735644694458378,0.11359465904620952
34.754316,5.72202393631945,0.11299920224028956
34.758903999999994,5.7081146673036,0.11236990039774547
34.7635,5.694571952430189,0.11171227824598885
34.768088,5.679108183947336,0.11108076272152768
34.772696,5.652362463236125,0.11059879085594129
34.777283999999995,5.62520604693385,0.11008690747618287
34.781887999999995,5.59367464310748,0.10961059710265429
34.78648,5.563042673728759,0.10911950836524084
34.791076,5.52959021629295,0.10866162529023586
34.795672,5.497037193304787,0.10818911817064193
34.800272,5.46742684308786,0.10766422248274161
34.804876,5.439737546480373,0.10710509027548071
34.809452,5.416911976253565,0.10646390145616319
34.814048,5.393597667170172,0.10585479738606628
34.818636,5.365952512011313,0.10533599757368049
34.823235999999994,5.33961748689117,0.10483078169057237
34.827824,5.318190329600329,0.10430147389525439
34.832424,5.299994355957643,0.10375806389099715
34.837019999999995,5.282697816762605,0.10320273837661702
34.84162,5.2659341578727785,0.10266328942364156
34.8462,5.247660140964574,0.1021770609820181
34.850795999999995,5.228941526648416,0.10178011473507237
34.855396,5.209367619333237,0.10144452086891521
34.859987999999994,5.1925361568096315,0.10113567402048386
34.86458,5.186375722943654,0.10072664177307648
34.869172,5.185656037212192,0.1003194100369982
34.873752,5.1902549149011,0.09992233463428916
34.878344,5.200661094866961,0.09950382991582453
34.882935999999994,5.22059449961451,0.09902023603609046
34.887532,5.242370914705981,0.09857588212564296
34.892123999999995,5.270609697093764,0.09812391243614473
34.896711999999994,5.3044114123302055,0.09767281563868889
34.901304,5.341732822091722,0.09725972701953137
34.905891999999994,5.388703641349075,0.09678713946614566
34.910484,5.444180066226322,0.0962763076779686
34.915063999999994,5.503009859465869,0.09575452245380817
34.919652,5.561350913848833,0.09527625011375469
34.924248,5.623578216899309,0.09481387597240876
34.928836,5.689447399189004,0.09438329495811497
34.933423999999995,5.757037407108477,0.0939992368895017
34.938019999999995,5.829290913428963,0.09362974819334807
34.942608,5.904364907806539,0.09323475937061776
34.947199999999995,5.984835508870002,0.09280104838129855
34.951788,6.067471532971196,0.09233763313316204
34.956384,6.15268367570119,0.09188064972875684
34.960964,6.237651449002893,0.09144958811186073
34.965564,6.323640841466388,0.09101147110470975
34.970147999999995,6.408608614768091,0.09060188267303296
34.974748,6.491533149746203,0.09023350980191014
34.979332,6.577400357495554,0.08983919754005482
34.983928,6.661590881063754,0.08946158651655249
34.988524,6.742183666841362,0.08911276817040284
34.99312,6.8187680192373135,0.08876978383241242
34.997716,6.889300699928022,0.08846498640004458
35.002316,6.95594713195122,0.08816180374588956
35.006892,7.023981737278648,0.08783388487190735
35.011475999999995,7.0889073436720675,0.08750145218311291
35.016056,7.150723951131478,0.08716972569810305
35.020647999999994,7.2085321252092305,0.0868407407948324
35.025228,7.264741658371353,0.08646894797955541
35.029819999999994,7.312323401199432,0.08612698452620267
35.034403999999995,7.357817764255296,0.08577217294075175
35.038979999999995,7.39942587864365,0.08541393969981079
35.043568,7.436903374936202,0.08506410560452089
35.048171999999994,7.463954211999416,0.08475296959901547
35.05276,7.483643247318674,0.08444476523433389
35.057351999999995,7.502388706741656,0.0841052432044947
35.06194,7.514183060011746,0.08378914641617406
35.06652,7.525156022099706,0.0834352055073535
35.071116,7.528400628301272,0.08310211622014832
35.075692,7.525060682492384,0.082772191205704
35.080288,7.518733922463633,0.08242725713667723
35.084868,7.512651531863173,0.08206986171121279
35.089468,7.500395284843324,0.0817342416710693
35.094055999999995,7.480943562242292,0.081430215707608
35.098656,7.455440167936015,0.08114155571345401
35.103247999999994,7.429281708610382,0.08084275437443832
35.10784,7.398337566169592,0.08053457572883413
35.11242,7.368781597033031,0.08019601518084774
35.117011999999995,7.338326193448823,0.07985949651027688
35.121616,7.31334543981602,0.07945155745712457
35.126208,7.282723710069036,0.07907660991307233
35.130796,7.245561569760229,0.07873767435043048
35.135388,7.207255625575481,0.07841290690677918
35.139979999999994,7.170626365571884,0.07808380661246282
35.144575999999994,7.1392715275400285,0.07773546984677117
35.149164,7.101131909518055,0.0774365755449447
35.153755999999994,7.06887763703855,0.07708701492484965
35.158348,7.02869478069299,0.07680257674720954
35.162935999999995,6.993497835442251,0.0764706224182813
35.167536,6.9636974968773995,0.07611421444816671
35.172112,6.941337003322022,0.07571594998062871
35.176703999999994,6.916033836995409,0.07533876655028703
35.1813,6.893306789297594,0.07495434431452419
35.185888,6.876875782733315,0.07454306505875902
35.190484,6.865474828712484,0.07413030103322021
35.195072,6.857671612482246,0.07370400076910165
35.199676,6.855431329100669,0.07329296513245322
35.204272,6.850903437967213,0.07291438353488139
35.208859999999994,6.848052231014908,0.07253610716575636
35.213463999999995,6.845245165511232,0.07220103453815113
35.218064,6.851676813912324,0.07182361316743659
35.222668,6.870700544580486,0.07140511601719587
35.227259999999994,6.898185739419916,0.07094645371320693
35.231856,6.932988594554675,0.07046167020169364
35.236439999999995,6.9695903185847285,0.06997660161738083
35.24104,7.015186387091261,0.06946545862066053
35.245619999999995,7.0610709664747136,0.06898986038521591
35.250224,7.116971509496437,0.06847926992524447
35.254811999999994,7.174837247576232,0.06800631699894052
35.259408,7.232991496532945,0.06756796331792014
35.264,7.28885813773778,0.06716856524374085
35.268595999999995,7.352042439237943,0.06674826804810162
35.273184,7.425609258518815,0.06628867775752419
35.27778,7.501874381142631,0.06583014156005083
35.282368,7.5792833076423864,0.06536706017253108
35.286964,7.659268352770939,0.06491340108679387
35.291548,7.7385983328801355,0.06445663961812093
35.296144,7.821648235494068,0.06399101205868919
35.300732,7.908418060612738,0.06352125241678905
35.305328,7.999396547092729,0.06302688526514699
35.309912,8.088698349391569,0.0625429237065766
35.314499999999995,8.174891152756402,0.06205644339004373
35.319095999999995,8.253766295825907,0.0615978830817381
35.323684,8.330964754714259,0.0611461819738873
35.328275999999995,8.411228071087994,0.06068509304693746
35.332863999999994,8.488382388527718,0.06021682732339313
35.337452,8.564348760642876,0.05973156442578051
35.34206,8.635285080214583,0.059244540054619155
35.346647999999995,8.70041409750934,0.058749021695159664
35.351248,8.763577919746027,0.058231059774360674
35.35583999999999,8.82567598137229,0.05769197078609031
35.360428,8.880045687112162,0.05715168418914893
35.365019999999994,8.920679506709021,0.05664142230282704
35.36962,8.956283273762432,0.0561255204813672
35.374212,8.984813749948806,0.05561382340160594
35.378808,9.004594251086994,0.05510197085342757
35.383404,9.02024413412938,0.05458014529733589
35.38798,9.028820726304726,0.05405894686746494
35.392584,9.027625724270091,0.053540359753848465
35.39716,9.01155103221651,0.05304907541606725
35.401764,8.987137060705805,0.052570710875497056
35.406347999999994,8.95528324418563,0.052104268162201386
35.41094399999999,8.918932255427213,0.05163575967742017
35.415532,8.872809672458816,0.05116283216430113
35.420123999999994,8.812706833919117,0.050711644404014634
35.424712,8.74594140010345,0.050272475461828975
35.429303999999995,8.66572859102169,0.04986506358188336
35.433892,8.577831567502164,0.04947303918031553
35.43848,8.485070817601962,0.04908948777348327
35.443056,8.385647472425788,0.04871480702633922
35.447647999999994,8.275230685898178,0.04838064476245697
35.45224,8.162404106904543,0.04806478117254151
35.45684,8.048433724034968,0.0477508311558761
35.461431999999995,7.92923306064228,0.047461785589931485
35.46602,7.804924301440625,0.04719172351080056
35.470612,7.67616251144936,0.04695366337337219
35.475192,7.542170440934982,0.04674052909428685
35.47978,7.406790197116372,0.046543406085610826
35.484376,7.26695692250815,0.04637975996700494
35.488964,7.129577581814583,0.04622242847734972
35.493551999999994,6.986967960597901,0.04609766600050884
35.498144,6.8402718627340455,0.04598967399301711
35.502744,6.693209210727753,0.04589196077894962
35.507335999999995,6.546312884884233,0.045825573484201756
35.511931999999995,6.399827254631779,0.045783979174042436
35.516527999999994,6.252975070236888,0.045756949518015524
35.521116,6.118304272518001,0.04570132769915033
35.525716,5.988130647037353,0.04564239063631838
35.530292,5.861310389919006,0.045594319150258245
35.534896,5.733101959496427,0.045569852083769374
35.539488,5.6084912668644415,0.04554825186088101
35.544084,5.483514020090018,0.045550055049768716
35.548676,5.357026415297218,0.045591744303580706
35.553268,5.230538810504419,0.045633217466730325
35.557855999999994,5.107526758788066,0.04568627198224935
35.562452,4.9895006181665345,0.04570718509850004
35.56704,4.873151161726153,0.04573887536272711
35.571636,4.7577011397334195,0.0457705448894947
35.576224,4.651734201073747,0.04577002669964401
35.58082,4.549487184918811,0.04575921546829003
35.585407999999994,4.4578670559728755,0.045696940810834245
35.589996,4.371643533712828,0.04563534249119268
35.594587999999995,4.2858307070438455,0.04561427368176484
35.599176,4.2028383684319515,0.04558517988151898
35.603767999999995,4.122788702591293,0.04553901390271398
35.60836,4.037875310369957,0.04552485463501086
35.612952,3.945155518996711,0.045557818757027885
35.61754,3.851291923747526,0.04561241271685788
35.622128,3.7573061437841946,0.045681406109891104
35.626735999999994,3.665119232716159,0.04575800312007289
35.631316,3.574975559971711,0.045811740268439635
35.635904,3.4890405485885827,0.04580226513529983
35.640496,3.409890317195572,0.045750908840196475
35.645084,3.3352372580408005,0.045700312878989555
35.64968,3.26082856831432,0.04562017594748102
35.654267999999995,3.1843766402642526,0.04555536603385462
35.658863999999994,3.108046896928331,0.04547488914881977
35.663452,3.030939903858907,0.045369573677703695
35.668052,2.9471703155135107,0.04529381610688412
35.672628,2.859558619949232,0.045239447013698766
35.677232,2.7643848946613336,0.04520373180140645
35.681816,2.662670758811609,0.04519869716104234
35.686408,2.557603254599584,0.045172170384871674
35.690996,2.451758500654057,0.04510803039707574
35.695584,2.3451364969750275,0.04499821196145187
35.70018,2.2443998388384685,0.0448050305687406
35.704772,2.1464836687589983,0.04460222146986784
35.70936,2.048689683393674,0.04436201976231882
35.713956,1.951017882742495,0.044084917738785
35.718536,1.8552671357007577,0.043766942857256685
35.723128,1.7574731503354335,0.041442117607987536
35.727715999999994,1.6555926883229348,0.03916478590405492
35.732312,1.5481934349104034,0.03690382009646944
35.736904,1.4352753900978392,0.034644737983948744
35.741491999999994,1.324933463914073,0.03240687538737904
35.746084,1.2171676563591047,0.030176137318078992
35.750664,1.1141433904706668,0.027953182713361484
35.755256,1.0153719273921773,0.025757347562676156
35.759851999999995,0.9192987676566309,0.023554001721448805
35.76444,0.8298882031970567,0.021342167264839958
35.769036,0.7466514951568717,0.01914507275026523
35.773624,0.67367512018325,0.01691973729112763
35.778212,0.6069947863431633,0.014685400609795056
