Time,Force,Position
37.04635200000001,0.606988686281918,0.012617487006804234
37.050984,0.5476260127371599,0.010380927058864191
37.055612,0.4913723381264105,0.008219206776400147
37.060248,0.44039308548740236,0.006079639311841797
37.064888,0.39456607010599015,0.004011621691942924
37.06952000000001,0.3551572805722584,0.001989566539364145
37.074152,0.318568979095616,0.0
37.07878,0.2912193915237435,0.0
37.08341999999999,0.26914422592361237,0.0
37.088056,0.25246566700936834,0.0
37.09270000000001,0.24155026892344847,0.0
37.09733600000001,0.2350098583616222,0.0
37.10197600000001,0.22757001335214805,0.0
37.106604,0.21669875671485628,0.0
37.11125200000001,0.20852580342050814,0.0
37.11588800000001,0.203339664346023,0.0
37.12052399999999,0.19652098253901598,0.0
37.125168,0.191745539055596,0.0
37.129796,0.1924108437066913,0.0
37.134432,0.1983608099612668,0.0
37.139072,0.22582939932561202,0.0
37.1437,0.26329029014307864,0.007452064010383266
37.14834400000001,0.31315327487969086,0.015038476618424196
37.15298799999999,0.3772172224307443,0.022539450134500677
37.15761599999999,0.45417200275752584,0.03001682195302015
37.162248000000005,0.5423850731275137,0.03759170185478153
37.16689199999999,0.641856433540708,0.04528820934855284
37.171524000000005,0.7529526381395455,0.052851791287439616
37.17616000000001,0.8745298830480872,0.06040712360531336
37.180796000000015,1.0058109185328308,0.06798224475108171
37.18542400000001,1.146673559879631,0.07560440629787614
37.19006400000001,1.2980952848016523,0.08322985148660705
37.19469599999999,1.4603646041758152,0.09093233929970389
37.199348000000015,1.6394890482587345,0.09856082529643344
37.20398800000001,1.8284394676320015,0.10618562457960036
37.20862,2.0270495361328424,0.11380351363305644
37.213256,2.236463057637196,0.12142405501105882
37.21788799999999,2.453859544087974,0.12906415270569613
37.22251600000001,2.6822155700733,0.13657329058263792
37.22715199999999,2.9168573975604235,0.14390310859574026
37.231780000000015,3.1356996213174706,0.15117556031698448
37.23641599999999,3.340663294953887,0.15098400840664464
37.241052,3.53342510265082,0.15060026750652955
37.245688,3.7064230146846517,0.15037102919915005
37.250324000000006,3.8659972136375433,0.15017937565700484
37.254964,4.013002992508516,0.149870892044035
37.259612,4.15193752353581,0.1493496595449138
37.26425599999999,4.272173919510421,0.14902873920193052
37.26889600000001,4.375466907879021,0.14874015703208712
37.27352400000001,4.462882249252029,0.14850319024185982
37.27817200000001,4.53826205084833,0.14821091778808712
37.28281200000001,4.606514180497225,0.14781206247216694
37.287452,4.669804061236449,0.14721773119681442
37.292096000000015,4.71979241360888,0.1466637144576634
37.29673600000001,4.758522475938104,0.14606862939549603
37.30136400000001,4.783706640472244,0.1455109113612776
37.30600000000001,4.7998420794495384,0.14489913371895402
37.310632,4.812081030127583,0.14414910509488782
37.31526,4.810329485602588,0.14354167238829613
37.31990400000001,4.798273466562399,0.1431083990771179
37.324532000000005,4.786750327827424,0.14268846369761118
37.32916800000001,4.776537319131162,0.14227516929951328
37.33381600000001,4.765835571578318,0.14190335370623294
37.33846399999999,4.763761614359515,0.14139123590860406
37.343108,4.766062644664805,0.1408063073842867
37.347744000000006,4.77045105474231,0.1402249434575757
37.352372,4.771652422620289,0.13973976008423178
37.357020000000006,4.779927081365307,0.13912985367116884
37.36166399999999,4.7936424882448385,0.1384757769953522
37.3663,4.814431185991407,0.13769484875809562
37.37094400000001,4.838206697957838,0.1369029590078835
37.37558799999999,4.8575291791346595,0.1362599879042647
37.38021599999999,4.875585671721394,0.13568102547295124
37.38485600000001,4.893397794879839,0.1351255811903788
37.38949199999999,4.909699560019907,0.13463966232424884
37.394120000000015,4.932175181579365,0.13405545007561753
37.39876000000001,4.956205302605826,0.1334705605379746
37.403400000000005,4.976026762270968,0.13301028802632958
37.40804,4.998957220870119,0.13253047599294707
37.41268,5.026018297565072,0.1320112377624958
37.41731200000001,5.051324646813359,0.13157866648597671
37.421956,5.078840560548005,0.13114365924716934
37.42659599999999,5.108566038769012,0.13070775468505194
37.431228,5.135881724523994,0.1303585064023193
37.43587199999999,5.161031987241246,0.13007386129783077
37.440516,5.188758368587294,0.12976154156360167
37.44514799999999,5.21959374886735,0.129433325338522
37.449792,5.2523501827568495,0.129080489787024
37.454432,5.285350986074639,0.12871390848888822
37.459068,5.320028473573579,0.12834244292451796
37.46369999999999,5.358548068291403,0.1279115434344551
37.46834000000001,5.4020535741040465,0.12738135369320217
37.472972,5.4444152760407505,0.126892036022153
37.47761199999999,5.4903747157680485,0.12636100733846212
37.48225199999999,5.539276828266581,0.12577557769053443
37.48688799999999,5.589200559926905,0.12518961309175092
37.49152799999999,5.640923160482526,0.12459746613343615
37.49616399999999,5.690191827123495,0.12401925955828143
37.50080399999999,5.740848667068693,0.12340324409042995
37.50544400000001,5.789051573099239,0.12281411315745365
37.51007200000001,5.8462046821576354,0.12207564145563132
37.51472000000001,5.902169845891466,0.12132173274515182
37.519364,5.958379379053588,0.1205593633804817
37.52399600000001,6.017243074110025,0.11972463447134765
37.52864,6.075696073575396,0.11886901298516941
37.53326799999999,6.132961127716201,0.11800961535837075
37.53789599999999,6.1882609867989355,0.11713863029742363
37.54253600000001,6.237386989462281,0.1163439849104822
37.54718,6.288800599877505,0.11551287901456642
37.551808,6.3351841577492785,0.11472808177423466
37.55644799999999,6.378336531972898,0.1139765145331491
37.561076000000014,6.4163366689389205,0.1132724977518858
37.56571199999999,6.4494289380756396,0.11259187226081423
37.57036,6.480433827440144,0.11191080987513712
37.574996,6.511805270947085,0.11121448916200653
37.579628000000014,6.536103423586988,0.11058773437682928
37.58426800000001,6.553039774482936,0.10999862947603074
37.5889,6.5753285906161425,0.10931535876430269
37.593548,6.595652211691279,0.10861959113003095
37.59819200000001,6.616586756337144,0.10789094606723697
37.60282799999999,6.627094641753672,0.1072469204496545
37.60748000000001,6.640789569369725,0.10655468476498543
37.612108000000006,6.651619867480062,0.10585173627486485
37.616736,6.655499059437507,0.10519659290490982
37.621376,6.6620324132892685,0.104478470949345
37.626004,6.664435149045226,0.10377707864694326
37.63063600000001,6.66667155863841,0.10304011834350697
37.63528,6.66735346876459,0.10229838159843788
37.63991999999999,6.660062653576085,0.10161549598703225
37.644552,6.651583893063013,0.10090742775896361
37.64919599999999,6.632556288606459,0.10026499328185948
37.653832,6.617204465206013,0.09954013712292646
37.65846400000001,6.6054062381475305,0.09873757745139153
37.663104,6.590132458012602,0.09795367644179902
37.66772800000001,6.570972429210162,0.09716572766884637
37.672368000000006,6.551523889530802,0.09634045149391034
37.67699200000001,6.531830980423152,0.09552167643901159
37.681644000000006,6.506086399610258,0.09473238576551293
37.686272,6.478542949902068,0.0939519989555078
37.69090800000001,6.444947828488635,0.09319501744754911
37.69556399999999,6.415072629579938,0.09239875155154671
37.700196000000005,6.3808224431471485,0.09162349224718797
37.704824,6.346572256714358,0.09084166574269086
37.70945599999999,6.314243123891011,0.09003082730340092
37.714088,6.274351961344042,0.08928255254528811
37.71871999999999,6.230618691578192,0.08856189330161532
37.723352000000006,6.187540486831696,0.08784372818322975
37.72798399999999,6.14650552040879,0.08709062366529012
37.732624000000015,6.106247803719385,0.08632899463851317
37.73727199999999,6.067544586496984,0.08556357174718837
37.74191200000001,6.041677820969944,0.08469624798010182
37.746544,6.013279078262735,0.08388285024722672
37.75118800000001,5.9833699775371505,0.08310691836626125
37.75581600000001,5.951295453773831,0.08235470543981992
37.76046,5.921552679211019,0.08160396971841019
37.765096,5.896062707458155,0.08083815393534133
37.769732000000005,5.87789039600062,0.08002451334463437
37.77437599999999,5.864625952372388,0.07921019466394018
37.779004000000015,5.853571073230518,0.07841138011796302
37.783636,5.849222930813248,0.0776029376532006
37.78826799999999,5.840543942320512,0.07685411771268753
37.79289600000001,5.832275649418842,0.07612873133894471
37.79753199999999,5.827238540165326,0.07540986451822439
37.802164000000005,5.826332049007612,0.07469322533028883
37.806792,5.833276098450439,0.07395388656420399
37.811436000000015,5.853056599588625,0.07314787553632873
37.81606400000001,5.872592731298521,0.0723618132042497
37.82069999999999,5.894338427494778,0.0715974204435406
37.825344,5.921480730376921,0.0708132230377351
37.82997599999999,5.950055348011924,0.0700488945356228
37.83461199999999,5.974421304285606,0.06934543564594639
37.839256000000006,6.0032844327975265,0.06863399707719132
37.843884,6.035378744957603,0.06793546595477325
37.848536,6.077366836041806,0.06720898155672123
37.853172,6.120787241878867,0.06650663960158457
37.857812,6.165639962468787,0.06583087710276324
37.86245600000001,6.205628956678031,0.06519908788124387
37.867092000000014,6.2472946350684255,0.06458081655744305
37.87173200000001,6.288960313458818,0.06396926683925698
37.876368000000014,6.3298487421157095,0.06336130481416373
37.88100399999999,6.376500331600926,0.06272097031131998
37.885632000000015,6.425605855000794,0.06209268292739714
37.89027200000001,6.4727903247912195,0.06148213151902868
37.894912000000005,6.520096979295792,0.060874331446097996
37.89954800000001,6.566504199352716,0.06027818604392833
37.904192,6.605105020257729,0.05974021087849535
37.908828,6.644360906182098,0.059218523328644315
37.913460000000015,6.684638411268261,0.058694513325917255
37.91810000000001,6.725815350802073,0.05817791676100673
37.922728000000006,6.767114475050029,0.057659868042949695
37.92737600000001,6.810456837621573,0.057131781637369754
37.932016,6.8462371704694975,0.056636529392555174
37.93664799999999,6.880585188564562,0.056128979471328166
37.941292,6.906716111916651,0.05564270347564023
37.94592,6.925407190259266,0.05517613926949455
37.95056,6.940622715525435,0.05471030010223844
37.95519200000001,6.954816621629811,0.054250919032748895
37.95982000000001,6.95964962911527,0.05381923078947808
37.964452,6.96166214854364,0.053396601473067025
37.96909600000001,6.9597103760389825,0.05299546899570799
37.973724,6.955837549924884,0.052603506246140436
37.97836000000001,6.944769248229602,0.05221478052685243
37.982988000000006,6.933823131248466,0.05181955549730452
37.98762400000001,6.916214418991357,0.051445064191221676
37.992264000000006,6.893986349781865,0.05107797387574063
37.99690000000001,6.870081596391222,0.050702796419145636
38.001532,6.837593194115165,0.050352873431789694
38.006168,6.801629238762662,0.04999565353240579
38.010808,6.753117342591718,0.0496828304039189
38.015456,6.6978206664306565,0.049393832294931425
38.02010000000001,6.632796537508242,0.04914176586095052
38.024732,6.563808116652801,0.04890583723443282
38.02938399999999,6.4917548383119765,0.048684666110594625
38.03401600000001,6.415615083323979,0.04848661347467491
38.038648,6.342418001107218,0.04826897776952364
38.04328799999999,6.264357192509777,0.04806626425275187
38.047924,6.182576461407602,0.04786571484055864
38.05255199999999,6.100917915019572,0.04765168717336082
38.05718400000001,6.014395642250865,0.047453230420416506
38.061812,5.927751184768014,0.04725708591484508
38.06644800000001,5.835221381742693,0.047083459103811724
38.07109600000001,5.744368262898521,0.046911192177027515
38.07574,5.6477519832260255,0.04675255236444085
38.080376,5.5525680183063875,0.04661369769098496
38.085016,5.453175392025431,0.04650881936605522
38.08964399999999,5.349818473811446,0.04642018190962514
38.094292,5.2522247164257845,0.046305597194489706
38.09893199999999,5.149278493802864,0.046239840455217174
38.103564000000006,5.052872681741771,0.04616049420361472
38.10820799999999,4.961208411347207,0.04606148445983415
38.112836000000016,4.873141878743235,0.04596403653522015
38.11746400000001,4.790594137539296,0.04585902402498377
38.122096,4.703060485240535,0.045785262292616105
38.126724,4.62039055932245,0.045682510270881715
38.13135600000001,4.537354079261928,0.04560095033126131
38.136,4.45395104505897,0.045546518303782674
38.14063999999999,4.371325260589511,0.04549831866382512
38.145272000000006,4.29025397558706,0.04546527973948631
38.1499,4.212780428375198,0.04543266775391897
38.15453600000001,4.13134258923031,0.04542910344172464
38.159164,4.050437630390631,0.04546291786094091
38.16380000000001,3.968388867675014,0.04551788948553039
38.168432,3.884296866635809,0.04559498362156908
38.17308,3.799427615863102,0.04566333534656406
38.177708,3.7186448417375697,0.04568719449285021
38.182356,3.640438186240834,0.04572667478560172
38.186984,3.5612099115823055,0.04576970639902401
38.19162,3.4830032560855706,0.04580899862192225
38.19626400000001,3.4060625891789207,0.04580160941628035
38.20089200000001,3.3204160886727117,0.04585579953378649
38.205524,3.2341145231471464,0.04588152196945425
38.21015600000001,3.143193600669196,0.04592084716387358
38.21478400000001,3.0591796428955087,0.04588738604012128
38.21942799999999,2.9723451970647328,0.04585073595095161
38.22406799999999,2.8855107512339555,0.04581148896140402
38.228692,2.799942293993264,0.04572529433313713
38.23333600000001,2.7142516520384268,0.04565384029512873
38.237976,2.627539390921796,0.04559779526223517
38.24260799999999,2.5380066417480758,0.045556126432763105
38.247240000000005,2.4534598036691784,0.04544183426472713
38.25187199999999,2.3674806508374213,0.04527414996751705
38.25650400000001,2.2808464329863085,0.045048853130671244
38.261144,2.1988315720875797,0.044801726363419336
38.26577599999999,2.114118407845908,0.044525833242903046
38.27042399999999,2.0273620052806494,0.0442541540857677
38.275064000000015,1.9426488410389773,0.04392308506763955
38.279696,1.854993004026071,0.04360544820507112
38.28435200000001,1.771057089517901,0.04326127409470465
38.28899200000001,1.6858551864196465,0.04294113426137809
38.293632,1.6084596824733033,0.042473279363738965
38.29826399999999,1.533884666584049,0.04191222600979259
38.30290400000001,1.46225232346603,0.041230426311095955
38.30753999999999,1.3852675151107519,0.03898414194288954
38.312184,1.3070167181653887,0.03676353711384905
38.316824,1.2259454331629365,0.03454752541000164
38.32146,1.146550832341634,0.032360319819955664
38.326088,1.0691994698439184,0.030161486507806923
38.330724,0.9927475417938512,0.027949847781458342
38.335364,0.9200155362485207,0.025725855705177037
38.34000399999999,0.8451181076654577,0.023554844690449637
38.34463199999999,0.7756172857682819,0.02140227672258994
38.34927999999999,0.712412505004641,0.01929646157495331
38.353916,0.6530498314598828,0.017201970084149608
38.35855599999999,0.6010048182104532,0.015137638310119461
38.363200000000006,0.5534569771992629,0.013098784681921457
38.36784800000001,0.505664766759781,0.011106911058653237
38.372484000000014,0.4614702941108905,0.00911800897876323
38.377128,0.4171536367478545,0.0071438372869316305
38.38177200000001,0.3754130980136163,0.005193858036725877
38.38640799999999,0.3343276242987346,0.003350435695607258
38.391044,0.29004783226217046,0.0016210519002666064
