Time,Force,Position
37.391588,1.8083648639255114,0.031806861741887064
37.396188,1.7001883607794779,0.02981060710319678
37.400792,1.595609595424036,0.02782983098740358
37.405392000000006,1.4946285678591853,0.025865770545322072
37.409984,1.3980225278184284,0.023926192913763862
37.41457200000001,1.3029709872446755,0.022014018424805947
37.41917600000001,1.2055096542048989,0.02014334700931582
37.423764000000006,1.1145887317269485,0.01827466574249338
37.428364,1.03200708870612,0.016447805384678955
37.432944000000006,0.9544554982287417,0.014685182792129449
37.437544,0.8840993833325461,0.01296743637786116
37.442128,0.8205280484264681,0.01126214115209378
37.446724,0.7563457899496617,0.009620711625891665
37.451316000000006,0.6966607037110946,0.008060445625551648
37.455904,0.6423722241584148,0.006565194228688139
37.460492,0.5993656968340916,0.005092319856391057
37.465088,0.5618779609098014,0.0036773302981310766
37.46967600000001,0.5296646469572526,0.002382111679467589
37.474264000000005,0.5039917435665301,0.0011464286449531617
37.478852,0.4817943932522532,0.0
37.48343200000001,0.4690801262710377,0.0
37.488028,0.4572652937374699,0.0
37.492616,0.44659426507984135,0.0
37.497208,0.4374777358892172,0.0
37.5018,0.4320811292033301,0.0
37.506392000000005,0.43796647474579986,0.0
37.51098400000001,0.4467944930595045,0.0
37.515576,0.4601196836114485,0.0
37.52016,0.47463281948795977,0.0
37.52474,0.49658580037394523,0.0
37.529332,0.5202596068897088,0.001658984957847351
37.533928,0.5501616509052287,0.004547776681866801
37.538516,0.6048135016786726,0.00839410088969237
37.543108,0.6761643906298382,0.012916209921557262
37.547704,0.7640921330445796,0.01792849158821095
37.552296,0.8640995566846577,0.02331973946373929
37.556876,0.974998716225505,0.028977558308768844
37.561476,1.0945020039152433,0.03494713395434111
37.566056,1.2246526580774595,0.04112683439195246
37.570656,1.3698256662362474,0.047467748336353935
37.575244,1.525812367030287,0.05399206643586178
37.57984,1.702462397935077,0.06051449715458476
37.584428,1.897488151198738,0.06707577990187533
37.589020000000005,2.107369932296197,0.07369002081090748
37.59361200000001,2.3326406215326645,0.08033089284265556
37.598204,2.5657381891845206,0.0870485304033682
37.602796,2.8178224027659766,0.09376565562757827
37.607380000000006,3.079287994229827,0.10059699290887729
37.611968000000005,3.356631232689269,0.10741720660505487
37.616568,3.642412273134827,0.11426810403208965
37.621156,3.9305353024126313,0.11960205324313038
37.625752000000006,4.21521668043088,0.12370701010107754
37.630344,4.478457478604876,0.1268712333511546
37.634932000000006,4.724999238601153,0.12936414722219525
37.639524,4.952754580647491,0.13137240938230696
37.644104,5.164055253944398,0.13301080565120316
37.648696,5.363320387464599,0.1343780700826071
37.65329200000001,5.551771828349547,0.13539340616997853
37.657884,5.7305975219238094,0.13614564913268884
37.662492,5.892435666443433,0.1367336553534505
37.66708,6.038552250498499,0.13712717130896174
37.671668,6.163716993565896,0.13751942413162543
37.676264,6.268174265073916,0.13788213491246792
37.680852,6.356954117566007,0.13816798434179803
37.685464,6.42748043241337,0.1384156610227727
37.690056,6.483473132120748,0.1385623251454872
37.694648,6.516837306659304,0.13873566760900477
37.69924,6.536767528485181,0.13874094478287477
37.70384,6.533047605980445,0.1388010956711113
37.70842,6.514794068335721,0.13877949825028493
37.71302,6.494843367246369,0.1384885055618825
37.717604,6.4693636351252435,0.13813723234731456
37.722204000000005,6.4415080123549835,0.1377501318622594
37.72679600000001,6.412953183116739,0.13731033295348935
37.731392,6.385131462163369,0.1368163204864121
37.73598,6.358531588351456,0.13623481530788858
37.740576,6.325958086099817,0.13566527568547473
37.745172,6.28913178103823,0.13513632484616545
37.74977200000001,6.246087478108623,0.1346340596995269
37.754364,6.202876849016246,0.13408650364564953
37.758956,6.161176577942241,0.13347639507517914
37.763544,6.117266742381877,0.13286224359520382
37.768132,6.072824026516301,0.13222803544653652
37.772712,6.025805192021926,0.1316159914401866
37.777304,5.978009107794051,0.13100093602144586
37.781896,5.92865852409917,0.13038582468136883
37.786484,5.880451744280228,0.12973262284401954
37.791076,5.829835171995262,0.12914043370265116
37.795656,5.787313509739126,0.12842395694839137
37.800248,5.744303108626409,0.12773589000185073
37.804844,5.696717492009933,0.12716200113334808
37.809432,5.644312290461408,0.1267256395441692
37.814040000000006,5.594405164276166,0.12631506633733117
37.818628,5.544542179539551,0.12594951284959063
37.823232,5.496766574575152,0.12558256732731687
37.82782400000001,5.45071179524053,0.1252410876920316
37.832416,5.4136955018310156,0.1248214924882319
37.83702,5.3815870762508045,0.12435992847433089
37.841616,5.35185454131973,0.12393703619005741
37.84622,5.328995069276028,0.1234918416973138
37.850812000000005,5.3085114878814625,0.12308706718831278
37.855408,5.297843642145506,0.12261100933173245
37.859996,5.291472740668125,0.12214361869709259
37.864596000000006,5.292341456220554,0.12163357645468423
37.869184,5.301593592678734,0.12105597132657311
37.873788000000005,5.317063727004934,0.12046129654996895
37.878372,5.3405507280944455,0.1198282681928438
37.882972,5.373076215109064,0.11913811601745816
37.887568,5.407444712467607,0.11849067007144706
37.89216,5.444677839331866,0.1178554925676757
37.89674,5.484775595701844,0.1172313722807246
37.901336,5.538731422928977,0.11642477914854854
37.905924,5.600659975470793,0.11554432182210915
37.910516,5.670439068613151,0.11460261729949969
37.915104,5.742305541527722,0.11368734485975161
37.919692,5.813316721443274,0.112839527094421
37.92428,5.883306282197034,0.11203169522573511
37.92888000000001,5.954605972989505,0.11124982429211384
37.933468000000005,6.0316688246103,0.11039651691063318
37.938064,6.105256123154651,0.10959219891338466
37.942656,6.175900748927766,0.10883554300900797
37.947244,6.242048202462643,0.10814292042547054
37.951844,6.3143253709682785,0.10736761173973629
37.956424,6.385170224721056,0.10660220323831525
37.961016,6.447675799016713,0.10593931621290807
37.96561200000001,6.506950189664214,0.10529686240246275
37.970200000000006,6.564914450273004,0.10465685789806446
37.974796,6.619359016356719,0.10401223987146103
37.979384,6.670572398792279,0.10338495885487399
37.983972,6.719698401455625,0.10274711844508189
37.988576,6.7681251976509875,0.1020637425825004
37.99316400000001,6.805103715455217,0.10147551021149592
37.99776,6.837663104286723,0.10088692643546433
38.00234,6.860939637764835,0.10034600301633004
38.00694,6.880452107289579,0.09979967639717789
38.011528,6.898610305326984,0.0991958849157973
38.016128,6.914026058572817,0.09857392593917809
38.02071600000001,6.926166486721866,0.09791748420901425
38.025312,6.932377427879818,0.0972902931632582
38.029892,6.936500989265554,0.09664790535884563
38.034488,6.9409469633451,0.09594036677591505
38.039084,6.941628873471279,0.09522062670044557
38.04368,6.927020397987446,0.09460499212323736
38.048276,6.908281304407811,0.09399786300261714
38.052876,6.89334017659843,0.0933066890143069
38.057468,6.876189484302688,0.09260278798258795
38.06206,6.853109305015847,0.09191784191930204
38.066648,6.825287584062477,0.09127246600196826
38.071236,6.795378483336891,0.09060547085898879
38.075816,6.764037067858446,0.08992408563213189
38.080412,6.7319184026464995,0.08923753351285683
38.085004,6.700821356596347,0.08853144882702252
38.089584,6.662040096108427,0.08789036737911547
38.09418,6.623913900639866,0.08725120122079107
38.09876,6.5873422046383086,0.08661144447540443
38.103352,6.548605085599018,0.0859966938024441
38.10794800000001,6.505537120484262,0.08544005716192257
38.112536000000006,6.46377928540822,0.08489570401481594
38.117148,6.423820319227474,0.08433599993747191
38.121736,6.384394233351937,0.08378769210423
38.126332000000005,6.346156092800968,0.08326011422328425
38.130928,6.3111491358981535,0.08272930001279964
38.13552,6.289633695710058,0.08212096619675216
38.14012,6.269428385560674,0.08152810182167856
38.144712,6.250288836021711,0.08096889535359476
38.149308000000005,6.233236666254964,0.08042884433263024
38.15390000000001,6.220192929869875,0.07989207190382981
38.15850400000001,6.214222484351822,0.07932659502258584
38.163092000000006,6.213037721948926,0.07877117971889065
38.167692,6.2177824465371305,0.07820930685543662
38.17228,6.226413419792846,0.07766632407587556
38.17688,6.240074445592009,0.07712216265563131
38.181472,6.265183749782305,0.07654195715866358
38.186064,6.297610714267928,0.07592927056488576
38.190648,6.331958732362993,0.07530833464837096
38.195244,6.375056725506245,0.07467032794752476
38.19985200000001,6.429558855592,0.07396204894729592
38.204448,6.485615485144759,0.07326842926776296
38.209036,6.544903298345673,0.0725926698512404
38.213632,6.610731522108415,0.07189359165346926
38.21822,6.681179102823539,0.07118508674161779
38.222808,6.754324986881608,0.0704775434737261
38.227396,6.825794186758526,0.06978829290468531
38.231984,6.905436339929793,0.06904155274417252
38.236572,6.98646666640529,0.06828143590018594
38.241164,7.07554776146099,0.067475936142084
38.24576,7.17075857148745,0.06663968137788563
38.250348,7.262616013151611,0.06581552425936443
38.254948,7.355206563100645,0.06497340879488299
38.259528,7.446364798296821,0.06413510111011334
38.264120000000005,7.534536219273134,0.06328960908275917
38.268716,7.6197208260295834,0.062433829089011295
38.273304,7.699098130509081,0.06158139714409428
38.277916000000005,7.775244251340425,0.06073507858539247
38.282496,7.852900730190144,0.05987495364040956
38.287088,7.923850472315264,0.05901545348454389
38.29168,7.9846620660879655,0.058193013395392644
38.296268,8.043508464802597,0.05734863744788767
38.300872,8.09282763873554,0.056502144647498
38.305464,8.129310360973124,0.0556845374287213
38.31006000000001,8.15499986983893,0.05488056915989408
38.314648000000005,8.174637706999494,0.054073941073879764
38.319248,8.18605844941708,0.0532801764542311
38.323828000000006,8.182110762959137,0.05254234406936341
38.32843200000001,8.163938451501602,0.051840254975526565
38.333024,8.126922158092091,0.05118427469659144
38.337616,8.071839132464104,0.05057592566242798
38.342204,8.008172457950705,0.049984769524917635
38.346796,7.932979461780656,0.04942237838699905
38.351384,7.847403947829899,0.04887573204533743
38.35598,7.7527560461371445,0.04836620412853975
38.360572000000005,7.651856244759485,0.04788712174364128
38.36516400000001,7.543027859515768,0.04743190330155809
38.369752000000005,7.423328217634759,0.04701238057349251
38.37434,7.28572816969805,0.04666465486580138
38.378928,7.141221157057076,0.0463313717794582
38.38352,6.996591959701957,0.045989335834890725
38.388116,6.845344308519497,0.045694859335105566
38.392708,6.694262983499807,0.045425257389376694
38.397304000000005,6.542570734909392,0.0451772896589761
38.401892,6.392310801071833,0.0449345813987914
38.406484000000006,6.23489953310172,0.04472203141209061
38.411064,6.074956287951437,0.04453780974302759
38.415652,5.917589161429952,0.04435083531344589
38.420256,5.770237998546739,0.044152293304166264
38.42484,5.6308595609782115,0.04395503027874003
38.429428,5.497532795114927,0.04376991973936281
38.434024,5.371523689546972,0.04356990366380067
38.438612000000006,5.243637671818204,0.0434265825053856
38.443204,5.117961218575796,0.043308181120782774
38.4478,4.997681372019275,0.043190065341218394
38.452404,4.8818986977009935,0.04306893659609939
38.456992,4.772289879802101,0.042956421256796565
38.461592,4.666034430265508,0.04286251364366443
38.46618,4.571060932957274,0.04274447616249472
38.470784,4.482916357087785,0.04265590987166961
38.47537200000001,4.391995434609834,0.04263694023478624
38.479972,4.301851761865387,0.042631427824566304
38.48455200000001,4.215305826911529,0.04262813323592446
38.489148,4.138120790576588,0.04260208580293843
38.49374,4.062490253708652,0.04259270348019294
38.498336,3.99789729964078,0.042574296894645404
38.50292400000001,3.939722571420589,0.04255323268692067
38.507516,3.8850233962768437,0.04254424634761635
38.512108,3.8254604947524222,0.042558141886988046
38.5167,3.7676964621232965,0.0425707595872361
38.521292,3.710954048655965,0.04257383164697687
38.52588,3.651024592989106,0.04261275380427356
38.530468,3.5998009709218066,0.04261465604184475
38.535056,3.553196705806892,0.042612291126883556
38.539648,3.5076140598537706,0.042597206911518394
38.544236,3.4607654253105653,0.042616625594806556
38.548836,3.414938409929153,0.0426235590670127
38.553416,3.3760183592520043,0.04257890125959535
38.558008,3.3399187966319444,0.04252491012297493
38.56260400000001,3.2991998770595,0.04247665179052392
38.567192000000006,3.261667999686581,0.04238547625018767
38.571796000000006,3.2301436525702782,0.042236059936872954
38.576384,3.1969426212728256,0.04206506369876244
38.580984,3.1579784291470485,0.041919455527209944
38.58558000000001,3.1196693020406276,0.04180248046245233
38.590168000000006,3.078539686877118,0.04169101198644336
38.594764,3.0367550066942517,0.04154504688172664
38.599356,2.9949703265113854,0.041396205257888376
38.60395200000001,2.9560061343856088,0.04123493236327919
38.608540000000005,2.917041942259831,0.04106847292931637
38.613136,2.8781999348482,0.040878873523542116
38.617724,2.839357927436568,0.04068552443606516
38.622332,2.798839235843787,0.04046573586602442
38.626916,2.755500056193916,0.04024963972046063
38.631516000000005,2.7121608765440453,0.040023995963197126
38.636104,2.6702098701984047,0.039731663880036856
38.640696000000005,2.6233951374720883,0.039463865126706625
38.645284,2.574537166422185,0.039210440238694654
38.64988,2.523103076743484,0.038915419016400894
38.654468,2.478575951769046,0.03855219505582598
38.65906,2.436092065118195,0.038149894585831255
38.663648,2.3876006482107286,0.0377903098734152
38.668244,2.3388648618749706,0.037447777720209595
38.672836,2.290251260253358,0.03707113652230249
38.677432,2.241882028060037,0.03665394173424681
38.68202,2.1917139269714205,0.03620814771869528
38.686616,2.1420787061880153,0.0358132591084045
38.691208,2.0896229973475204,0.03540334421232946
38.69578800000001,2.039987776564115,0.0349769014528469
38.700388,1.9872876982953287,0.034581642545747755
38.704976,1.9398620419982837,0.03423527735699844
38.709568,1.894235254596535,0.033893072621248216
38.714156,1.8513067705377295,0.033552302293991386
38.718744,1.8114431439643042,0.03314575133832209
38.723356,1.7694140943531464,0.032775371613976555
38.727944,1.7299611633707865,0.03243349978374547
38.732552,1.6944725243214553,0.03203048675224015
38.73714,1.6532207244438,0.031618524856020715
38.741732,1.6085375129383268,0.031305462844956625
38.746328000000005,1.5579689558903842,0.031001903061780547
38.75092000000001,1.5062565949665017,0.030708470446635022
38.755516,1.4612068293185916,0.03039458136012528
38.760096,1.4170564981183296,0.030069990260376996
38.764700000000005,1.3748272205275087,0.02969350275967479
38.769288,1.3328423123649793,0.029202991075166985
38.773880000000005,1.2966205650307738,0.02867306629794313
38.778468,1.2578226990677706,0.028019087523110994
38.783068,1.2246658092189457,0.02737254568107572
38.78766400000001,1.1885662465988862,0.026703100536189555
38.792252000000005,1.153732672568911,0.025142834535849534
38.79684400000001,1.1144019263006968,0.023562926911602895
38.801436,1.07711441835607,0.021976085595893285
