Time,Force,Position
35.404852,0.10215875396258776,0.0
35.40944399999999,0.08406790102296052,0.0
35.414032,0.06699866724512682,0.0
35.41862,0.05442660570553238,0.0
35.423216,0.04340904363294228,0.0
35.427808,0.030348243236765146,0.0
35.432396,0.019086311735883713,0.0
35.436988,0.010522683577945835,0.0
35.441576,0.0036357396011579865,0.0
35.44616799999999,0.0003465334149615442,0.0
35.450756,0.0,0.0
35.455344,0.0,0.0
35.45994399999999,0.0,0.0
35.464535999999995,0.0,0.0
35.469123999999994,0.0,0.0
35.47371999999999,0.0,0.0
35.478308,0.0,0.0
35.482899999999994,0.012277184819328919,0.0
35.48748,0.039698908349375076,0.0
35.492079999999994,0.07850110663677319,0.0
35.496668,0.12909447527258847,0.013485025179030549
35.501268,0.19327788315211664,0.025796647499332945
35.505855999999994,0.27501562220838605,0.036824388525952025
35.510456,0.371775715261227,0.04735607187137215
35.51504,0.4836803470247852,0.05749784055292686
35.519636,0.6109738869273519,0.0672954743858391
35.52422,0.7535341502547817,0.07684399707979211
35.528816,0.9117276911495112,0.0861358106338066
35.53342,1.0826118368403057,0.09535665508346913
35.538011999999995,1.2719497481554896,0.10427739707422386
35.54259999999999,1.4784754365049775,0.11302020698946741
35.547196,1.6993684138316807,0.12170097849803402
35.551779999999994,1.9338514304020973,0.13033900491351458
35.55637599999999,2.1840899092539594,0.1388602190203471
35.560964,2.4513837407942423,0.1471082447554147
35.565555999999994,2.7217865712685336,0.15531998130325406
35.570148,2.9926000973338907,0.16355381614039505
35.57472799999999,3.256533045265807,0.1716736506744002
35.579324,3.507242508096447,0.179746446708175
35.583912,3.748414506513658,0.1878342220082214
35.58850399999999,3.9840913757159866,0.1823118580106445
35.5931,4.209409389322758,0.1779224886792324
35.597688,4.4186053865056465,0.17481139061889947
35.602296,4.616987691053284,0.17208221421228315
35.606888,4.801247076051995,0.1697172463917729
35.611492,4.971261356787639,0.16766164483410692
35.616076,5.128951586869655,0.16578884801761848
35.620672,5.272807408279665,0.16414133485473711
35.625263999999994,5.403317559874255,0.1625623026929178
35.629844,5.5127978272156595,0.16132156690963856
35.634448,5.604923991359984,0.16021965653202883
35.639024,5.683660344240259,0.15910680334844182
35.643624,5.748640331714047,0.15799763226056726
35.6482,5.800519018800705,0.15691171403592277
35.65280799999999,5.8345209620168115,0.15605714226601672
35.6574,5.8657363189927185,0.1551641305684105
35.661995999999995,5.89404290501428,0.15422713391437795
35.66658,5.913555374539024,0.15339671108528372
35.671172,5.928648715091048,0.15259075030676394
35.675771999999995,5.942221457992956,0.15169316549522668
35.680364,5.9467557149697585,0.15091549838194074
35.684952,5.946582332096919,0.15013032442254748
35.689547999999995,5.9443996127173815,0.14928774614442153
35.69413599999999,5.934610722165595,0.14854895514207148
35.698719999999994,5.92232375625053,0.14778640434496154
35.70330799999999,5.9052511072203036,0.147066320741268
35.707904,5.879795037284329,0.14645075918223832
35.71248799999999,5.852207446127512,0.1457807650662378
35.717071999999995,5.825597332683858,0.14503172407816806
35.721672,5.800986316115163,0.14417761846631377
35.72626,5.772899746470024,0.1433680580439559
35.730852,5.741215439034292,0.14261233397202244
35.73543599999999,5.7079766321315555,0.14186130611515602
35.740024,5.67024065299058,0.14117894770083686
35.744628,5.635447346620839,0.14042524192440797
35.749216,5.599388051661012,0.13970616432719224
35.753803999999995,5.564883256168188,0.13896858647433982
35.758399999999995,5.531810775428225,0.138221751247541
35.76298799999999,5.500947859174622,0.13746216242345247
35.767579999999995,5.469596204064437,0.13673393021361943
35.77216,5.44274172119249,0.13592837926460882
35.776756,5.415276314749814,0.13516250961591994
35.781347999999994,5.3892432230599985,0.13439095728011657
35.785936,5.36721856475184,0.13358095760816602
35.790524,5.347281286215897,0.13277185361090105
35.795123999999994,5.3326184296516965,0.1318843687323604
35.799716,5.323762875364447,0.13092990952374708
35.804312,5.3153621581168915,0.130051739740055
35.808899999999994,5.306883397603816,0.1292359940362687
35.813492,5.2991038435587265,0.12847757673540214
35.81809199999999,5.297253776504736,0.12765133629413652
35.822683999999995,5.301988261461198,0.12676878858403529
35.827276,5.311386244818674,0.12586772631527468
35.83186,5.323893227110158,0.12495297685741646
35.836451999999994,5.333257308650748,0.1241717396551059
35.841047999999994,5.346385454144701,0.12338808146650927
35.845636,5.3644214674679604,0.12257467232351638
35.850227999999994,5.38519992558279,0.12177615342301916
35.854823999999994,5.405367460126892,0.1210236134355899
35.859407999999995,5.428643993605002,0.12026710812569164
35.86399599999999,5.449510734617088,0.11958602579675935
35.868584,5.4754075281726236,0.11886489148214528
35.873175999999994,5.503269516786229,0.11817369577898916
35.877764,5.530642766543254,0.11752274641467923
35.882352,5.558304527177196,0.11691048549857204
35.886948,5.584211560364471,0.11637742608036847
35.891535999999995,5.614737950504131,0.11579103001099655
35.89612399999999,5.645508710072083,0.11518919660098317
35.90071999999999,5.679099957697123,0.11455390488045938
35.90532,5.714978813074042,0.1138692849462699
35.909912,5.7498360492891685,0.11321392312911767
35.914503999999994,5.778030690228322,0.11266047583019537
35.91909999999999,5.803404843110385,0.11215174797140275
35.923688,5.829678430440097,0.11163967930664487
35.928284,5.857340191074039,0.11108306669686949
35.932868,5.881648583345681,0.11055335877831918
35.937464,5.902359237826734,0.11006960262527941
35.94206,5.9257240542020995,0.10951468568689071
35.94665199999999,5.951498663043491,0.10890150860273921
35.95122799999999,5.972776099646643,0.10833783699908577
35.95582399999999,5.99417572096394,0.10776552597644459
35.960412,6.012099789204791,0.1072257142323302
35.965008,6.025771054635695,0.10671678744534532
35.969596,6.037765635885448,0.10621646478584126
35.97418,6.046651218201192,0.10571804204794763
35.978767999999995,6.058313147125397,0.1051391711100166
35.98335599999999,6.0653557190972185,0.10461853955196088
35.987948,6.070599422173743,0.10411445469240345
35.99254,6.07159032244032,0.1036383898881926
35.99713199999999,6.0687391154880155,0.10321250443761146
36.001724,6.066010093249855,0.10278011488410892
36.006316,6.066590297925368,0.10228144534742209
36.010895999999995,6.068680860619256,0.10173615518938478
36.015483999999994,6.067295870236699,0.10121556367218974
36.020092,6.067176868444226,0.10066485623284768
36.02468,6.067302236080044,0.10009748159410549
36.029292,6.066650353982361,0.09952978445138277
36.03388,6.064976852722883,0.09898261636919295
36.038484,6.061382297853965,0.09845860805025304
36.04308,6.06187421963222,0.09787519302899787
36.047676,6.066330433343505,0.0972432389082293
36.052272,6.0728298853783755,0.096583414237459
36.056864,6.08149476045098,0.09588652595669626
36.06146,6.095267731332551,0.09512075932136155
36.066048,6.1185237855471835,0.09426772341818059
36.070648,6.139736601438229,0.09345088316118809
36.075228,6.1614381561858576,0.0926080977439847
36.079828,6.18608238370472,0.0917336204754809
36.08442,6.212525480118879,0.0908485185453471
36.08902,6.241911249304273,0.0899325616360624
36.09361199999999,6.268598715146723,0.08903724303394421
36.098208,6.30014990736985,0.0881047800631709
36.1028,6.331578914878831,0.08718883614454753
36.107396,6.366605660178403,0.08625501423976988
36.112004,6.404330708820919,0.08532002180971013
36.1166,6.443854626358732,0.08438052613582353
36.121196,6.484522347772483,0.08342602110755981
36.125796,6.519671277786199,0.08251158917622162
36.130388,6.558784499732948,0.08156526717646609
36.13498,6.598019906393839,0.0806260701806811
36.139556,6.633535390549994,0.07972193235333389
36.144144,6.668273624972647,0.07882273752614799
36.148732,6.703134044109446,0.07792351972931934
36.153324,6.735173975189155,0.07705476437267375
36.15792,6.7577308229358035,0.07626390516553866
36.162508,6.78143147455839,0.075461385286935
36.1671,6.805132126180977,0.0746642155224066
36.171688,6.829077147231856,0.07386061521787622
36.176272,6.852122733835086,0.07306307355648019
36.180868,6.876434309028401,0.07225071699428363
36.185456,6.906753414478331,0.07139382473982375
36.190064,6.928611055756995,0.07059085305580762
36.194648,6.948014763121006,0.06978673063352313
36.199236,6.965208905998656,0.06897025203546978
36.203824,6.973164334971536,0.06819452439537296
36.208416,6.977766395582116,0.06741679807816835
36.213012,6.9806917720115464,0.06663792608921977
36.217588,6.987825809802296,0.06581540668664432
36.222188,6.993160978697751,0.0650047262640147
36.22678,6.994654040374323,0.06421757735585072
36.23138,6.9924271795461586,0.06344034644261291
36.235964,6.9894230689844905,0.06265928345284644
36.240564,6.983354100937442,0.061901080540614335
36.245152,6.973687395099802,0.06114712955992834
36.24974399999999,6.963243439528661,0.06038217587407732
36.254332,6.946914138415049,0.0596492566938882
36.25892399999999,6.924577307044823,0.05895224962576049
36.263512,6.896477314846272,0.05827913455171788
36.268108,6.8665784537524255,0.0576040442156639
36.272696,6.828995378220813,0.056960034536897804
36.277284,6.7768211235471725,0.056385560302138614
36.28187199999999,6.721582011388151,0.05582402711839556
36.286468,6.662134237867809,0.055290869097571096
36.29106,6.596678934090852,0.05478690729699476
36.295652,6.532900314495046,0.05427741889288983
36.300248,6.4655680985572745,0.053809260428953634
36.30482799999999,6.393782851829894,0.05338440920203126
36.30942,6.3135802823798715,0.05302714569400795
36.314012,6.221484837130767,0.05273653313584522
36.3186,6.122482427177398,0.052479973962658175
36.323208,6.02233621334809,0.052229267937933525
36.327788,5.913361981205077,0.05201835396880815
36.332388,5.801200706862536,0.051833306642556067
36.33697599999999,5.685608020892179,0.05168699354003971
36.341564,5.564907239112854,0.051575381730393756
36.34616,5.444084272619383,0.05146280981335433
36.35075199999999,5.321995317535827,0.051373991049001325
36.35535599999999,5.196719320252748,0.051314202434963055
36.359936,5.065313607998905,0.051304404773834966
36.364536,4.931375918564893,0.051349088305558725
36.369124,4.800014347759679,0.051409438534966115
36.373724,4.6731499491927035,0.05145792677936476
36.37830399999999,4.545263931463935,0.05151341439505498
36.382888,4.417910794040376,0.0515947244535657
36.38748399999999,4.286715549397935,0.05169345514574575
36.392076,4.156541923917288,0.05178240447068699
36.396664,4.0263682984366405,0.05187706341313408
36.40125999999999,3.8988929762989373,0.05198277596824191
36.405848,3.782044541370235,0.05200574620744139
36.410444,3.6669949753368267,0.05203227384153857
36.415032,3.554521527932217,0.052060287186870946
36.419624,3.4489991866804997,0.0521100610513205
36.424212,3.3455200837523686,0.052128450377814585
36.42881199999999,3.247681956938416,0.05210979065939528
36.433396,3.156262055972144,0.052069904539959445
36.437992,3.0653750353110834,0.05206796335446224
36.442584,2.980373360192491,0.05199895663972232
36.447172,2.9006461070456413,0.05194312553626743
36.451772,2.8302797525177072,0.05183193287734055
36.45636,2.767597612427538,0.05165416849936713
36.460952,2.7145207403845757,0.05138468622872898
36.465548,2.6583790108562333,0.0511544192890449
36.47014,2.6073895185854865,0.05094629525863066
36.474732,2.5598755793911856,0.05074931907883244
36.479324,2.51583719327333,0.05055639989558659
36.483912,2.4764181641078595,0.05033269246434771
36.488508,2.4395752535711868,0.050120093373644994
36.493096,2.4057972005198947,0.04984562479156904
36.497692,2.3658894324978426,0.04967235383826604
36.502268,2.3297015869805264,0.04946909654172574
36.506868,2.2962120448061536,0.0492564054853834
36.511456,2.2609236337364855,0.04904608419087623
36.516056,2.2242470493625865,0.04891019009845415
36.520648,2.181562934732072,0.04888636086400695
36.525244,2.137735016225619,0.04890805805899956
36.529844,2.0937849130050195,0.04897107816135936
36.534432,2.048568821194335,0.049091271330520304
36.539028,2.0057625218496757,0.049078488193845284
36.54362,1.956293627229044,0.049141288365051224
36.548208,1.9019610062277361,0.0492826222493571
36.552804,1.8423981047033149,0.049571120044520724
36.55739199999999,1.7866773103977767,0.04981145497543526
36.561988,1.7310787008063835,0.05003728556677802
36.566572,1.6758466453574279,0.05017926130309205
36.571156,1.6258890118802134,0.050349876348460595
36.57574399999999,1.569923848146383,0.05069611998000615
36.580336,1.516901357183788,0.050983708714103876
36.584932,1.4647783006688406,0.051236488819801224
36.58951999999999,1.4157201016392738,0.05141952456201672
36.594116,1.3692380212385051,0.051623434045936646
36.598708,1.3207127025141494,0.05189909110050009
36.6033,1.276151675722822,0.05206767797981949
36.607888,1.2374759944739644,0.05210312318069963
36.61246799999999,1.203664039605783,0.052061940675472394
36.617076,1.1727947575088362,0.051947223060864765
36.621664,1.1433136487161206,0.0516819159046338
36.626256,1.1101126174186675,0.05145612524641245
36.63084799999999,1.07143693616981,0.048945502525787714
36.63544,1.0344379391021024,0.04639575753096799
36.640036,0.9983383764820427,0.043802849733175137
36.644628,0.9636269871662136,0.041132821767224
36.649224,0.9269945442409431,0.03849370366279153
36.653804,0.886764363525081,0.03585098666275612
36.658404,0.8471892478285756,0.033273411523079194
36.662984,0.8023397101603288,0.030666002505733238
36.667584,0.7623538988727581,0.027920990928384487
36.672168,0.7197919689563895,0.02521517269517637
36.67676,0.6758418657357904,0.022583390901347804
36.68134,0.6324246428204021,0.019980749813137792
36.685936,0.586064747133779,0.017378108724927774
36.690532,0.5370065481042126,0.01472510849986895
36.695128,0.4874354894969103,0.012157802185375575
36.69972,0.4367206270136691,0.009676828204283127
36.70430399999999,0.3878046334257236,0.007192841496870379
36.708892,0.33876645512363246,0.0047517462290655
36.71348,0.2921822107361934,0.002398292264381133
36.718068,0.2511167577487873,0.0
36.72266,0.21503721585620306,0.0
36.72725199999999,0.18279978118250154,0.0
