Time,Force,Position
39.32934,0.4210659896065095,0.008738956759182931
39.333932,0.3578722021415132,0.006929833870429474
39.338512,0.2982761524671084,0.005156324131766026
39.34310399999999,0.24599776308803206,0.003430339786811397
39.347684,0.19936034982313414,0.001696011649159228
39.35228399999999,0.158241727958269,0.0
39.35687199999999,0.12186464775993446,0.0
39.361468,0.08908530535219132,0.0
39.366044,0.06296855822042013,0.0
39.37064,0.040693918307531725,0.0
39.375228,0.024182439222967433,0.0
39.37982399999999,0.021039538472069345,0.0
39.38441199999999,0.02149437551176266,0.0
39.38899999999999,0.024813842057173352,0.0
39.39357599999999,0.03137473188247722,0.0
39.39816799999999,0.053446714560935325,0.0
39.402764,0.09302813330060065,0.0
39.407352,0.14476727653112015,0.008150801348403352
39.41194799999999,0.21046301314778948,0.016131000581000803
39.41652799999999,0.2879057786642479,0.0240483578099784
39.42112,0.3778728228139975,0.031895415803215366
39.425716,0.4755004192163619,0.04002243841981733
39.430304,0.5852857401095807,0.04814425005012826
39.43489599999999,0.7089054696748036,0.056201257624509955
39.439484,0.8449272931591719,0.06421937895165225
39.444088,0.9969489483532772,0.07207289838311544
39.44867999999999,1.1628830554849041,0.07979703753411663
39.453268,1.3424852451257616,0.08744221642728012
39.45787199999999,1.5353889631334123,0.09506199202926383
39.46246,1.7415942095078563,0.102659641682465
39.46705199999999,1.9606122453925112,0.11028762829043855
39.47163199999999,2.182261534653237,0.11801036913415165
39.47623199999999,2.415657852813751,0.12571692851078897
39.48082,2.6623896011579484,0.13334406152509093
39.48542,2.9105875660718956,0.1409525311411901
39.490008,3.1499370334086585,0.14848655782682282
39.49460799999999,3.370221811550304,0.15609800348074165
39.499188,3.581946602991687,0.15548746979809355
39.50378399999999,3.781513669942216,0.1550126732731098
39.50839199999999,3.972320522212818,0.15458287333433515
39.512984,4.1566547675553736,0.15412636945844807
39.517588,4.340279566798206,0.15328141976841117
39.52218399999999,4.50933684908416,0.15252140981516984
39.52677599999999,4.664315353269817,0.15184558173267373
39.53136,4.810122947184485,0.15117379841369125
39.535948,4.943406262465862,0.15061368548367127
39.54054,5.068584428086669,0.1501140747786392
39.545128,5.18026083736102,0.14973378101163065
39.54972399999999,5.281866901916732,0.149346825092934
39.554308,5.374668610343889,0.14890929348689858
39.55888799999999,5.453880279527335,0.14844681539775645
39.56347999999999,5.529151318962902,0.14780117124452755
39.56806799999999,5.595007078699187,0.14715154299108263
39.57265999999999,5.648382701250809,0.1465763635557098
39.577256,5.697950118400436,0.14598412153515844
39.581844,5.745596481940623,0.14544434073589319
39.58643999999999,5.7979402456987135,0.14475815479998955
39.591024,5.846808456380357,0.14413467518586573
39.595616,5.894244352309142,0.14352068525362713
39.600216,5.937016749836913,0.14294202931914995
39.604808,5.974348399230171,0.142417955255657
39.6094,6.0017421282506715,0.14201168919090792
39.61399199999999,6.037020299688602,0.14139436846270656
39.618588,6.074297568001493,0.14068714964357182
39.62318,6.10793295707516,0.1399937998469501
39.62777599999999,6.13600541330017,0.13934832338830355
39.632356,6.153240514704776,0.13882067390068423
39.63695599999999,6.173207821269214,0.1381521239115265
39.64154,6.185402630498633,0.1375300200034394
39.64613599999999,6.189214018822299,0.13700011087038624
39.650728,6.194780134592633,0.1363960829196083
39.65532,6.189675221705339,0.13594224705068764
39.659912,6.1790854192349,0.13547171214575976
39.664504,6.168940214172417,0.13491837379720503
39.669092,6.1586286829471595,0.13432757344475646
39.67368,6.14365365332089,0.13375879889209843
39.678268,6.12136096339929,0.13329829545042304
39.68286399999999,6.0971030784196225,0.13282141785260385
39.687452,6.0694918250776535,0.13237554397594986
39.69204799999999,6.045678537505938,0.13180942300045806
39.696644,6.018145327429487,0.1312994132137676
39.70122399999999,5.992288801534183,0.1307688066670785
39.70581599999999,5.958992430629408,0.1303524239388837
39.71040399999999,5.920954518058101,0.13001113479389292
39.71499599999999,5.882383725181583,0.1296513123437391
39.719592,5.8457339859145065,0.12925350955268824
39.72418,5.814969592189899,0.12874211274408684
39.728788,5.777053864332737,0.1283748592934797
39.733376,5.745311992894965,0.1279248147272585
39.73798,5.716268424800137,0.1274333754420746
39.74257599999999,5.686858302562872,0.1269641993139356
39.74716399999999,5.667708513392169,0.12633079993915608
39.75176,5.64925793068945,0.12574844261003892
39.756348,5.63007423970186,0.12521735234356393
39.760952,5.606026822333591,0.1247693714565366
39.765528,5.5897077608517165,0.12423878169694189
39.77012799999999,5.5854479013317,0.12353010282309725
39.77471599999999,5.5814765526886045,0.12284990443046775
39.77931999999999,5.582779626017252,0.12210800158526382
39.78390799999999,5.580040364147352,0.12149853083717073
39.788508,5.581553905087401,0.12084736163206275
39.793092,5.587442433551542,0.1201506101028598
39.797684,5.597217210683195,0.11944227782964606
39.802272,5.611000421196505,0.11871091236849236
39.806868,5.627770445929677,0.11798251822921836
39.811456,5.6487932734727995,0.11722559796143234
39.81605199999999,5.671004046340489,0.11649827209760616
39.82062799999999,5.701554098665301,0.11565865935020071
39.82521599999999,5.729694358524087,0.11488822039248878
39.8298,5.762864670926324,0.11408860442209456
39.834392,5.7992661669767145,0.11328563796635986
39.838976,5.833502239989373,0.1125450524759425
39.843556,5.8735014738303555,0.11172714546235064
39.84814799999999,5.917875695195431,0.11088413618845583
39.852736,5.9666249040846,0.11000109980527276
39.85731599999999,6.010510386593094,0.10920063449368062
39.861928,6.043524612464295,0.10857700464455564
39.866516,6.079359326392585,0.10791929898315233
39.871124,6.1169929092161714,0.10725774376075761
39.875712,6.158957338115223,0.10651494600034819
39.880312,6.202065570890214,0.10575665491391803
39.884904,6.240676631426967,0.10504718241438697
39.889492,6.278876996372653,0.10432289847635152
39.8941,6.317566100174923,0.10357397790157268
39.8987,6.355600138957836,0.10282608533929052
39.903292,6.389914255236011,0.10212818003271405
39.90788,6.423695491208976,0.10142310433786184
39.91247599999999,6.453878989391351,0.10075821164840743
39.91706399999999,6.4872495297732495,0.10004479932966179
39.92166,6.514690583164052,0.09936538914951666
39.92624399999999,6.539799887354347,0.09869447490074255
39.930844,6.561311453754051,0.09805435418799209
39.935428,6.579225282363166,0.09744915888994955
39.940024,6.5862237128863566,0.09693299889197804
39.94461599999999,6.5953875664472825,0.0963863466619406
39.94920799999999,6.607083397188378,0.09578454994293621
39.9538,6.625153312328525,0.09508471373675793
39.958392,6.644611400772903,0.09435624904694452
39.962972,6.658795067245539,0.09366370364020478
39.967556,6.672079299270528,0.0929832514312712
39.97214399999999,6.682909597380864,0.09231025421882864
39.97674,6.695783133814787,0.09161115950310927
39.98133199999999,6.705713997477477,0.09094480664895814
39.98592,6.714623241978372,0.0902942340738504
39.99051199999999,6.720834183136323,0.08966138235471882
39.99509199999999,6.72524625539898,0.08903904582302753
39.999684,6.7268378396045465,0.08844088651127589
40.00427199999999,6.7284294238101126,0.08784373332320368
40.00885999999999,6.729121573568031,0.08725555681429226
40.013456,6.7382751874972175,0.08660436957464406
40.018044,6.7465293669787565,0.08596123762000041
40.022632,6.757970588659822,0.08527702381541864
40.027224,6.770311244788534,0.08459082379330249
40.03182399999999,6.792257168964453,0.08382029769448542
40.036428,6.809217182045551,0.08310478884357848
40.04102,6.82503339125071,0.08241200847836014
40.045612,6.837662558256344,0.08176340107480673
40.050204,6.846982498348305,0.08116446124903547
40.054804,6.85785693790727,0.08057009665688694
40.059392,6.867709758304442,0.07998936314614977
40.06399199999999,6.880016512616265,0.079412234776084
40.068576,6.897842058328122,0.07881193685097049
40.07318,6.917588657649419,0.0781973463393216
40.07775999999999,6.941177364189599,0.07756095037671822
40.082356,6.968485993234516,0.07690599069848882
40.08695199999999,6.999636729498316,0.07622622046176018
40.09154399999999,7.033363584390914,0.07554371845630664
40.096136,7.07105473121654,0.07483667097948318
40.100728,7.105681020556785,0.07416141474270396
40.105316,7.1313571068691815,0.07356765438665433
40.109912,7.1561337587339295,0.0729795876205254
40.114508,7.181565475618034,0.0724072773017873
40.11909199999999,7.203521639425691,0.07184222204830319
40.12368,7.225888498824415,0.07130736491563709
40.12827599999999,7.253241269317962,0.070736512591677
40.132868,7.281493474259155,0.07016695277413162
40.13745599999999,7.31473159029517,0.06956526256966096
40.142048,7.351278933244858,0.06892955086835091
40.146636,7.390891133679926,0.06827443164442866
40.151228,7.430747703543285,0.06761159103231269
40.15582399999999,7.469049773939639,0.0669477522514479
40.160412,7.499134749593017,0.0663176585853683
40.16501999999999,7.529464094674688,0.06567916098436372
40.16960799999999,7.557217321127559,0.06504968112129696
40.17419599999999,7.584193297846929,0.06442229672505856
40.178792,7.606794287042207,0.06380113611955013
40.18337999999999,7.63000619980821,0.06315578550111724
40.18798399999999,7.64577826756474,0.06253887062822354
40.192564,7.668579484739679,0.061880900930490514
40.197156,7.694689928828291,0.06118909641949696
40.20173599999999,7.720678188202756,0.060504000801729935
40.206336,7.740126037015396,0.05984063544378631
40.210924,7.764559796922858,0.059150236452544136
40.215524,7.784085689001015,0.058449819954603015
40.22012,7.7980927896791385,0.05776527900163432
40.224708,7.808379967852525,0.05709131456455211
40.22929999999999,7.808162443531058,0.05645685801372003
40.233896,7.800138520057679,0.05585676129674601
40.23848399999999,7.783653132413034,0.055280522584302653
40.24308,7.765246691158945,0.054710044271888435
40.24767599999999,7.742998142685973,0.054151070427651736
40.252272,7.7194836056229175,0.053604860251887564
40.25686,7.693148580502772,0.0530635984733084
40.261448,7.660683840411866,0.05255703253460262
40.266028,7.621556505044989,0.05206736871228616
40.27062,7.5820626155356745,0.05158953815997935
40.275208,7.537582814931538,0.051132547216645306
40.27979199999999,7.489793787413728,0.05069862980460411
40.284384,7.427780134896327,0.050299393207849194
40.288964,7.360003321550603,0.04991275532924464
40.29355599999999,7.282743424871818,0.049545026665321304
40.298152,7.208959081269477,0.04917682339840222
40.30273999999999,7.124714176620911,0.04887698873774533
40.30734399999999,7.0293536459067605,0.04863257729380674
40.31193199999999,6.928885019383642,0.04841285189456184
40.31653199999999,6.821387243442115,0.048227187955862616
40.32112399999999,6.718508824452973,0.04802737278955811
40.32571599999999,6.618450893520922,0.047813539840075456
40.330308,6.518026408446433,0.04761321632541793
40.334904,6.413393262010625,0.04743916773804153
40.339504,6.3054508886611425,0.04729320205857516
40.344096,6.193788592806926,0.047147768225485595
40.348696,6.078694885324889,0.04703748384391984
40.353284,5.959759070623972,0.04693879719761904
40.35788,5.841111766799973,0.04687393585021446
40.362468,5.72029903993824,0.046825875212153756
40.367056,5.595033282286898,0.046828378563206964
40.371648,5.471688578244996,0.04682128377883243
40.37624399999999,5.354395545908339,0.04682709265539045
40.38083199999999,5.236491590000953,0.04687169821034556
40.385428,5.127826347998336,0.04689817077070159
40.390016,5.010699641824453,0.046946711577064114
40.39461199999999,4.897659412297743,0.046965689520631335
40.3992,4.796922754161184,0.046944734353256995
40.403788,4.701704887424657,0.046913526599888296
40.408376,4.615970104021191,0.046847446706899595
40.41297599999999,4.524349975075258,0.046811435220843675
40.41756399999999,4.430320053663299,0.0468191071984331
40.422144,4.338089001146634,0.04682691949455728
40.42673999999999,4.244836329468177,0.04684583952998974
40.431328,4.153626896113307,0.04684470221446205
40.43592399999999,4.063072527777794,0.04686386743383527
40.44051199999999,3.9754608322135154,0.04686228336657638
40.445092,3.8916912438681193,0.04683889713033305
40.44968799999999,3.8064893407698643,0.04678121493320208
40.454276,3.7203880032239622,0.04672043614689529
40.458864,3.6390282073445905,0.046645788851486514
40.46345999999999,3.5584456611987205,0.04657862647846729
40.46805199999999,3.476064246157556,0.04650841174491728
40.47265199999999,3.3957260694399776,0.046416243004540905
40.477232,3.3123230352370183,0.04635755931184856
40.481824,3.2364820307576796,0.046255183523752
40.486412,3.159497222402402,0.046176412884891896
40.49101199999999,3.0805913604376816,0.04609940177077566
40.49558799999999,3.0007860640253137,0.04601237694367714
40.500188,2.917138660394064,0.04594153881669176
40.504772,2.8390100481628466,0.04586053194882689
40.509364,2.7602263709122727,0.0457502348661051
40.513952,2.6786222056046096,0.0456510567841208
40.51854799999999,2.603680635572919,0.04550008831338699
40.52313999999999,2.5311929994558793,0.04538059622559877
40.52773199999999,2.46320253557708,0.04526934352894024
40.53231999999999,2.3883051069940175,0.04525147177422724
40.536912,2.3170054162015457,0.04522345471091854
40.54149999999999,2.250202897647313,0.045185428110073006
40.546096,2.1859764977218785,0.04517257789195272
40.550684,2.1221166519388808,0.04508886963194623
40.555264,2.0594006100318225,0.044945690067404113
40.55985599999999,1.998361252305914,0.04482545283707324
40.564444,1.9346235912370626,0.04468635447244366
40.56903599999999,1.873173537920089,0.044430391702449466
40.57362,1.8114791151748246,0.04419920978815996
40.578208,1.7506841268772078,0.0439682686339312
40.582816,1.684125977751267,0.04378766532373379
40.587404,1.6125819175305038,0.04371690824588892
40.591992,1.5420594764715345,0.04358582479743171
40.596584,1.4696159818031238,0.04135480112932123
40.601172,1.4008924096394502,0.03913246571802563
40.60576799999999,1.336010944694659,0.0369003421226747
40.61035999999999,1.2653663189215436,0.03471043191782188
40.614956,1.1901023361960434,0.032502955232585715
40.619544,1.1158599726323375,0.030277196739244307
40.62413999999999,1.0504456273823355,0.02797215767874157
40.62872,0.9820886093610988,0.02569287647225055
40.633324,0.9124656027497771,0.023441427173719293
40.637916,0.8419431616908076,0.021168913065058973
40.64251199999999,0.7712985359176926,0.018954687557323123
40.647096,0.7029856593450842,0.016802580979559327
40.651688,0.6338955330389733,0.014631043174539567
40.656276,0.570979263152252,0.012481351231497097
40.66087199999999,0.5068418997909796,0.010435124400884805
40.66546399999999,0.44450340532500293,0.00839907880147465
40.670056,0.38588483336376345,0.006350365000982652
40.674648,0.3347061064119981,0.0042707900740003935
40.67923199999999,0.29108940918385257,0.0021026495165417315
40.68381999999999,0.250048830584505,0.0
40.68842399999999,0.21272817448989445,0.0
40.69301599999999,0.17708420257643392,0.0
40.69760399999999,0.1440163492917713,0.0
40.702196,0.11646728740714145,0.0
40.706776,0.0954586360843379,0.0
40.71137199999999,0.07534941920918219,0.0
40.71595999999999,0.05589526735338301,0.0
40.720548,0.04016103800232089,0.0
40.72514399999999,0.02736948142249367,0.0
40.72973199999999,0.018297847347403532,0.0
40.73431999999999,0.011802331901111275,0.0
40.738916,0.005429001168964689,0.0
