Time,Force,Position
35.787408,0.4866368965211251,0.010347011537060722
35.792012,0.43962193581514547,0.008256033977332714
35.796603999999995,0.3995139398134292,0.006152941740423636
35.801199999999994,0.3650469199258913,0.004076052479250478
35.80578,0.3334003880954427,0.002023720925034393
35.810376,0.3082942668268204,0.0
35.814968,0.2869080680629352,0.0
35.819568,0.2710406606990827,0.0
35.824155999999995,0.2573828178215911,0.0
35.828751999999994,0.25194206968707583,0.0
35.833347999999994,0.24842237516200194,0.0
35.837931999999995,0.2507880261793978,0.0
35.84254,0.25356437278785887,0.0
35.847123999999994,0.2573623385581135,0.0
35.851712,0.26770071489019437,0.0
35.856308,0.2775503523656926,0.0
35.860896,0.28686710953598,0.0
35.865483999999995,0.29606168199212174,0.0
35.870072,0.308321111933644,0.0
35.874668,0.3187816729798706,0.0
35.879268,0.33169616794074935,0.0
35.88386,0.3359048293020691,0.0
35.888456,0.3372149593407821,0.0
35.893035999999995,0.33407205858988404,0.0
35.897628,0.3313398534300511,0.0
35.902207999999995,0.3242768021947528,0.0
35.906796,0.32163287993217615,0.0
35.911392,0.3237407389678689,0.0
35.915972,0.34311441830338346,0.0
35.920576,0.3760781368826109,0.006956014149994126
35.925163999999995,0.41968922193431624,0.014407522394547796
35.92975199999999,0.4752578034972126,0.021938253198020237
35.934344,0.5424512292457522,0.029571480164053737
35.938924,0.6210251297516438,0.03728265249447674
35.94352,0.7127783739101832,0.04481267490966737
35.9481,0.814890473664281,0.052518989934598186
35.952696,0.9335794268819547,0.06023923741613379
35.957288,1.0670022232192806,0.06788024715235742
35.961887999999995,1.2138928740861736,0.07550118048687737
35.96648,1.37743842168216,0.08309021324351883
35.971072,1.5486445215307616,0.09079842012095582
35.97566,1.7341737689079497,0.09852893200140599
35.980256,1.9286295571278376,0.10639653101688204
35.984843999999995,2.1411284153810497,0.11422242218440105
35.989436,2.3688498556104967,0.12200027853451607
35.994024,2.6093399439015252,0.12980100210167647
35.998608,2.8613665934809416,0.13750310772570024
36.003196,3.118623523583473,0.14511960026228446
36.007788,3.3671982822715956,0.15265245987355797
36.01238,3.60038413282071,0.15324581673518226
36.016968,3.8219009977355523,0.1533602974534827
36.021552,4.024142705843876,0.15346035633182326
36.02614,4.214881754480702,0.15346787660696443
36.030724,4.392563644179026,0.15342200447409945
36.03530799999999,4.550770149091168,0.15361749168383704
36.039884,4.698207102816686,0.15363409221273766
36.04448,4.830455376382858,0.15359327383790067
36.049076,4.945760242343018,0.15362625036049082
36.053664,5.046164939020751,0.15364578572284968
36.058256,5.131791651130204,0.15364316972546774
36.062848,5.210490919271916,0.1534360629401103
36.06744,5.273923463988767,0.15323480389124822
36.072028,5.328874065270871,0.15285243990009392
36.076628,5.368391616965339,0.1524541664973392
36.081216,5.38826745771085,0.15215615379546832
36.085816,5.395697063088586,0.15180773295864392
36.090404,5.387781901775943,0.15154064744595974
36.095004,5.3690632874597854,0.15131018536542823
36.099588,5.342327806380315,0.1511665439994792
36.104184,5.314115869099354,0.15097030655376875
36.108772,5.288147398121645,0.15064003781691163
36.113364,5.264833089038253,0.15020076138155658
36.117952,5.240697388772728,0.1497110532100016
36.122548,5.217050427363787,0.14917744083332074
36.127136,5.193892204811428,0.14859853665840725
36.131724,5.173388144153386,0.14790803632843896
36.136312,5.151984649047695,0.14723017458869164
36.140904,5.127882850599059,0.14659922588667051
36.1455,5.101204933521625,0.14600489996638816
36.150092,5.071462158958812,0.1454902608015847
36.154684,5.0382438313195514,0.14502882390167268
36.159264,5.009889230060969,0.14444334689555213
36.16386,4.981534628802384,0.14385220577166022
36.168448,4.954734527010805,0.14324110190029626
36.173036,4.932431597457466,0.14253917606148747
36.177632,4.912826971247071,0.14178259415108957
36.182216,4.892078541160736,0.14105904771308317
36.186804,4.869697568341879,0.14041171487098655
36.1914,4.85492276669527,0.13965198665854928
36.195988,4.845466528469032,0.13885960154051638
36.200584,4.836709496710779,0.1381326315423812
36.205176,4.829673290582303,0.13743923964918597
36.209772,4.8285665714449255,0.1366706866606511
36.214348,4.830691035955701,0.1358724171881732
36.218948,4.839766606619369,0.13497349220224153
36.223536,4.8486419493033726,0.13416181336755104
36.228144,4.859726856473739,0.13334782676622367
36.232736,4.877885054511144,0.13242386611119886
36.237332,4.904548858168444,0.13140245675101495
36.241924,4.938818832997992,0.13029531034635966
36.246516,4.979551175123848,0.12915073461015106
36.251104,5.021227093145981,0.12806828184385854
36.2557,5.069487563178568,0.126950437331606
36.260296,5.119468858840932,0.12588726183772384
36.264892,5.174358022332601,0.12480265686679277
36.26948,5.229291327272899,0.1237886073884581
36.274068,5.289132500042501,0.1227373975410599
36.278656,5.35886745173623,0.12156559543359394
36.283244,5.427092045411583,0.12048325346956194
36.287836,5.496093888820436,0.1194252670953552
36.292428,5.564851362801,0.11840142931958479
36.29702,5.6410486817910375,0.11729577753247414
36.301612,5.7130373394197544,0.1163050332889617
36.306212,5.786702681229623,0.11532264388994817
36.3108,5.856281546392316,0.11443354835845956
36.315396,5.927126400145094,0.11352457022371992
36.319992,5.999647938079022,0.11261756853986596
36.32458,6.072047291298805,0.1117411000655908
36.329176,6.139827287566203,0.11094403684393689
36.333764,6.205397719347239,0.11016301488665735
36.338352,6.2623403607942345,0.10945968515817864
36.342944,6.317850687488372,0.10876081435178599
36.347532,6.36857533106735,0.10809629672984253
36.352136,6.417090410159967,0.10743310143761212
36.356732,6.462618675032721,0.10677985944279461
36.361328,6.507203364009198,0.1060955375494339
36.365916,6.554808769022429,0.10533583399475999
36.370516,6.593786383701617,0.10464769587081352
36.375096,6.629244303855733,0.10394338523571994
36.379696,6.661837594504131,0.10323473671104103
36.384288,6.691321886218518,0.10252864619501212
36.388884,6.70731466121819,0.10193828425872499
36.393468,6.72224167560744,0.10131957333982239
36.398064,6.731483572433883,0.10071795204902213
36.402652,6.739659708649905,0.1000857271723309
36.407244,6.740762553998888,0.09950323905060118
36.411832,6.741943442613389,0.09887480156214395
36.416428,6.7373170289509385,0.09826577939403917
36.42102,6.730725420230418,0.09763345544733601
36.425604,6.7179599550905085,0.09703923949069801
36.430192,6.710180401045421,0.09638011924866277
36.434788,6.699291848066324,0.09571722413772177
36.43938,6.686604426191932,0.09506735145630668
36.443956,6.674405743174123,0.09438851323883571
36.448556,6.660408191261019,0.09372208402893609
36.453144,6.644489585738473,0.09307326679504857
36.457736,6.618843527454573,0.09252679534493266
36.462328,6.591154230847088,0.09200224789516087
36.466908,6.565141618420752,0.09146944519788142
36.471516,6.5361863332231795,0.09096478417378853
36.476104,6.5075976021680475,0.09043439639372641
36.480692,6.488614139160121,0.08980654406161334
36.485288,6.469875045580484,0.0891618451454577
36.489868,6.4564103739725915,0.08849028294286561
36.49446,6.448953232621312,0.08775259669165524
36.499048,6.448036501831859,0.0869614403676305
36.503648,6.441767305805146,0.08624615577830086
36.508236,6.44269358535962,0.0854911654961119
36.512836,6.445951614114597,0.08474294091346674
36.517428,6.457548922326697,0.08393781802062483
36.522032,6.467758057234567,0.08316925649326908
36.526624,6.481320560504737,0.08239666806835994
36.53122,6.493739259898967,0.08164205495463402
36.535812,6.503870351541319,0.08092483988734733
36.5404,6.516577561812468,0.08020500373821951
36.545004,6.531083640978913,0.07947703373569756
36.5496,6.5523745001354765,0.07869095963503404
36.554196,6.579428520120364,0.07785952894178748
36.558796,6.605216551515166,0.07705568967005685
36.563388,6.6355017551482085,0.07623435731005704
36.56798,6.668118707981757,0.07542558313216954
36.572568,6.699591856939366,0.07464743572397133
36.577164,6.734662743687568,0.0738635817251298
36.581752,6.767279696521116,0.07308645059887252
36.586348,6.796465237726847,0.0723713546637653
36.59094,6.826794582808516,0.07165111757275883
36.595532,6.858512101194417,0.07089942835724193
36.600124,6.887409131523227,0.07017352078476058
36.604704,6.917572150442123,0.06943301500251092
36.609296,6.940050954923252,0.068744213567508
36.61388,6.965961171032201,0.06801626101639308
36.618468,6.992770821588798,0.06729248346677533
36.62306,7.02468856795436,0.0665310356198991
36.62764799999999,7.060037725947742,0.06572890656116194
36.63224,7.093954569188264,0.06492065196082968
36.636836,7.130691900485875,0.06410802658560061
36.641424,7.164730928440545,0.06330888109037629
36.64602,7.19517221860462,0.06252240289174454
36.650604,7.228023301234722,0.06170621492351064
36.6552,7.257398830788376,0.06089538009894192
36.659788,7.283543176693876,0.060074947210573874
36.664388,7.304945980932847,0.059276768504368166
36.668968,7.318664570734051,0.058515313273642955
36.673568,7.328541053316373,0.05777031605996359
36.678156,7.3340425483746,0.05702469672206505
36.682748,7.332881448156856,0.05630655566071158
36.68734,7.332497597672615,0.05559188030195022
36.691932,7.323896652445398,0.05488714367932239
36.696532,7.306589873618622,0.05421717484700744
36.701132,7.29054908338193,0.053521864979474934
36.705724,7.263759221222092,0.05287343528608112
36.710316,7.22863007960513,0.05223866341397353
36.714904,7.183529115798526,0.05165422114322628
36.719488,7.1310324484310765,0.05112297590630713
36.72408,7.068441774159837,0.050643790761577934
36.728672,6.996368016555536,0.05018772885797665
36.733264,6.919063978428122,0.04976285620769197
36.737844,6.839472332548829,0.049355680367577835
36.742436,6.750930483641688,0.048985776383259454
36.747016,6.65830215808737,0.048632289019973914
36.751608,6.565840158695827,0.0483088142826777
36.756204,6.468392248209463,0.04800391272135106
36.760792,6.368001664951863,0.04770321865346228
36.7654,6.2650791045140934,0.047435398260870947
36.769988,6.158725132448506,0.047200772428479525
36.774592,6.047795944879162,0.04701662381161713
36.779188,5.929837607891409,0.046867922667874116
36.783776,5.812289966494721,0.04673967094881093
36.788376,5.697318443726831,0.046612385922311685
36.792968,5.579692759064626,0.04652906584294193
36.797564,5.464398823602927,0.046466002255955326
36.802152,5.353479875665323,0.04640251131063786
36.806752,5.243093808032928,0.046363267933625135
36.81134,5.132585555686387,0.04633271771244626
36.81594,5.029517148349322,0.046285770488563444
36.82052,4.927881055765114,0.04626190183607315
36.82512,4.826900028200264,0.046254903568163405
36.829716,4.722854143150032,0.04627170352722333
36.834312,4.622161626462101,0.04630770846407225
36.838904,4.523678674260531,0.04638218054428382
36.843496,4.4231524837353735,0.04647593007138518
36.8481,4.3252024118390135,0.04658412275644193
36.852696,4.233426196362044,0.04670302558105464
36.857292,4.1456142728181025,0.046792097857676365
36.861888,4.061644456493044,0.04686307388364313
36.866476,3.9816389321010126,0.046911043572825266
36.871068,3.908296002984954,0.046927384771771996
36.87566,3.8412491150024297,0.04694581719365388
36.880248,3.771259554248671,0.04698528253825422
36.884828,3.7013921782090584,0.047015810357312365
36.889408,3.633445855778887,0.047037629221599826
36.894,3.5625568605774807,0.04707754549525146
36.89858,3.4937111036996606,0.04709892192064548
36.903172,3.4298512579166633,0.047068227382787625
36.907768,3.36586922741952,0.04704701383659818
36.912356,3.3057293041412597,0.04700178443087339
36.916952,3.249553672796028,0.046917137869509074
36.92154,3.1979973984031806,0.046821656132857596
36.926128,3.149383796781569,0.04669993050872693
36.930724,3.0990935109788067,0.046566068916926155
36.935312,3.049580474909547,0.04644968627979576
36.939908,3.0039095460591696,0.04630462416703539
36.944504,2.9536192602564073,0.04617009965039828
36.949112,2.9001419322541193,0.04608976322805421
36.953692,2.847441853985333,0.0460205138770313
36.958292,2.799605502097223,0.0459000866769852
36.96288,2.7488264774378783,0.04580019631160037
36.96748,2.693550280540294,0.04569374824358302
36.972072,2.647879351689917,0.045507524546944116
36.97667199999999,2.6019640534112485,0.045350949558350465
36.981264,2.5569481895802277,0.045191788776223214
36.98586,2.5115657716067705,0.045085660352054684
36.990448,2.467982222528608,0.04497801103811866
36.99504,2.423132684860361,0.04491139814015615
36.999644,2.375462659135025,0.044860172556998805
37.004236,2.326115949228539,0.044774490196785754
37.008828,2.274726000998465,0.044713088893650575
37.01342399999999,2.22423548721604,0.044651463962143666
37.018,2.169902866214732,0.04461938702576045
37.022588,2.1158146146417147,0.044539800739050533
37.027176,2.060294048315839,0.04438961305663732
37.031768,2.0020751786470203,0.044213360991995576
37.036364,1.947698416197084,0.04398862215898518
37.040956,1.8954870767848808,0.0436887852842586
37.045552,1.8404552493155881,0.043394303772616556
37.05014,1.7767175882467363,0.043174105327390154
37.054732,1.7138793616255321,0.04293925421403795
37.059316,1.6548832422232111,0.04262428447670519
37.063904,1.5891023428307725,0.04234200480629584
37.068512,1.5312500273043907,0.04189947106949066
37.0731,1.470699408435065,0.04139733183511318
37.077692,1.412436397317618,0.040753991084151654
37.082284,1.3514750828572275,0.03851815149623707
37.086872,1.286671661177954,0.036285293626362486
37.091464,1.223667108393976,0.034038314239994205
37.096044,1.1563317095345327,0.03184121972541948
37.10064,1.0868308876373571,0.029650269282856037
37.10522,1.0146317623972374,0.02746145079117513
37.10982,0.9452531252142072,0.025259144902640793
37.114404,0.8775511722123269,0.023094322723897456
37.119008,0.8115259033915968,0.02097139116389113
37.123592,0.7479545684855189,0.01889148503421518
37.128188,0.6842610488652953,0.016849516854191282
37.13278,0.6213447789785738,0.014852721151174857
37.137376,0.5612489971489415,0.012852143288577386
37.141972,0.5085930603287835,0.010829212205211535
37.146572,0.4566545280495619,0.008825821199040055
37.151164,0.4053710607896967,0.006909106519481656
37.155756,0.35768533132042296,0.00502878251758308
37.160344,0.30681255965162296,0.0032805244227876755
37.164932,0.2604369602210623,0.0015953754484110633
37.16952,0.21663747941929942,0.0
37.174116,0.17733517085577583,0.0
37.178708,0.1436738384064307,0.0
37.1833,0.1128329940141748,0.0
37.187896,0.09243451259519372,0.0
37.192484,0.07420145421394533,0.0
37.19708,0.05860685398307475,0.0
37.201668,0.04654765202121566,0.0
37.206256,0.04131737149810238,0.0
37.210848,0.04177220853779569,0.0
37.215436,0.0472570981209391,0.0
37.220044,0.056383866943302066,0.0
37.224624,0.07005194945253244,0.0
37.229212,0.09210345286751298,0.0
37.233804,0.11677521635991955,0.0
