Time,Force,Position
38.806036000000006,1.0379058568020014,0.020415819595553268
38.810628,0.9982085563913502,0.018919229966988145
38.815208,0.9604323095901406,0.017412451824064354
38.81979200000001,0.915993467512959,0.015922186008972175
38.824380000000005,0.8722096904551336,0.01448368432924091
38.82897200000001,0.8358657584067826,0.01307828800824022
38.833564,0.8054071719009014,0.011628956395449471
38.83814,0.780467376795053,0.010223055294587407
38.842736,0.7534843433656174,0.008852167626501522
38.847316000000006,0.72151539884136,0.007501311206943419
38.851896,0.6905680734788959,0.006167995984461883
38.856492,0.6630963011928779,0.00491627745091901
38.86108,0.6386113431267226,0.0037943441445543354
38.86567600000001,0.6099618651478758,0.0027453620041535034
38.870264000000006,0.5839326472464549,0.0018053778936343737
38.874852,0.5605236894224601,0.0008786074773603753
38.879448,0.5433327294664828,0.0
38.88404,0.5318710285219403,0.0
38.888644,0.5263829560171239,0.0
38.893232,0.5240480238949444,0.0
38.897836,0.5269094704789888,0.0
38.902424,0.5322689924263135,0.0
38.90702400000001,0.5439686969558013,0.005833396968932717
38.911612000000005,0.5647068874103958,0.011816617295324674
38.916208,0.59076364128536,0.017865725257414478
38.920792000000006,0.6191962858094587,0.02407677452560195
38.925384,0.6529474937539271,0.030229689011798476
38.929976,0.6890745923475301,0.036517491435984414
38.934572,0.7342401768662399,0.042785484196127994
38.93916,0.7912647353671455,0.04890163076584379
38.94375600000001,0.8585598665663534,0.05511448626887569
38.948348,0.934204516854422,0.06136030000602837
38.95294,1.0131686336879013,0.06784080035396947
38.95752,1.1005161714271305,0.07435165744070167
38.962112000000005,1.1966136842145472,0.08076629571315827
38.9667,1.2895241548024374,0.08736510954944032
38.971292000000005,1.3842334942856236,0.0939390891618549
38.975888,1.4802088223588943,0.1004993877767694
38.980476,1.577983019327461,0.10705825636479527
38.985068,1.6774339004771777,0.11363510858153307
38.98966,1.7792165308274008,0.12022035892835169
38.994252,1.8876617564535962,0.12669234509597416
38.99884,1.996762047099148,0.12733264407821668
39.003428,2.1083162716593518,0.12781797398994818
39.008032,2.218604507629471,0.12831610140046423
39.01262,2.3323682966760355,0.12862284233001012
39.01723200000001,2.4456433468660177,0.12901773054158097
39.02180800000001,2.5603507118088578,0.12932068890530155
39.026396000000005,2.6757131417710553,0.1296353016393703
39.030992,2.787355649228515,0.1301201137692109
39.035584,2.8938798212452697,0.13045665638171144
39.040184,2.9860469439165467,0.1309089035904671
39.044764,3.075261154184851,0.13108569533378633
39.049364,3.1614444087846634,0.131179843198179
39.053948000000005,3.2407987419457305,0.13142527574977936
39.058552000000006,3.3244839211822628,0.13143658973684913
39.063144,3.4062039053607256,0.13143646129110434
39.067744000000005,3.4876353786622687,0.1313968165071011
39.072328,3.567346026334034,0.1313126063558444
39.076924000000005,3.644558598642519,0.13118297365637685
39.08151600000001,3.716819161673071,0.1310399902403606
39.086112,3.7796746846360794,0.13107644492060566
39.09070800000001,3.83660072060799,0.13119749675906212
39.095308,3.8870643892835917,0.13138577283225328
39.099896,3.9369510362053552,0.1314658680667403
39.10449200000001,3.9816413044208936,0.1315642476316196
39.109080000000006,4.024977301149091,0.13157480890398662
39.113668,4.0665483307988834,0.13146784925551663
39.118256,4.103045166456596,0.13136415075219524
39.122848000000005,4.135122873141587,0.13126556985969834
39.127444,4.168588753130809,0.13111373660124448
39.132036,4.211127020862027,0.13070159355775685
39.136628,4.255586342202686,0.1302595296988488
39.141216,4.294893426285749,0.1298992982952419
39.14581200000001,4.337221226405566,0.12939291662412156
39.150400000000005,4.37374172424843,0.12896167548187598
39.154988,4.405232169547843,0.12859583159594248
39.159584,4.426951020637276,0.12839585560971428
39.16417200000001,4.443517634469112,0.1282730823755316
39.168760000000006,4.453255326862204,0.1282463192011672
39.173356,4.460294715912353,0.12826918665017056
39.177944,4.468189397961519,0.12820712267349282
39.18254,4.480370784637523,0.12793997736157658
39.187136,4.494673452902633,0.1275376011091257
39.191728,4.505989306947878,0.12714583082740713
39.19632,4.51521778122091,0.12674624141915747
39.200912,4.520437822112284,0.1263853869466987
39.2055,4.52116069076542,0.1261068723631162
39.21009600000001,4.517508571894462,0.1258962369495857
39.214688,4.515488995756026,0.12559932103801777
39.219284,4.506273944036407,0.12543104446463413
39.22388,4.488719612859664,0.1254271188516183
39.228476,4.466013044425328,0.12549049082269081
39.233068,4.447270767924021,0.1254555942932253
39.237664,4.421210831127382,0.12555265310844493
39.24225200000001,4.400503359568004,0.12548825625443055
39.246840000000006,4.381716941618067,0.12538287647022228
39.251428,4.372657976429483,0.12505738926972818
39.256016,4.364742815116839,0.1246923046937236
39.260604,4.362346445204225,0.12422084558238615
39.265204,4.36505817110058,0.12361622112226961
39.269792,4.371123265359235,0.12297772854167455
39.274392000000006,4.371835894380633,0.12249669770828724
39.278984,4.371038165383653,0.12208881929375166
39.28357200000001,4.37563704307256,0.12159885129892782
39.288172,4.3819126049426185,0.12109292629065943
39.29275200000001,4.390642100727328,0.12056951849273069
39.297348,4.400803911264896,0.12004911816925352
39.301944000000006,4.418527751526084,0.11938363283576829
39.306532,4.4347412337688965,0.11879152833126858
39.311136000000005,4.457783637450454,0.11812559714583831
39.31572,4.487122082265547,0.11736147346234388
39.320308,4.5207133298905875,0.11655630058115715
39.3249,4.551117535316101,0.11584129991429745
39.3295,4.587451227732713,0.11506157346742278
39.334104,4.6181880854837765,0.1144595525996753
39.338696,4.652400496311284,0.1138243942640566
39.343292000000005,4.683181495510974,0.113305391129942
39.347872,4.7182152975206115,0.11275104971336833
39.352464,4.755703033444902,0.11219200879798702
39.357044,4.788982108007874,0.1117415864435136
39.361648,4.818296890637815,0.11137375758822723
39.366236,4.852353214934288,0.1109257919761009
39.370836,4.890129461735496,0.11042708396077593
39.375428,4.919977124670649,0.11008870346839081
39.380024000000006,4.951379287072806,0.10975413401629283
39.384612,4.981637645599024,0.1094552734137801
39.389208,5.01586029605827,0.1090867701979433
39.393796,5.047140273746282,0.10878132418015218
39.398392,5.081607293633821,0.10840904494646952
39.402984,5.106180534597232,0.1081541141732381
39.40758,5.129854341112996,0.10791577969228347
39.412168,5.149808225124023,0.10773166364956331
39.416752,5.172949151334575,0.10747916837563494
39.42134,5.192736709182828,0.10725096730730516
39.425924,5.211214136992367,0.10700115577386743
39.43052,5.224417142830165,0.10680667676274833
39.435108,5.2345111497339545,0.1066145188373395
39.4397,5.241496157703735,0.10642848959961496
39.444288,5.24729322034895,0.10621897484209744
39.448876,5.254600641012539,0.10595233598402302
39.453484,5.264562223570444,0.1056005075325565
39.458072,5.271292622480195,0.10526261679050374
39.462684,5.27287078413235,0.1049660802784158
39.467272,5.278002542126468,0.10457346438713898
39.47186000000001,5.277204813129489,0.10422033083031775
39.476456,5.276240757969735,0.10382173295983493
39.481044,5.27167896501939,0.10346353026605401
39.485648,5.265318303173751,0.10312397100192355
39.49024,5.253194480499785,0.10286750103856923
39.494832,5.248754872263586,0.1024979159511188
39.49941200000001,5.24083971095094,0.10215630134399588
39.504012,5.234068353514234,0.10178629597130716
39.50859200000001,5.225498127182232,0.10143536634916661
39.5132,5.219093323887964,0.1010384856171607
39.517788,5.216652812526724,0.10057673964013064
39.52238800000001,5.217277158650863,0.10006010846637448
39.526972,5.224686284765122,0.09944719337253916
39.53156800000001,5.230052172555793,0.09886941497800036
39.53617200000001,5.229532714803994,0.09837974010231111
39.540768,5.228768887623902,0.09790896400566984
39.545356,5.226739071853728,0.0974753492440282
39.54994000000001,5.228306993874145,0.09701068749491663
39.554532,5.231673784789856,0.09652879067729263
39.559128,5.234918390991423,0.09605707503749614
39.563712,5.243559603878875,0.09553634670300189
39.568308,5.249135959280948,0.09506559123567462
39.5729,5.252136196054223,0.09460812042232782
39.57749200000001,5.258323475027024,0.09409272193188481
39.582088,5.2678199809134965,0.09350660348187788
39.586676,5.274862552885318,0.09292915873661628
39.59127600000001,5.282149494285431,0.09233076698740304
39.595868,5.2877597515043915,0.09173772456423539
39.60046,5.292470574275707,0.09115258972485098
39.60504400000001,5.298203016208815,0.09055628341081193
39.609636,5.303036023694274,0.08997015732093806
39.614244,5.307091781446231,0.08938520318353632
39.618832,5.304240574493925,0.08889485243083077
39.62342,5.300489933093972,0.0884076763868384
39.628016,5.3005813989129,0.08787194045295185
39.632604,5.30349335278892,0.08731032974773414
39.63720000000001,5.307671295255023,0.0867178487293337
39.641792,5.307107696054597,0.08617788992074558
39.646384,5.305644662406523,0.08564416398147691
39.650976,5.302382759863152,0.08512203850159314
39.655568,5.296544738690983,0.08461124571509362
39.66014800000001,5.29442664002355,0.0840653754147562
39.66475200000001,5.2941074102514145,0.08350401282268541
39.669344,5.291867126869839,0.08296641510462055
39.67394,5.290159723793472,0.0824504276873272
39.678532,5.29000682018411,0.08194091633142941
39.683128,5.291286231327607,0.0814447553334972
39.687724,5.293342892204606,0.08094967363928632
39.69232,5.296176802815107,0.08045749480058426
39.69690800000001,5.29582367122608,0.08001825668204894
39.701504,5.2960034199422665,0.07960059636022167
39.706096,5.291974507297133,0.07924545825347439
39.710688000000005,5.293464386052031,0.07884951294463974
39.71528000000001,5.298429817883376,0.07843970178628723
39.719868000000005,5.302129261124635,0.07806097952105243
39.724456,5.298144489928129,0.07775859368027388
39.729044,5.295469848770336,0.07748215409691434
39.733632,5.291651403736604,0.07722606788910519
39.738224,5.289387458169877,0.07697693950134345
39.74282,5.289577446517801,0.07672943229922788
39.74740800000001,5.291199749618584,0.07649802335828373
39.752004,5.293721487167016,0.07626341853586104
39.75658800000001,5.298697158630098,0.07603219895295915
39.761176000000006,5.303306275950744,0.07582715443058129
39.765784,5.307138143537888,0.0756192767431732
39.770372,5.311747260858534,0.07541695499503655
39.774964,5.3186439859310575,0.07517385919662523
39.779552,5.330282252670113,0.07489509401943201
39.78414000000001,5.342819953856816,0.07461361745894536
39.788736,5.356257089491168,0.0743278792064225
39.793324,5.370960213715604,0.07401646509165105
39.797928,5.391426498768363,0.07365543355979517
39.802508,5.406496177135236,0.07332017312763753
39.807108,5.426551766596931,0.07293957262233643
39.8117,5.451593267153447,0.07251161053517578
39.816292,5.4875060243472555,0.07198199992311333
39.82088400000001,5.5162233059598815,0.07148137574663872
39.825476,5.550948117829121,0.07092118533950378
39.83006,5.586938918288447,0.07033992095010483
39.834652000000006,5.625339511213797,0.06972120599117017
39.839256000000006,5.660020181634411,0.06912253222981553
39.843852,5.689959310388493,0.06855803247602184
39.848444,5.718466124389716,0.06798137638489585
39.853036,5.746195688657436,0.067400601295641
39.857624,5.774824687372806,0.06682078183345361
39.862212,5.797934894688143,0.06626712922200108
39.8668,5.817858059803952,0.06575748089940477
39.871388,5.8340613024150265,0.0652734471970741
39.87598,5.849487295292597,0.06478698459009362
39.88056,5.864502592579103,0.06427354331555615
39.885144,5.876697401808519,0.0637787506466288
39.889732,5.889913830199729,0.06327983125260432
39.89432000000001,5.9059507466480285,0.06276474735993243
39.898924,5.914670002800999,0.06228220162824306
39.903512000000006,5.9172154025345804,0.061810333575248746
39.908108,5.911177153382749,0.06139000097223286
39.912696,5.914744172278124,0.06091317441144263
39.917284,5.912548030345175,0.06047077005210991
39.921888,5.907531400355137,0.0600421910138247
39.926484,5.901248781775013,0.05964037521140698
39.931088,5.899297009270355,0.05918753782335151
39.935672,5.900410094251077,0.058706499097423676
39.940264,5.901278809803509,0.05824061876718519
39.944856,5.902269710070087,0.05776660516904604
39.949452,5.900317937565427,0.057311067113590575
39.954032,5.9041293258890954,0.056824480731452014
39.95864,5.909084518088701,0.056321876230808234
39.963232000000005,5.911341406945363,0.055821786489605923
39.967828,5.910655623030791,0.05533823370952011
39.972412000000006,5.910624904135574,0.0548680864080792
39.977008,5.912393054135653,0.05439634568897073
39.981596,5.908520228021555,0.053945908265317234
39.986188,5.905791205783394,0.05348118089254923
39.99078,5.903717248564591,0.05302830232731127
39.995372,5.905651724727444,0.05260000939057404
39.99996,5.911183938680889,0.052168084670140974
40.004548,5.909931372644216,0.051772612095958376
40.009136,5.913542532988219,0.051352677670025534
40.013732000000005,5.917031508618077,0.05093927465990712
40.01832400000001,5.916800561743198,0.05053552283764554
40.022916,5.911994399364562,0.050189791722075765
40.027512,5.906943867557634,0.049858420688078685
40.0321,5.901116086017204,0.04951974073394056
40.036684,5.898108792533863,0.04917381706934169
40.041272000000006,5.897022552659965,0.04881945071644441
40.045860000000005,5.892871455300684,0.04848760126153512
40.050456,5.886799304331964,0.04816208789450333
40.055044,5.882159468116102,0.047855877960704625
40.059648,5.882261173566769,0.047534933351378574
40.064236,5.880197455979705,0.04723459578740073
40.068824000000006,5.873392196726109,0.046946978769296516
40.07342,5.867364187206015,0.04666437707020666
40.078012,5.857005331610457,0.046423536150564666
40.08260800000001,5.845747041567251,0.04618103096055093
40.087188,5.83293425205704,0.04592399881693194
40.091788,5.8114156289472705,0.04569793720455057
40.09637600000001,5.785932713904472,0.04548961938932082
40.100976,5.753298464729121,0.04532891161178581
40.105568000000005,5.718743161944327,0.045172583104474966
40.110164,5.681000816960006,0.04504333721404903
40.114748000000006,5.643747210832268,0.04488214065104226
40.119344,5.602529312771502,0.04474062522387093
40.123940000000005,5.560167610834795,0.04461102960698035
40.128536,5.509877325032034,0.04452180659927724
40.13314,5.456766551172183,0.04443602381813579
40.137732,5.40197909313118,0.044338100439584235
40.142324,5.346047831214241,0.04425264085739499
40.146908,5.287662635382648,0.044146438430552715
40.1515,5.2208159753797885,0.04405386335315996
40.156088,5.152170446481632,0.04395822759097275
40.160676,5.084302167316978,0.04386865257330631
40.165272,5.0147572039711745,0.04376410010978141
40.169856,4.944312806177722,0.043658842111347754
40.174444,4.866961443680006,0.04358863277744847
40.179044000000005,4.780004813135084,0.043549707815927395
40.183632,4.700610212313781,0.043490649677623346
40.188228,4.6262015225873006,0.043395015265872104
40.19281600000001,4.553958255898553,0.043272311179530704
40.197404000000006,4.481837173923951,0.04313342795344255
40.202,4.407139973320552,0.042980028714563516
40.206592,4.33052171910771,0.04282487996729058
40.21118,4.253126215161367,0.04265521116972472
40.215776000000005,4.171888603996141,0.042495788352908175
40.22036800000001,4.0917947967068535,0.042313968957486445
40.224972,4.008880501360478,0.04213020610870072
40.229564,3.9209802949192794,0.04197481971780814
40.23416,3.8285829162398426,0.04180319559745272
40.238748,3.7338979298085264,0.04166695032774627
40.243348,3.642932865881948,0.04151483258864772
40.247924,3.550946182793576,0.041368544583481
40.252528,3.4562611963622603,0.04120817975224641
40.25712,3.3603102213408595,0.04107243657805888
40.261712,3.2637041813001026,0.0408982325535532
40.266308,3.1738829212494633,0.04067999803409863
40.2709,3.0897026373130023,0.04043714172051612
40.275492,2.998449062509504,0.0401321673899484
40.280084,2.900166338287597,0.03988097876000588
40.284672,2.798041506846807,0.0396292638700556
40.28926800000001,2.6918301987588427,0.03940998982575086
40.293856000000005,2.5912598667850575,0.03915585614505334
40.298444,2.492366218992422,0.03890170452162946
40.303032,2.397436863132815,0.038573128006327916
40.307628,2.3055723647585884,0.038167192636336264
40.31222,2.21460730083201,0.037733347211231366
40.316812,2.122742802457783,0.03723613282960909
40.321408000000005,2.0349647807307307,0.036617363980267444
40.325996,1.953482800137213,0.03600302326568467
40.330596,1.8739218731531373,0.035346250349221904
40.33518,1.7942387614549153,0.034662186252303065
40.339788,1.7165988880802807,0.03388479283522995
40.344376,1.6425567524962372,0.033083559562941345
40.348964,1.5715794743975744,0.032159556722057
40.35356,1.501379446032414,0.03116537144664344
40.358144,1.4322010368290468,0.03008396338376807
40.362748,1.3639220620733277,0.028920541482311674
40.367344,1.3013282048804151,0.02792976860411568
40.371932,1.2446196932299722,0.026072141152046403
40.37652800000001,1.1933077882654166,0.024229788573633306
40.38112,1.14481637135795,0.02238094481687875
40.385712,1.0951811505745446,0.0205687585854026
40.390292,1.048366417848228,0.01877647550884854
40.394896,0.9974652084747373,0.01706773312594191
40.39948,0.9470968794064577,0.015435775970703601
40.40408000000001,0.9003262881287696,0.013841635919858286
40.408672,0.8617727915940577,0.012323495162701441
40.413268,0.8246516098122044,0.01091809884170075
40.417852,0.7885520471921447,0.009527018476823962
40.422448,0.7583378301145548,0.00816415585490969
40.427036,0.72518094026573,0.0068512115481614965
40.43163200000001,0.6908802465409658,0.005629797836696118
40.436212,0.6567017375303476,0.004449410441621726
40.440796000000006,0.6219123049490007,0.0033904322369572603
40.445388,0.5926416637676867,0.002435173723259612
40.44997600000001,0.5601839803868466,0.0015918912563309994
40.454556,0.5314462195107436,0.0008459411695432268
40.459148,0.504996066386519,0.0
40.46374,0.48022259744344425,0.0
40.468320000000006,0.4565929323763088,0.0
40.472916,0.4387264281374974,0.0
40.477496,0.42392478138406664,0.0
40.482088000000005,0.41002256907828377,0.0
40.48668000000001,0.39881866011544437,0.0
40.491268000000005,0.3865931319908114,0.0
40.495872000000006,0.37166930052323494,0.0
40.500468,0.35343624214198666,0.0
40.505056,0.33904529097962105,0.0
40.50966,0.32453215510310973,0.0
40.514252,0.30491092341763076,0.0
40.518844,0.29375115590341955,0.0
40.523432,0.28721074534159324,0.0
40.528032,0.28042596535147557,0.0
40.53262,0.27682822756088415,0.0
40.537212,0.26938838255141007,0.0
40.541804,0.2686111328179079,0.0
40.546396,0.2657906447608187,0.0
40.550992,0.2629701567037295,0.0
40.555588,0.2591280494848467,0.0
40.560176,0.25414213839002475,0.0
40.564768,0.24891185786691145,0.0
40.569368,0.24331502320136114,0.0
40.573964,0.2337538966027824,0.0
40.578556000000006,0.22791269250894075,0.0
40.583148,0.2269352147957754,0.0
40.58774,0.2295554748732014,0.0
40.592324000000005,0.233930462397295,0.0
40.596912,0.2342189732742145,0.0
40.601504000000006,0.23552910331292753,0.0
40.6061,0.23876028696108192,0.0
40.610692,0.24109203616158847,0.0
40.61528800000001,0.24444540452388852,0.0
40.619876000000005,0.25049707622913214,0.0
40.62446800000001,0.2545055096107887,0.0
40.62906,0.2613344310495345,0.0
40.63364,0.2634218108217497,0.0
40.638236000000006,0.2664086250416128,0.0
40.642824000000005,0.26645276649024097,0.0
40.647412,0.26931739599595833,0.0
40.652008,0.27320364466346925,0.0
40.6566,0.2714489172168017,0.0
40.661192,0.27071580893192765,0.0
40.665788000000006,0.2738248078659364,0.0
