Time,Force,Position
38.45597599999999,0.06552483618533769,0.0
38.46061599999999,0.05591956813813083,0.0
38.46526,0.048357538414511,0.0
38.469892000000016,0.043738181462126074,0.0
38.47452799999999,0.03834157477623896,0.0
38.479172000000005,0.0338444025379997,0.0
38.48380399999999,0.03577273226959738,0.0
38.488444000000015,0.036672166717245235,0.0
38.49307200000001,0.04039208922198231,0.0
38.49771200000001,0.04578869590786942,0.0
38.50234,0.05017095955411931,0.0
38.50698800000001,0.055445381525860746,0.0
38.51163199999999,0.058798749888160806,0.0
38.51628,0.05945381490751731,0.0
38.52091200000001,0.05986451049858248,0.0
38.525548000000015,0.06244062912738037,0.0
38.53017600000001,0.06321787886088254,0.0
38.53481199999999,0.06489456304203257,0.0
38.539444,0.06968024615719132,0.0
38.544072,0.07705228753288673,0.0
38.548704000000015,0.09252947856915159,0.0
38.553336,0.1161118192659859,0.0
38.55796799999999,0.14833218992860048,0.0
38.56260399999999,0.18661447192819747,0.0
38.56724,0.2328797188742182,0.008555550548968623
38.571876,0.2901927882520433,0.016656706023059555
38.576516,0.35303488866163996,0.02483439231432488
38.581144,0.4241043234459518,0.033001210357693225
38.58578399999999,0.5013578542813917,0.04115933570224494
38.590412000000015,0.5858171003297532,0.04919650228078806
38.59505999999999,0.6830008529910689,0.05711468601390814
38.59970000000001,0.7878010164563716,0.06507505567377572
38.604332,0.9049591323921915,0.07292451266850107
38.608968,1.0296114744178526,0.08087378406661462
38.61359999999999,1.1612251622281438,0.08889145971329883
38.618232000000006,1.2982898378046894,0.09700879595520402
38.62286,1.4492669653187567,0.10498158555930504
38.627508000000006,1.6148116097897018,0.11285175716874193
38.63213999999999,1.7878843821673776,0.12068530840078678
38.63677200000001,1.966632032476121,0.1283323528978721
38.6414,2.1414051512200976,0.13593786518077222
38.64603199999999,2.311304303951659,0.1435271891661091
38.650676,2.4728539375943597,0.15114869548746468
38.65531999999999,2.6303068549581474,0.15874412682614067
38.659952,2.784684675204816,0.15772199708372192
38.66459599999999,2.929735498649458,0.1571932928081896
38.669224000000014,3.0735100938722764,0.15647107197210897
38.67387199999999,3.2129436033878904,0.1557292212521963
38.678516,3.345093354425065,0.1550552536226637
38.68314799999999,3.470448085840384,0.1544678484772879
38.687792,3.589252167062137,0.1539332477805445
38.69242,3.695986806690293,0.1534931893070922
38.69705999999999,3.7933503080677946,0.15316301477862032
38.701696,3.8864507670036086,0.1526746384989166
38.70634000000001,3.974266564335944,0.15208122838451704
38.710972,4.05896312310253,0.151301370632938
38.71560400000001,4.128359056627366,0.15074081457508315
38.720236,4.1861301459665565,0.15021989143999318
38.724868000000015,4.238372204273976,0.14965476815080941
38.729512,4.281209222513853,0.14930674626706583
38.734144000000015,4.3209372418197205,0.1490002565975074
38.738776,4.362542173286402,0.14858917196370397
38.743416,4.407700701095045,0.148040386990619
38.74805599999999,4.451260587988056,0.14745587677934457
38.7527,4.489257542032407,0.1469458650662185
38.75734800000001,4.522302486798825,0.14643358488689748
38.76198400000001,4.547985629821287,0.1460399869681372
38.76661999999999,4.569494013299319,0.14564927264185915
38.771256,4.590014679432445,0.14514892226938889
38.77588800000001,4.604072978269262,0.14473155093156004
38.78052,4.615633201742799,0.1442936001824535
38.78514799999999,4.634178433186118,0.14358809579338744
38.78978000000001,4.647649470637357,0.14289533788215894
38.79441600000001,4.657478628849378,0.14222140234909025
38.79905600000001,4.663421538393888,0.141584122606512
38.80369200000001,4.665722568699179,0.1409654923977621
38.80832000000001,4.671699380060578,0.1401991985367027
38.812952,4.672401769450236,0.13952828326710678
38.81759600000001,4.670772409639386,0.13888142184166122
38.822228,4.672818830884647,0.13809301350964778
38.82687200000001,4.671756253195898,0.13732378844042473
38.831512,4.664275449659469,0.13669007799064908
38.83614,4.649476985827711,0.1362052078397029
38.840788,4.634023456976597,0.13571267570136575
38.84543199999999,4.618569928125483,0.13521758062633124
38.850064,4.608635190674401,0.1346067875842841
38.85470799999999,4.599599887670967,0.1339760004636611
38.85933600000001,4.590564584667534,0.1333429508538949
38.86396400000001,4.585004834740546,0.13265640288980435
38.868600000000015,4.586229864803675,0.13180925728441087
38.87322800000001,4.581325179896044,0.13112387057084715
38.87786800000001,4.572334018341239,0.13055067181861357
38.88250400000001,4.567717844310528,0.12990561031572087
38.88712799999999,4.561713496975585,0.12931889756809886
38.89176800000001,4.55775238796423,0.12867578257517193
38.89640800000001,4.549460432877409,0.12816116275714748
38.90104400000001,4.536060381981621,0.12778178672129356
38.905688,4.52805693777172,0.12730394589963964
38.910336,4.516744266648146,0.1269296908530093
38.91496000000001,4.502000183896755,0.12667050201757127
38.919612,4.492530523117106,0.12632581471914828
38.92426,4.48743584986155,0.12591281976108876
38.92890399999999,4.487859968006026,0.12539258496303052
38.933548,4.488450412313276,0.12492718523467229
38.938176,4.492760779125264,0.1243895498833074
38.942804,4.494905722899519,0.12391973996376983
38.94744399999999,4.497705731693133,0.1234571289049259
38.95208400000001,4.5011608055061005,0.12300223312260655
38.956716,4.4986083490624535,0.12269372003873218
38.961356,4.489926177648045,0.1225406882848862
38.965992,4.489705470404904,0.12222146810792875
38.970628000000005,4.491039262628768,0.12189581599298087
38.975268,4.492905935157842,0.12159179223421801
38.979908,4.498614714905799,0.12120943217177375
38.98454000000001,4.505755809406615,0.12083569829151167
38.98918800000001,4.516083946106956,0.12037168851512481
38.99381199999999,4.535117916406858,0.11972998093971414
38.99846,4.553130267544964,0.11912150204142459
39.00309200000001,4.574085291454308,0.11844551539998074
39.00774000000001,4.594263065630147,0.11776854039734931
39.01237599999999,4.612519786196546,0.1171370963804654
39.017012,4.629222007295941,0.11651778762612931
39.02165199999999,4.643103740338248,0.11595339868141898
39.026296,4.652610485856459,0.1154406261125688
39.03092799999999,4.662239416088816,0.11492462497754428
39.035556000000014,4.671091096587673,0.11441056276193556
39.0402,4.683129819286053,0.11382172597471367
39.04483999999999,4.69811121475567,0.11318157382888505
39.049488,4.718200706034254,0.11242785840426872
39.05413200000001,4.741110685369927,0.11162074999697572
39.058776,4.760545111629154,0.11086522127598275
39.06341599999999,4.779324472869025,0.11010515930896281
39.06806,4.794872650460742,0.10936420909411462
39.072688,4.805679286385928,0.10870324248933592
39.07733200000001,4.810067696463433,0.10813186728046786
39.081976,4.815111171560295,0.10756999844930068
39.08660800000001,4.814391485828833,0.10711355141458839
39.091252,4.810196247020927,0.10669070515553038
39.095876,4.806001008213019,0.10626792901344008
39.100516,4.805647876623993,0.10578045888733525
39.105152,4.8074601680727,0.1052433407268862
39.10977600000001,4.805063798160087,0.10479761557992416
39.114416000000006,4.803689047409269,0.10433029427304395
39.11905999999999,4.806156403877333,0.10379548424777615
39.123692000000005,4.804659468412368,0.10333586698621133
39.12832399999999,4.804061967395052,0.10286498666265327
39.132964000000015,4.798356370568768,0.1024999052708041
39.137608,4.786765428200014,0.10223876977909309
39.142244000000005,4.772520323936944,0.10206964402176047
39.14689200000001,4.759419023549814,0.10186894445388868
39.151520000000005,4.744929549858453,0.10171804168995163
39.15616,4.731217325900595,0.10156582441764261
39.160796000000005,4.715872559210215,0.10148454667685686
39.165436,4.706046583919867,0.1013313031971995
39.17008799999999,4.703293899496558,0.10110638663582922
39.17471599999999,4.703239518416189,0.1008525697645548
39.179348000000005,4.702940767907531,0.10061825250495925
39.18399199999999,4.707672069942324,0.1003547153135997
39.188616,4.714080056158264,0.10008328031811012
39.19325599999999,4.718078249908182,0.099883307955557
39.197888000000006,4.717745597582635,0.0997823778172637
39.20252400000001,4.7259965941425,0.0995559322542374
39.207156,4.734780471007578,0.0993511547685914
39.21180000000001,4.747039900949099,0.09912271628615739
39.216432,4.7600765806241245,0.09889321654185754
39.22106400000001,4.774912129194444,0.0986480419109905
39.225696,4.792445981107708,0.09837454793865102
39.23034000000001,4.811778701916267,0.09807897885871766
39.23498000000001,4.829679107971968,0.0977699376320034
39.239608,4.8474573293135235,0.09747491273135199
39.24425600000001,4.869199842588107,0.09711675449101977
39.24889999999999,4.888776932824958,0.09680701870936202
39.25353200000001,4.91616042221372,0.0963779744626313
39.258184,4.939823989097744,0.09599905420717444
39.262816000000015,4.96205524122891,0.09561468342002884
39.267448,4.981343820588841,0.09527962479443888
39.272088,5.0035750727200075,0.09490167702978532
39.27673200000001,5.023474575650668,0.0945250249279172
39.281368000000015,5.043618448009619,0.09413538353081716
39.286012,5.063884505082715,0.09373584787087773
39.29064,5.090035907698282,0.0932530476862097
39.29527200000001,5.108625280590228,0.09286662423371338
39.299912000000006,5.130523880395846,0.09241778036851261
39.30454399999999,5.148702557696727,0.09201438316735741
39.30917600000001,5.169046658035341,0.09156979130821762
39.313816,5.1886135086404535,0.09112901191022066
39.318444,5.211489586159239,0.09062928279770364
39.32308800000001,5.239473759486989,0.09005584873448233
39.32772399999999,5.272443843909563,0.0894170924937355
39.33236,5.303370690008549,0.08881131576672013
39.33700400000001,5.328412190565066,0.08828346051755137
39.341628000000014,5.3540646146923105,0.08771058259970181
39.34626399999999,5.373298812971874,0.08720002230808294
39.3509,5.395475684022673,0.08665501092753063
39.35552799999999,5.41573150146403,0.0861341879591702
39.360164,5.434432819438384,0.08560761329292525
39.36480399999999,5.452356887679235,0.0850841835124394
39.369428,5.469259336758293,0.08457667721249898
39.37407200000001,5.482441863332615,0.08410463902703356
39.37871200000001,5.497012563211166,0.08359427317432723
39.383344,5.508762775032628,0.08311702074145724
39.38797600000001,5.526520517110706,0.08256346699678742
39.392608,5.540313967255755,0.08206509609582346
39.39724000000001,5.554229602114949,0.08155930364422971
39.401880000000006,5.568922486707647,0.08106080363992847
39.406508,5.582715936852697,0.08057065633431774
39.411156000000005,5.590624041455276,0.08014886808379354
39.415796,5.596488907734268,0.07975954534666636
39.420432000000005,5.6012099701373215,0.0793957817211995
39.42507599999999,5.605520336949309,0.07900343208291047
39.429704000000015,5.617881472341498,0.07851898321634689
39.43434400000001,5.63576139913372,0.07800486705277414
39.438988,5.656583998697178,0.07746241816223108
39.44363200000001,5.673808860470046,0.0769402980253871
39.448272,5.697574132804738,0.07637894635985906
39.45291599999999,5.727102565967755,0.07577391394529817
39.457548,5.756630999130772,0.0751742742774594
39.46218400000001,5.787181051455583,0.07456423873480285
39.46683200000001,5.817608919066249,0.07395894830731206
39.471472000000006,5.847137352229265,0.07336305898625975
39.4761,5.874089666763484,0.07277274028524632
39.48074,5.898221493240616,0.07220896553978759
39.485368,5.921453885270098,0.071649639089953
39.49001200000001,5.943909027566077,0.07108743925091873
39.494652,5.9649318551091985,0.07051442025930589
39.499292,5.984933063490526,0.06995346453934571
39.50393600000001,6.006200260461938,0.06936510660516126
39.50856400000001,6.024891338804553,0.06878313645813941
39.513192,6.040884113804224,0.06821420906183503
39.51782399999999,6.059575192146839,0.06763727906618475
39.52247199999999,6.071603675213481,0.06711031476180604
39.52709999999999,6.0749263246805665,0.06664940696507833
39.531744,6.080170027757092,0.06617954135749758
39.536384,6.090155272500147,0.06568338674574328
39.541032,6.088325684709637,0.06522972101949562
39.545672,6.079955686357296,0.06480952278860952
39.550308,6.067210700480865,0.06439243750622421
39.55493999999999,6.0517674112614905,0.06398042816491252
39.55957599999999,6.043475456174669,0.06350243129703859
39.56420399999999,6.03314026276426,0.06304202537975771
39.568848,6.022805069353853,0.0625788219723538
39.57348400000001,6.012347691229299,0.06212266068030297
39.57812000000001,5.999680748618385,0.06163995894166165
39.582772000000006,5.988279794597555,0.06113229387098789
39.5874,5.97585722141493,0.060632701677742026
39.592028,5.965722255984186,0.060100247037444404
39.596664,5.955587290553441,0.05956613772432175
39.60129599999999,5.944308521246756,0.0590457474095666
39.605936000000014,5.932374686920716,0.05850987189475688
39.61058,5.918519798985235,0.05798393522308239
39.615216,5.90670814937334,0.057438726164665256
39.619856,5.899105161122766,0.05684836926901868
39.62449599999999,5.88483957759622,0.056288064848136206
39.62912800000001,5.86481083324135,0.05575617753048535
39.63376,5.850178695572366,0.055210368845571386
39.63839999999999,5.837345426798677,0.054658686031730956
39.643032000000005,5.827987711101436,0.05410655701005387
39.64767599999999,5.823127167642431,0.053548653813363524
39.652308000000005,5.810215855603225,0.05305106607005602
39.65695199999999,5.798203978011667,0.05255016459031458
39.661608,5.786069915705963,0.0520533336144159
39.66623200000001,5.770215930895522,0.051563488481203686
39.67086800000001,5.757348760304943,0.051104410933200305
39.67550399999999,5.740150743638901,0.05068909357511039
39.680132000000015,5.722586172830422,0.05029417488270323
39.68476799999999,5.701590190394124,0.049943841080299554
39.689412,5.681127088263038,0.049613901693364076
39.69404800000001,5.659764551684303,0.049280958036016086
39.69868,5.638568341268342,0.04899038274717388
39.703316,5.615328892528794,0.04871274431264285
39.707960000000014,5.589679651323222,0.0484712072039858
39.71259599999999,5.560843367918125,0.04825750823800232
39.717232,5.532662149532382,0.04805591171071836
39.72185999999999,5.50141607366126,0.04787468885116331
39.72649999999999,5.473645550866584,0.04769955391780555
39.73112800000001,5.444731224195968,0.04753764571886157
39.735776000000016,5.412752040039972,0.0473970646462697
39.74041199999999,5.371289772550914,0.04728507629679517
39.745052000000015,5.328928070614209,0.04717042322112388
39.749708,5.285666934229855,0.04705253198924736
39.75434000000001,5.241384178683709,0.04693950705548236
39.75897599999999,5.19661268428098,0.04685749958874638
39.763612,5.150042320982954,0.046773335866470735
39.76824400000001,5.108213499351461,0.0466719818602485
39.772876,5.0636863743770215,0.046567427232774884
39.77752000000001,5.013640458002551,0.046468191273702275
39.78214800000001,4.959097369389841,0.04636456539447528
39.78678400000001,4.908152018567723,0.04625835355312535
39.791424000000006,4.852709495507364,0.04615036708136703
39.79606000000001,4.797266972447007,0.04603891642114964
39.80069599999999,4.738104526881912,0.04593366461418814
39.80534,4.6777982774408775,0.04584435646711619
39.809968,4.616714778266342,0.045742573272147265
39.81461200000001,4.5604950054724815,0.04561220208825515
39.81924799999999,4.494014899612058,0.04550151880189113
39.823892,4.424592120980399,0.045406284480599385
39.828536000000014,4.351449419844004,0.04531740452232693
39.83316400000001,4.284969313983581,0.04519833992243221
39.83779200000001,4.214524916190128,0.04510508410605032
39.842432,4.140116226463647,0.045036572452158884
39.84706,4.063664298413579,0.044986098014497246
39.851692000000014,3.987456739791804,0.044915945549428536
39.856336,3.907284889237,0.0448769162126594
39.860976,3.8184072050826363,0.04489130441563337
39.86560800000001,3.7285079017664793,0.04491324192344097
39.870252,3.646170628173942,0.04490047713381885
39.87488400000001,3.5617901162578183,0.04490881469060322
39.87952799999999,3.4670270865609845,0.044959537766921326
39.88417200000001,3.374307295187738,0.04498431223555503
39.8888,3.2786448310432577,0.045032928586877075
39.893452,3.1831045516129217,0.04507025846618258
39.89808400000001,3.087808641610878,0.04507679850679289
39.902724000000006,2.99149111244704,0.045090287315532995
39.907376,2.8919865410836763,0.04516203297024069
39.91202000000001,2.793259219453815,0.04526732257257884
39.91665599999999,2.694654082538099,0.045362104799406534
39.92129600000001,2.59976886812712,0.045448943068116636
39.92593600000001,2.499897742621319,0.04560680090927179
39.930576,2.405911962657988,0.04569421131339062
39.935220000000015,2.3157682899135397,0.04574548122515547
39.939852,2.2304883435497675,0.045734250525742204
39.94448800000001,2.142387909128906,0.04574100625304585
39.949128,2.0544096594221903,0.04574549855682189
39.953776000000005,1.9705178863626491,0.045672092392318286
39.95841200000001,1.8854823094271682,0.04565941505671496
39.96306000000001,1.7936619525015698,0.045745786066181016
39.96768800000001,1.7067053219566477,0.04573320772434848
39.972332,1.6271885364211998,0.04569106288068776
39.97698,1.5503700542286953,0.045619889627179416
39.98161200000001,1.4763720600932804,0.045524109330174076
39.986256,1.4053167387291,0.0432416101735287
39.990892,1.334139232650774,0.04098239511058934
39.995532,1.2655378452012465,0.03872929814372255
40.00017600000001,1.1982024463418033,0.0364395635438815
40.004816000000005,1.137529642758332,0.03411226684718182
40.009456,1.0777562736225084,0.0317886409069888
40.014088000000015,1.0199039580961264,0.02946740340656927
40.01873599999999,0.9698580417216558,0.02709907496286054
40.023372,0.9183017673288086,0.024785014380271125
40.02799999999999,0.8648244393265203,0.022500237630393743
40.032640000000015,0.8063612002294097,0.020269755473018264
40.03726800000001,0.7534167525323324,0.01802486356603343
40.041916000000015,0.7050916617876397,0.01576075616191647
40.046548,0.6575438207764492,0.013538531866061077
40.051196,0.6166585750412307,0.011258887535902207
40.055836,0.5805148709725428,0.008909737253780897
40.060476,0.5465807313902158,0.0066504707097929045
40.065112,0.5106033534843016,0.004396714350339873
40.06976,0.4718054875212984,0.002192133787222046
40.0744,0.4346843057394451,0.0
40.079036,0.39977268844395286,0.0
40.08366799999999,0.36935824338669965,0.0
40.08830800000001,0.33804436388179865,0.0
40.09294399999999,0.3095509724339869,0.0
40.09758,0.28093539627202957,0.0
40.102216,0.2575942420818135,0.0
40.10685599999999,0.2378508256821889,0.0
40.111492,0.21492036708303808,0.0
40.116116000000005,0.1963207545593527,0.0
40.12076400000001,0.18131887982625872,0.0
40.12540000000001,0.1719579812073432,0.0
40.13004000000001,0.1665613745214561,0.0
40.13469599999999,0.16500687505445175,0.0
40.13932399999999,0.16410744060680393,0.0
40.143956,0.16218638699736257,0.0
40.14858799999999,0.16398525589265825,0.0
40.153216000000015,0.16422962532094962,0.0
40.15785199999999,0.17215820918700644,0.0
40.162496,0.18458396529130255,0.0
40.16713200000001,0.19983020945268784,0.0
40.171764,0.21724187665180592,0.0
40.17640399999999,0.23285467495562823,0.0
40.18104,0.2533311996401268,0.0
40.18567200000001,0.2743406046298362,0.0
40.190304,0.2936733254383957,0.0
40.19494800000001,0.30671000511342017,0.0
40.199588000000006,0.31230683977897045,0.0
40.204216,0.3179036744445207,0.0
40.208864000000005,0.3209685319299013,0.0
40.21350799999999,0.32415557412942764,0.0
40.218140000000005,0.3256659321478038,0.0
40.22278399999999,0.32308981351900584,0.0
40.22742400000001,0.3156499685095317,0.0
40.232056,0.31229660014723165,0.0
40.236684,0.3080437973372837,0.0
40.24132800000001,0.3016255714896031,0.0
40.245968000000005,0.29058798868953756,0.0
40.25061199999999,0.2730027192054894,0.0
40.255236,0.2545180152737934,0.0
40.259872,0.2342344424468017,0.0
40.264520000000005,0.21202981601036858,0.0
40.26915199999999,0.19072462402158333,0.0
40.273784000000006,0.167376193709211,0.0
40.278424,0.14325051366333658,0.0
40.28304800000001,0.12080151779861215,0.0
40.28769199999999,0.10297187888627266,0.0
