Time,Force,Position
36.055432,0.07087175226081632,0.0
36.060024,0.06551982314095338,0.0
36.064612,0.05632578680220769,0.0
36.0692,0.05007442323469691,0.0
36.073788,0.044966863543125304,0.0
36.078384,0.038593315261468836,0.0
36.082976,0.03414082058925375,0.0
36.087568,0.030587760364686512,0.0
36.092156,0.02703470014011928,0.0
36.09674,0.023603824629697717,0.0
36.101336,0.02005076440513048,0.0
36.10592,0.017641508056502445,0.0
36.110508,0.016131686155522258,0.0
36.115116,0.013722429806894218,0.0
36.119704,0.01131317345826618,0.0
36.124292,0.009026101823783808,0.0
36.128888,0.005839595741653588,0.0
36.133476,0.003552524107171216,0.0
36.138084,0.0013876371868345179,0.0
36.142676,0.0,0.0
36.147272,0.0,0.0
36.151852,0.0,0.0
36.156452,0.0,0.0
36.16104,0.0,0.0
36.165644,0.0,0.0
36.170232,0.003695724202190469,0.0
36.174832,0.011321838520519989,0.0
36.179424,0.02222327793563205,0.0
36.184016,0.03909834579047022,0.0
36.188608,0.059004369313799584,0.0
36.193204,0.08206353321976581,0.0
36.197792,0.10815365279422325,0.0
36.202392,0.13637529358952405,0.0
36.20698,0.16828295507267257,0.0
36.211576,0.20387663724366883,0.0
36.216164,0.24507739371195408,0.011194283184700263
36.220752,0.29098579002988056,0.02207932949509632
36.22534,0.3380040884068569,0.03334273055420914
36.229936,0.3906294610811224,0.04417867898739135
36.234528,0.44939478835788776,0.0547029618061467
36.23912,0.5142220269716355,0.06524230189682413
36.243716,0.5935726410936333,0.07484563476760998
36.248296,0.6831157846484158,0.08426000305725607
36.252888,0.7793759045595371,0.09375015263009615
36.257476,0.882064489950078,0.10322439832426321
36.262068,0.9851540674173412,0.11278000214742309
36.26668,1.0875105365997304,0.12247009455723447
36.271272,1.193142330878902,0.13210953818412058
36.27588,1.298451712464265,0.1417566896285693
36.280468,1.4111228957935844,0.1511198191119107
36.285056,1.5298898922767759,0.16032393952677043
36.28964,1.654464191036919,0.16935112416326148
36.294232,1.7876662801311043,0.17813100895002196
36.298824,1.9254877261776742,0.186758963277159
36.303416,2.068705778910131,0.195234390391116
36.308012,2.2170760689001843,0.19233626890146088
36.3126,2.367655923376598,0.18972086084291662
36.3172,2.52584194902526,0.1866511323094984
36.32178,2.684560854979132,0.18399895938598063
36.326372,2.8450344883796723,0.18153606457926916
36.330968,3.0043540782725344,0.1789714806873992
36.335556,3.1470629128849312,0.17734819050902806
36.340144,3.278757826882413,0.1758589044645937
36.344736,3.4017705694654863,0.174286093774214
36.349328,3.518721400711578,0.17269139059579144
36.35392,3.6357841770400756,0.17086553913663147
36.358512,3.7519372792891867,0.16881425229325517
36.363096,3.8590857974300805,0.16685238419783788
36.367684,3.9604167736622835,0.16483055379887357
36.37228,4.050167047157471,0.1630736016356482
36.376872,4.128825356772226,0.16145273723874892
36.381464,4.196435843955177,0.1600229333640442
36.386056,4.247113163163854,0.15898187516300866
36.390644,4.288052789979439,0.15809924777153
36.39524,4.317700224934929,0.157385655302009
36.39982,4.332946469096314,0.15687515452786097
36.404412,4.340209748311276,0.15635772074712465
36.409004,4.337813378398663,0.15586891986881746
36.413596,4.328089108558983,0.15536937482868782
36.4182,4.3071167883078365,0.15506049542290853
36.422788,4.279926470188673,0.1548313527373856
36.427376,4.256089520431808,0.15453110101662307
36.43198,4.228821159047126,0.15438001038477328
36.436568,4.197344136301124,0.15440222150998956
36.441172,4.161369941316884,0.15455264823945977
36.445768,4.119266031361882,0.15492390034549272
36.450364,4.075118883083292,0.15535544202406346
36.454948,4.034936026737731,0.15564450526732942
36.459552,3.9951638659832356,0.1559556372443024
36.46414,3.956946204695744,0.15624078456432253
36.468744,3.921348803485679,0.15653708422440282
36.473332,3.8897598356572702,0.15676645006828288
36.477928,3.869208450628927,0.15668377385349105
36.482512,3.848945576477503,0.15664816166940887
36.4871,3.8346121893171774,0.15648349515282614
36.491704,3.8245757464154275,0.15629901083827863
36.4963,3.8174039330193956,0.1561003791621798
36.500896,3.812608010272498,0.1559435044932881
36.505496,3.8116983361931114,0.1557380497493182
36.510088,3.819294267733621,0.15535751711507434
36.514688,3.8288553943321997,0.15498837454265224
36.519276,3.8397266509694914,0.15463374027398977
36.523864,3.8582040787790315,0.15412685247052757
36.528456,3.8900508385891435,0.1532949291841192
36.533052,3.9311804537526536,0.15228328823808132
36.53764,3.974108937811459,0.15121243969853473
36.542228,4.017325932747184,0.15018917068208218
36.54682,4.0602205149890995,0.14929144423256271
36.551408,4.106224096165024,0.14837396209507403
36.556,4.151372384341929,0.147547973964059
36.56058,4.195743422785332,0.1467337547951393
36.565168,4.241013895676383,0.14591806270459703
36.569776,4.2830973263679075,0.14524882671177583
36.574356,4.329267233706606,0.14445126608725262
36.578968,4.373271718007572,0.14375436893609073
36.583556,4.416621137289182,0.14305346330643248
36.588144,4.460214925999082,0.14234443949089473
36.59274,4.50364238854621,0.14159167573545506
36.59734,4.5455153516263325,0.14087014936643322
36.601944,4.581581012429502,0.1402499212175854
36.60654,4.617235977641608,0.13960352121975944
36.611132,4.648760324757911,0.139019019408092
36.615724,4.676520607920848,0.1384651413503606
36.62032,4.696552535197392,0.13805413502461963
36.624908,4.708978291301688,0.13775923791962072
36.629512,4.7218927862625675,0.1374194140017075
36.634096,4.739504681441349,0.13691851730339824
36.638696,4.756661739580436,0.13633174256369732
36.64328,4.7699325490520135,0.13577802562128674
36.647876,4.783281401789108,0.1351503189982978
36.652472,4.7942985053256955,0.13453567296163876
36.657068,4.799386121871186,0.13400404946240246
36.661664,4.801486924196814,0.1334837298866242
36.666264,4.799334923712492,0.13302519087220793
36.670852,4.795462097598394,0.132527807653355
36.675448,4.793754694522027,0.13196719525878053
36.680036,4.788449553655068,0.1314705639292306
36.684624,4.780446109445167,0.13102058039245293
36.689212,4.768722742730529,0.13064354971135575
36.693808,4.7580209951776835,0.1302385549588997
36.6984,4.747441432338985,0.1298218774172978
36.702992,4.73673968478614,0.1294140585528011
36.707584,4.725915752519151,0.1290154348060618
36.712172,4.715869069985661,0.1286110205196285
36.716768,4.711463363566351,0.1280905424941309
36.721348,4.709878145204131,0.12751632130781515
36.725936,4.702407581299441,0.1270788106760464
36.730532,4.695469897699962,0.12665895953476858
36.73512,4.687388410224543,0.1262732271456045
36.739708,4.680861422216127,0.12587955621198257
36.744292,4.680263921198811,0.12541811194175023
36.748884,4.685718091886737,0.12487753893668728
36.753488,4.6945256309369645,0.12430310841605884
36.758076,4.704643300025905,0.12374165758512737
36.762668,4.713905676115826,0.12325418302832514
36.767256,4.721246998596305,0.12280924071086854
36.771856,4.731164439705581,0.12233289999477988
36.776444,4.74521249891066,0.12182136650423069
36.781044,4.763102665334623,0.12123214215783396
36.785628,4.778827408720852,0.12070109138454771
36.79022,4.796228836288232,0.12015855223535656
36.794808,4.816328567198554,0.11957442132622742
36.799404,4.838882232023529,0.11897467549045843
36.804,4.861435896848504,0.11837751378184712
36.8086,4.878104216131009,0.11790525307533443
36.813192,4.889908809032837,0.11753393108003768
36.817784,4.89967016361108,0.11720688098142351
36.822372,4.906122291275651,0.116971870941097
36.826956,4.914617657263808,0.11668867067766069
36.831544,4.9213141543566685,0.11643295790545727
36.83614,4.924124402782019,0.11619283478402814
36.840732,4.923581282845069,0.11598452767787498
36.84532,4.917641556222232,0.11585219267254823
36.849912,4.912068383741832,0.11568842785416572
36.854496,4.909149373155748,0.1154266307185276
36.859088,4.904431493674369,0.11518918395793847
36.86368,4.899180733887778,0.11493327852806984
36.868268,4.887101052662442,0.11474500309245247
36.872864,4.872200883380016,0.11460312980052535
36.877452,4.863674798496641,0.11430395641645584
36.88204,4.85257259498447,0.11403022070623017
36.886636,4.84003807671944,0.1137487396113379
36.891224,4.827092862863346,0.11343793067864291
36.89582,4.815291452883191,0.1130947527506967
36.900408,4.809741942587941,0.11261285080661139
36.905012,4.8063578553304245,0.11207690305401934
36.9096,4.8042397566629935,0.11149484593854375
36.9142,4.806696873499319,0.11078710589123561
36.918788,4.810830674516795,0.1100709597033227
36.923388,4.815086660248414,0.1093432551662552
36.92798,4.819753341571101,0.10864488983915704
36.932576,4.827240510950876,0.10790721624590074
36.93716,4.843066959787773,0.10705653002411883
36.941752,4.861591711967614,0.10618301234648254
36.94634,4.876562867805492,0.10541092701743257
36.950936,4.894354511700459,0.10459850514838134
36.955524,4.910757982291194,0.1038362764478166
36.96012,4.935378547624906,0.10297350998903868
36.964708,4.96666170823459,0.10202167035912661
36.969296,4.992592403607016,0.10120126289998149
36.973884,5.018278729551151,0.10039909901816609
36.97848,5.0465411741240835,0.09958449408220715
36.983072,5.0725160109451375,0.09883177764173635
36.987664,5.100411901375634,0.09806445250482508
36.992256,5.122955326568869,0.09741495660540601
36.996844,5.148197055105049,0.09674836128660208
37.001436,5.179079759755407,0.09601989834870447
37.006028,5.207797041368032,0.09534579779173499
37.010612,5.235204192941945,0.09465993387271505
37.015208,5.267230701468242,0.09393448528735507
37.0198,5.299745948851122,0.09317717336613103
37.024408,5.330340142624561,0.09245284077467616
37.028996,5.354393925836173,0.09180764698354932
37.033584,5.374849971257195,0.09119769999812559
37.03818,5.4018022857914145,0.09047194768294424
37.042772,5.427855165877986,0.08975840699242554
37.047368,5.455662773411225,0.08897941690169496
37.051956,5.481915881477459,0.08821251208876218
37.056552,5.5006069598200735,0.08753023012485553
37.06114,5.516844104248036,0.08684533969872194
37.065736,5.536512660303816,0.0860947854897415
37.07032,5.553605097730799,0.08535921149814815
37.07492,5.572985142909659,0.0845800601040574
37.079504,5.584680973650755,0.083883242530465
37.084092,5.598009347124371,0.08312767670076376
37.08868,5.605818929197955,0.08241867156063472
37.093276,5.605167047100273,0.08178781473900142
37.09786,5.600917427211997,0.08117661501395299
37.102456,5.595401818733637,0.0805960763792849
37.107044,5.585755592159476,0.08002060797406764
37.111628,5.574188311975872,0.07946220952235572
37.116216,5.55812385955403,0.0789258318573572
37.120808,5.544347014884065,0.07834291742702423
37.1254,5.527871866871157,0.07777084650383277
37.129992,5.5064108077634275,0.0772578679365072
37.134588,5.485194118083988,0.07672646575301019
37.139176,5.463488689547967,0.07622627675132816
37.143768,5.435897915469477,0.07578382405581345
37.148356,5.411494183590511,0.07529041646987088
37.15294,5.392487058397434,0.07476748192782497
37.157536,5.370415075718976,0.07428103659491213
37.162124,5.346544224145223,0.07379865378957777
37.166712,5.3197306998002345,0.07334251579259383
37.171312,5.297780901835923,0.07283646116217635
37.1759,5.275342365015026,0.07236063827427411
37.180504,5.254702697089427,0.07187286675107174
37.185084,5.2435461124968885,0.07131128513459058
37.189676,5.237908319304385,0.07071643052434844
37.194268,5.235091014168968,0.07010343260850715
37.198868,5.230518981586884,0.0695500281164889
37.203456,5.232365174852481,0.06896716174895973
37.20806,5.240385224537467,0.06836612837667187
37.212648,5.246894916204076,0.06781060832815175
37.217244,5.262643321775457,0.06720976801711016
37.221832,5.275981934880813,0.06665353628969944
37.226424,5.289975613005525,0.06611426550580111
37.231016,5.305768160025531,0.06557288016784393
37.235608,5.326835129017282,0.06502060794087539
37.2402,5.348967858619452,0.06451608666932071
37.244784,5.371222772935769,0.06401038528138989
37.249372,5.394010567557296,0.0635274037023502
37.253956,5.425670521941156,0.0630329073938402
37.258544,5.462727083010903,0.06252843640836273
37.26314,5.504403001033035,0.06201468473106769
37.267732,5.549676656845761,0.061496306142883136
37.272312,5.59842586573493,0.06098232840085794
37.276912,5.641944794100986,0.060535157446692495
37.281492,5.688162025809987,0.06009336869293804
37.286072,5.730414965585958,0.059685574455145114
37.290664,5.776632197294958,0.05924940697892618
37.295256,5.8141435954044,0.058871619928713384
37.299864,5.852143732370423,0.05847130490619487
37.304452,5.89116548849824,0.05806285490785099
37.30904,5.92058197657885,0.05771162733819803
37.313636,5.954207126020781,0.0573172265484718
37.318228,5.985911221853269,0.056935766302992616
37.322824,6.01389539518102,0.05656979804346441
37.327412,6.038526200146471,0.056196296150676416
37.332012,6.059026387016121,0.055807899393598016
37.336596,6.075806651381033,0.05543418600737702
37.341192,6.090788046850649,0.055062269956964394
37.345776,6.092810805910759,0.05472955048526264
37.350368,6.086494285513746,0.054421329047205334
37.354948,6.068773628174231,0.05416132220037192
37.359544,6.046677983310622,0.053898391029090095
37.364132,6.015343624542244,0.05365780138745525
37.368728,5.97885702851627,0.053405329716905654
37.37332,5.9292896113666425,0.05319233840822341
37.377912,5.877023890874073,0.0529789671267376
37.3825,5.818217759819675,0.05278335809705461
37.387088,5.757490575155837,0.05259581351043381
37.391672,5.684870514692914,0.052485701578534605
37.396256,5.607875466705896,0.05236634915171788
37.400852,5.531124788147172,0.0522279550585937
37.40544,5.448610948760121,0.052112465888592197
37.410032,5.363398806030128,0.051993809758334834
37.41462,5.2752439905288995,0.05189075336187868
37.419212,5.183002698380497,0.05182121734030841
37.4238,5.0923159056991,0.05176130628797581
37.428388,4.998686440246467,0.05171466317951504
37.432984,4.904157540346186,0.051665662197911966
37.437564,4.814492366826581,0.051582433253000236
37.442152,4.725726627754624,0.05149499180809705
37.446748,4.639537007311466,0.051415898851763495
37.451336,4.549383094935279,0.05136179860645142
37.455932,4.46487015867327,0.05128179190972687
37.46052,4.381134472144764,0.051205015910095714
37.46512,4.301773773140352,0.051136293943511706
37.469708,4.221147085545854,0.05110009215970001
37.474308,4.139376594075418,0.05108600559871388
37.4789,4.063613632861595,0.05101008596128069
37.4835,3.9954127013713934,0.05090149863667964
37.488096,3.926478661596317,0.05085746653914182
37.492688,3.8581996868405986,0.05083132667825381
37.497272,3.78877690820894,0.05082987751972832
37.501868,3.7200091945966376,0.05084768807267396
37.506464,3.6521409154319837,0.05086646838606219
37.511064,3.5861936898767706,0.0508756135668603
37.515656,3.5137060537597318,0.05091898413428564
37.520248,3.440974048214402,0.05099179901522007
37.524828,3.364399935450189,0.05110101584479703
37.529412,3.2837393460388022,0.051269102515966655
37.534,3.202956571913269,0.05145438574707554
37.538596,3.1203749288924407,0.051659976107959346
37.543188,3.0375489164433205,0.05191839009952746
37.547768,2.9488375584517312,0.05226520852772459
37.552368,2.860781265479498,0.05265972195323609
37.556948,2.7729693419355557,0.05303672948057733
37.56154,2.68834446059114,0.05335366159371058
37.566136,2.605762817570312,0.05364807277082631
37.570724,2.515130405969281,0.054112962597297254
37.57532,2.4247423637965415,0.054534911539695176
37.579908,2.333821441318591,0.05495464313017121
37.584496,2.2393027810500494,0.0554256933614022
37.589092,2.1467051743909487,0.05591337632485686
37.593684,2.0510427102464672,0.056572996250623155
37.598288,1.9543586269401927,0.0573406824158491
37.602868,1.8588183475098567,0.05806730002719728
37.607468,1.7651991216889626,0.05887800404793368
37.612048,1.672479330315717,0.059807852968321536
37.616648,1.5836016461613536,0.05714457963149079
37.621236,1.4974222653499336,0.05445227539552725
37.625832,1.41022126537672,0.0517510846274367
37.63042,1.3289056109459765,0.04901667661539958
37.635012,1.2507769987147592,0.04622576672755005
37.639608,1.17493599423542,0.04336805328350442
37.644204,1.099217174470227,0.04047129617396577
37.6488,1.023253985276742,0.037578409211303364
37.6534,0.9452475577596705,0.034718069768744995
37.657992,0.8686734449954573,0.03186330149787349
37.662584,0.7978624930595684,0.028887481932431985
37.667176,0.7260299219618859,0.02595341358637881
37.671768,0.6589388925307342,0.022980001733984474
37.67636,0.5943017970142346,0.019952689460388938
37.68096,0.53080904149107,0.016889777488757092
37.685544,0.4730794467962297,0.013651829408675816
37.690136,0.4199692090537743,0.01030150921300894
37.694732,0.36931290522597116,0.006987739769303077
37.699312,0.32405320808405513,0.0035649024047462305
37.703908,0.2825134334468761,0.0
37.7085,0.24354977743849504,0.0
37.713092,0.20740660948720321,0.0
37.71768,0.17588279848829627,0.0
37.722268,0.14399243334695236,0.0
37.726856,0.11455600212026061,0.0
37.731452,0.08937237370351679,0.0
37.736044,0.06778648307736437,0.0
37.740636,0.04992051495594904,0.0
37.745228,0.03655171907277295,0.0
37.749832,0.02522616151318392,0.0
37.754424,0.015699472848890582,0.0
37.75902,0.008748902813395134,0.0
37.763608,0.002453397797256191,0.0
37.768208,0.0,0.0
37.7728,0.0,0.0
37.777404,0.0,0.0
37.781988,0.0,0.0
37.78658,0.0,0.0
37.79116,0.0,0.0
37.795756,0.0,0.0
37.800352,0.0,0.0
37.804952,0.0,0.0
37.809544,0.0,0.0
37.81414,0.0,0.0
37.818728,0.0,0.0
37.823316,0.0,0.0
37.827904,0.0,0.0
37.832504,0.0,0.0
37.837088,0.0,0.0
37.84168,0.0,0.0
37.846276,0.0,0.0
