Time,Force,Position
36.763992,0.022860615320987723,0.0
36.76857999999999,0.012986857124336828,0.0
36.773172,0.005156337251272978,0.0
36.777764,0.00026849014944402494,0.0
36.78235599999999,0.0,0.0
36.786936,0.0,0.0
36.791532,0.0,0.0
36.79612,0.00130034894297633,0.0
36.800724,0.006364761839317887,0.0
36.805312,0.016625553441883368,0.0
36.80990799999999,0.029140050979437865,0.0
36.814504,0.046728742509070616,0.0
36.8191,0.07106831221193163,0.0
36.823688,0.10138151035451876,0.0
36.82828,0.13435911002316006,0.0
36.83288,0.1731881534173818,0.0
36.837476,0.21210547970885982,0.0
36.842068,0.2540537616688291,0.00938337648412911
36.84665999999999,0.2960903265260546,0.019449124728684854
36.851252,0.3416907273569822,0.029604153908483984
36.855836,0.38852321496110526,0.04009141489114211
36.860428,0.43904172325307605,0.050568537972152806
36.86502,0.49541167527062724,0.06061553741241214
36.86961599999999,0.558043766604824,0.07039911880142986
36.874204,0.6239511830358033,0.08013327722403898
36.8788,0.6961207387834283,0.08966597438978798
36.883388,0.7780279869241447,0.09875941592157686
36.887984,0.864286101867802,0.10789885359015954
36.892576,0.953330803051659,0.11701390339905222
36.89716799999999,1.041642395950642,0.12614334646978467
36.90176399999999,1.1343289763737185,0.13508744513385035
36.906352,1.2276706218161517,0.14391991520084169
36.910952,1.3124286183731715,0.15314822439418177
36.915532,1.3969422455018998,0.16225451232992755
36.92012,1.4842763606877172,0.17129856777108066
36.924712,1.5675239992263605,0.18050371774139592
36.929304,1.6564126138791828,0.1896002762930697
36.933896,1.7454234132461504,0.18932799844716092
36.938484,1.8392979389937942,0.1882981836278098
36.943084,1.9335390188838752,0.18717214958951234
36.947672,2.0293345982409607,0.18578978919717376
36.952276,2.1272956006357786,0.18430834917045694
36.956864,2.2234577341353012,0.18323270342444906
36.961464,2.3205973453479887,0.18221436675948097
36.966056,2.420679629331911,0.18110784533949076
36.970652,2.5151548390185448,0.1802034197641073
36.975228,2.5974384223974343,0.17980585541203462
36.97982,2.6754589633346373,0.1792589433672528
36.984412,2.7463959737730645,0.17871837308071273
36.989004,2.8150351368278748,0.17804588632337864
36.993592,2.875002368100015,0.1776590272934573
36.998176,2.9271971020371335,0.17748659239757203
37.002764,2.984944529191175,0.17676618123764953
37.00736,3.037084882047927,0.1761507859095942
37.011952,3.086272322501705,0.17543253643017265
37.01654,3.1358602189148095,0.17444185463501619
37.021132,3.1788194218688313,0.17359039455760564
37.02571999999999,3.219158364745428,0.17274286265215233
37.030316,3.25736578640118,0.17186347839300542
37.034896,3.293563871550235,0.17091631396103094
37.03947599999999,3.332860716001559,0.16966338612303958
37.044068,3.366306116727303,0.16851967582107397
37.048656,3.3958211273369088,0.16738513834019864
37.053236,3.4149094787171768,0.16660040961162906
37.05782799999999,3.4267582130676337,0.16599712093307523
37.062408,3.441793989617617,0.16525119633185412
37.067004,3.463247992015281,0.16428675318713903
37.071584,3.482414386661067,0.1634516223524525
37.07618,3.5012142271644153,0.16266075239028696
37.080768,3.5187480790776795,0.16196119086600286
37.085368,3.540490592352263,0.16106567524440674
37.089952,3.567219016721668,0.159963746253144
37.094548,3.593414560785863,0.15888541201949608
37.09914,3.6205095392977054,0.15778681572206293
37.103732,3.6432736717340823,0.15690002427446137
37.108324,3.6648940002945203,0.15608710330916076
37.112916,3.6895791863403384,0.15515600375053312
37.117504,3.7152418500993223,0.15411561561200293
37.122092,3.7394721991054474,0.153106275423731
37.126684,3.7630474830922163,0.15211008545001756
37.13128,3.778161302907717,0.1513944047625188
37.135872,3.7936416768656547,0.15063812092716117
37.140464,3.8118203541665365,0.1498203813454989
37.14506,3.833796997237673,0.14879278283928352
37.149636,3.8562623791653916,0.14770212044887188
37.15422,3.8742305888548705,0.14674737170785437
37.1588,3.887579441591965,0.1459374081554902
37.16338399999999,3.9002732293097035,0.14511588939878603
37.167984,3.91525462477932,0.14419437497319357
37.172572,3.9295809552295795,0.1432725697370842
37.177164,3.941086797622751,0.14243998592852028
37.18176,3.951160325263062,0.1416252100281684
37.186356,3.9562479418085528,0.14097841961836444
37.19096,3.9596588741728924,0.14036224132872127
37.19555999999999,3.9670340984702612,0.1396204170569135
37.200152,3.973632073034127,0.13888986367762463
37.20474,3.9784311787026976,0.1382076838554572
37.209344,3.9800432421717415,0.1376415245740016
37.21393199999999,3.976302840403527,0.13727033617823697
37.218532,3.968598146702284,0.1370222572924525
37.22312,3.962692321896337,0.1367306262845977
37.22772,3.9574415621097456,0.13644507068440237
37.232308,3.9505141181420047,0.1361883706484811
37.23690799999999,3.9457962386606247,0.13592440665960842
37.241492,3.942510673932104,0.13566008981248232
37.246076,3.939102924489437,0.13540810890819
37.250676,3.9381491089614222,0.13512341013729492
37.255268,3.942469715405149,0.13473579989511097
37.25986,3.949122071049382,0.13433666918075576
37.264452,3.95450843810353,0.13399458679993717
37.26904,3.961327119910537,0.133653645347014
37.273624,3.968312127880317,0.13337549306474442
37.278212,3.9797943080883367,0.1330055546097753
37.282808,3.994874226086948,0.1325670096586354
37.2874,4.009465405228978,0.1321863369579241
37.29199199999999,4.0272877680191606,0.1317789339408593
37.296572,4.045398641686264,0.13141828192186664
37.30116,4.065841264553874,0.13103996062402823
37.305756,4.093190852125746,0.1304723436253079
37.310348,4.129901338316534,0.12970470704292486
37.314936,4.167022520098387,0.12896337435661692
37.31954399999999,4.201856094128361,0.12830489086197588
37.324132,4.235545864282398,0.12769416408831752
37.328724,4.269235634436434,0.12710169666180465
37.33331999999999,4.304968642914056,0.12646408263708364
37.337908,4.345076638915772,0.1257649228061737
37.342504,4.383507950736338,0.12509390944063928
37.34709599999999,4.418219340052167,0.12451140199662052
37.351688,4.448189187701466,0.12403856104603406
37.356276,4.480324458388497,0.12350012410415179
37.360876,4.515646771275055,0.12288229271991295
37.365464,4.548637334961106,0.12227951243159066
37.370064,4.578152345570712,0.12173157994202982
37.374652,4.606890106446815,0.12120178381277903
37.379252,4.636116606179501,0.12063693391270545
37.383836,4.660557422797027,0.12010857687727464
37.388432,4.683565924661696,0.1195747155464024
37.393028,4.712049076477768,0.11889990754406464
37.39762,4.737178859931542,0.11826683916067318
37.402212,4.753969363928193,0.11778542162850329
37.406804,4.772636780085657,0.1172087111891679
37.411392,4.795102162013374,0.11650159356807227
37.41598,4.816135229188235,0.11578674785172524
37.420568,4.831771689677208,0.11515042212931369
37.425156,4.844832031537383,0.11454871947086369
37.429756,4.852862320854109,0.11399438623101661
37.43434799999999,4.860237545151477,0.1134316094376848
37.438944,4.869123127467223,0.11280769019910386
37.44352,4.8806628716772815,0.11208911182440624
37.448116,4.890403746992045,0.11139623269462784
37.452708,4.89564745006857,0.11076871923372716
37.457284,4.900891153145095,0.11013969944129638
37.46188,4.905479791202264,0.10949906927722451
37.466468,4.906104137326405,0.1089365728323626
37.471076,4.902764191517516,0.10845150867291202
37.475656,4.900978745175633,0.10796254799706627
37.48025199999999,4.898293864386101,0.10748274759003493
37.48485599999999,4.88498209638757,0.1071912548561733
37.489444,4.877844184808427,0.10683217641824862
37.49404,4.869806838781636,0.10648168234765891
37.49862,4.863323992221849,0.10613077595615882
37.50322,4.855452972357831,0.10583148190556753
37.50780399999999,4.851956940017908,0.10548974927384777
37.51240799999999,4.852180830182722,0.10509506935391372
37.516992,4.851138731757451,0.10474029549559913
37.521592,4.854349436142129,0.10435450953952821
37.526176,4.858337390260307,0.10396837605701491
37.530772,4.85913830217896,0.1036527135141715
37.535352,4.859328290526885,0.10338801948625119
37.539948,4.866180874150781,0.10302947051158684
37.544544,4.87381070750818,0.10267132686357698
37.54914,4.884383213636813,0.10226768485096395
37.553728,4.897531838394244,0.10184602849591912
37.558316,4.912845886189408,0.10137552937933043
37.562904,4.931346976184098,0.10083858389998052
37.567492,4.95369017339767,0.10025384746094379
37.572084,4.9830625200296526,0.09955804728133627
37.57666,5.019219646651752,0.09875808803040496
37.581256,5.048181297692668,0.09804217690676453
37.585832,5.082906109561911,0.09724912940535
37.590428,5.111334880297617,0.09651961850565187
37.595016,5.13706534769038,0.09581682664789133
37.599604,5.162140750063785,0.09511581042939951
37.604212,5.185783837684333,0.09440766531964528
37.6088,5.21195890248505,0.09363157505500813
37.61338799999999,5.2351471530659035,0.09284921607638691
37.61798399999999,5.255759285017961,0.09207906995269763
37.622572,5.2785368400077495,0.0912651082961727
37.627168,5.297961026635239,0.09046277916039733
37.631748,5.30892374909146,0.08976458506471702
37.636344,5.321152460137765,0.08903566156753247
37.640924,5.328761814231686,0.08835342409410257
37.645524,5.335838288020396,0.08765461140621932
37.650116,5.3441807503991905,0.08692586834791505
37.65471599999999,5.3508465285968345,0.08620459256944772
37.65931199999999,5.351094080946799,0.08554183079812529
37.663904,5.343535234144852,0.08497790144054276
37.668496,5.333278083999962,0.08443357537416955
37.673092,5.321222064959777,0.08389663518837143
37.6777,5.304424504253061,0.08340820380274891
37.682292,5.290325246889286,0.08289715038919244
37.686884,5.27659254366795,0.08235577965628851
37.69148,5.255419995437141,0.0818771015368982
37.696056,5.232981458616245,0.08142773570914275
37.700644,5.206456445148175,0.08103454043822757
37.705232,5.180586496699464,0.08064936360902068
37.709832,5.161256958812578,0.08020462652474072
37.71442,5.142826855373338,0.07975318271411905
37.719012,5.125951251401104,0.07930528920031246
37.723608,5.112018320200104,0.07882035982883168
37.728188,5.098740454018461,0.07834887536635259
37.73278,5.08906032562741,0.07785451031459559
37.737368,5.077214774198626,0.0773949691115309
37.74196,5.063981049465613,0.07697539854362971
37.746568,5.052424008913747,0.07655377341534689
37.751156,5.042543652543033,0.0761282896169765
37.755752,5.034339980353469,0.07569912678695627
37.760344,5.026669188469115,0.07529077002310398
37.76494399999999,5.023251199394709,0.07487418270095265
37.769536,5.021099198910388,0.07442443605200508
37.77412399999999,5.0244659898260995,0.07394224912683328
37.778728,5.0347838868947035,0.0734473253700982
37.78332,5.053318878706283,0.07290301860442305
37.787912,5.076473227470247,0.07233183440768026
37.792492,5.103347498738949,0.07173510678257435
37.797092,5.12715691252227,0.07117650700840704
37.80168,5.147901468820211,0.07066537175816641
37.806284,5.16840165568986,0.07017622068206268
37.81087599999999,5.191966700044889,0.0696532754885066
37.815476,5.21438794052398,0.069153092159963
37.82006,5.2330892584983335,0.0686783934649378
37.824656,5.256409933425071,0.06818741374944573
37.829244,5.285371584465989,0.06766442313612353
37.833836,5.315232669954554,0.06714146643040515
37.83842799999999,5.34562663574833,0.0666460908336641
37.84302399999999,5.375121167094457,0.06615317617752296
37.847604,5.4096016095354065,0.06561844950550556
37.852192,5.449067963071178,0.0650456181642888
37.856772,5.490577554930538,0.06445832722013373
37.861364,5.534541080704546,0.06388584859540598
37.865956,5.5746624992596745,0.06335111059133407
37.87054,5.606689007785972,0.06284605428994348
37.875132,5.636139397683471,0.06234700809573516
37.879724,5.661869865076235,0.06186914150557918
37.88432,5.690420820526087,0.06138460712943944
37.888904,5.724734936804263,0.060867031765544005
37.893492,5.758271803348936,0.06034765904976777
37.898088,5.791153604874254,0.059819348070945
37.90268,5.824934840847219,0.059298137923290854
37.907276,5.861658749591419,0.05876089663677102
37.911872,5.898260473621473,0.0582291327180009
37.916464,5.924357495156673,0.05775597397351664
37.92106,5.946734594187135,0.05730265455146803
37.925652,5.964614520979358,0.05685615120762302
37.930248,5.976198406638047,0.05641851611423752
37.934828,5.994444887572706,0.055952772904610114
37.939428,6.006028773231395,0.055521263243443156
37.94402,6.010172813880608,0.055117107249156444
37.948616,6.008675878415643,0.054734828552417944
37.953208,6.004114085465298,0.05437831540112069
37.957792,5.995832370010216,0.05403225976385931
37.962388,5.98820571957449,0.053697078092739325
37.966984,5.977514211653383,0.05338514712457061
37.97158,5.9651460195511286,0.053065490595697734
37.976172,5.945093613011106,0.05278182469779705
37.98076,5.9191558609286155,0.05253164536031883
37.985356,5.886555513570151,0.0523059704949331
37.989944,5.848724885688576,0.052126791527436205
37.994528,5.801411174473937,0.051982449716546954
37.999116,5.7441256410696555,0.0519058523840762
38.00371199999999,5.6859406732177264,0.05182826278938641
38.008304,5.629021693955882,0.051725253371452895
38.012892,5.566339553865712,0.05164747718077475
38.017484,5.5043124787949,0.05158281168672031
38.022072,5.444084272619384,0.05151463398276233
38.026668,5.368487637568338,0.05152194603171254
38.031256,5.28982614503191,0.051556640316987624
38.035832,5.207855425581809,0.051636771012137685
38.040428,5.12612907556,0.05169567118307241
38.045016,5.041826606909393,0.05174793032672718
38.04961599999999,4.9547036502016955,0.05181196476489989
38.054208,4.867580693494,0.051873824979563395
38.058796,4.779313932910365,0.051956414399858986
38.06339199999999,4.690680618184293,0.05206321031492803
38.06798799999999,4.599349000115278,0.05217645527109132
38.07258,4.507362317026905,0.0522703282913162
38.07716,4.419994990890918,0.05235162615974112
38.08176,4.335814706954456,0.05239350996363583
38.086348,4.257275399132174,0.05240904250615845
38.090952,4.186009610156592,0.052340327627852616
38.095544,4.111923333123921,0.052282127455755646
38.10014,4.037714871377103,0.05222890984281911
38.104732,3.9672263321350236,0.05216052623789882
38.109328,3.896737792892944,0.05209195277419021
38.113916,3.8225293311461264,0.052035021966842246
38.118512,3.7569045182847223,0.05192996162150377
38.1231,3.695243997356347,0.05178444783257441
38.12769599999999,3.63280622669447,0.05163082643107963
38.132284,3.566159794671272,0.05153777694014956
38.136872,3.500657166524014,0.051409187595162616
38.141448,3.4352767230909023,0.051263157530932156
38.146044,3.365154737991259,0.05114598728107552
38.15064,3.2943776878722595,0.05100123937381681
38.155228,3.2236006377532602,0.05085526813519784
38.15982399999999,3.1565435101389974,0.05068594935189658
38.164404,3.0865437097535002,0.05053932031262322
38.169,3.0109029332538246,0.050427502790549056
38.17358,2.9294989959258246,0.05036604636546846
38.178168,2.839633594426557,0.050364370205859973
38.18276,2.7438828473848194,0.05042211689891107
38.187352,2.6500531539525234,0.05045831189699066
38.19194,2.5561012758060815,0.050512055703020434
38.196536,2.4556089870978135,0.0506288515350387
38.201132,2.352418395046602,0.05076375220328024
38.20572799999999,2.2529477255001273,0.05087073827967436
38.210304,2.1497571334489156,0.05101211379312886
38.214904,2.041702815017028,0.05125397675781581
38.219492,1.9376127885181684,0.05140731152735901
38.224092,1.8345443811811029,0.051611270019603694
38.22867599999999,1.7272673124827171,0.049109803868058945
38.233276,1.622688547127275,0.046619632834045056
38.23786,1.519253585647772,0.044109029038701
38.24245199999999,1.4147970050064758,0.04161109431753096
38.247044,1.3045772635368549,0.03911100746282876
38.25164,1.1941131526389432,0.03662601617962362
38.256244,1.0881462139792704,0.03413632416503453
38.260836,0.9885975011672782,0.03162106178769323
38.26542799999999,0.891624906984084,0.02907650433366602
38.27002,0.8027472228297207,0.026494516685398303
38.27460799999999,0.7176875251730872,0.02389898815948704
38.279196,0.6361033805928997,0.02132074324374143
38.283784,0.5581169738033034,0.018734231549889225
38.288376,0.48834766175668354,0.016095643513469062
38.292972,0.42397495639595073,0.013436974099986601
38.297564,0.36217836966401584,0.010801350129038304
38.302156,0.30577838961796794,0.008143089684242249
38.306736,0.25579663541960074,0.005409669587032278
38.311328,0.20826881513588574,0.0027470576617506237
38.315916,0.16625978625220353,0.0
38.32050399999999,0.13079116793034762,0.0
38.325096,0.0978986682372896,0.0
38.329676,0.07028059051597302,0.0
38.334272,0.04805911948054356,0.0
38.338864,0.034299112616381765,0.0
38.343464,0.023359593809309194,0.0
38.34805599999999,0.014218943897532324,0.0
38.352644,0.005977728433403308,0.0
38.35724,0.002478054635804892,0.0
38.361828,0.0,0.0
38.366428,0.0,0.0
38.371008,0.0,0.0
38.375596,0.0,0.0
38.38018,0.0,0.0
38.384772,0.0,0.0
38.38938,0.0,0.0
38.393972,0.0,0.0
38.398572,0.0,0.0
38.403172,0.0,0.0
38.40776399999999,0.0,0.0
38.412352,0.0,0.0
38.41694,0.0,0.0
38.421524,0.0,0.0
38.42611599999999,0.0,0.0
38.430708,0.0,0.0
38.435304,0.0,0.0
38.43988,0.0,0.0
38.444476,0.0,0.0
38.44906399999999,0.0,0.0
38.453656,0.0,0.0
38.458252,0.0,0.0
38.46283999999999,0.0,0.0
38.467436,0.0,0.0
38.472024,0.0,0.0
38.476612,0.0,0.0
38.481204,0.0,0.0
38.48579599999999,0.0,0.0
38.4904,0.0,0.0
38.494992,0.0,0.0
38.499596,0.0,0.0
38.504184,0.0,0.0
38.508784,0.0,0.0
38.513364,0.0,0.0
38.517968,0.0,0.0
38.52256,0.0,0.0
38.52716,0.0,0.0
38.531744,0.0,0.0
38.53634,0.0,0.0
38.54091999999999,0.0,0.0
38.545512,0.0,0.0
38.550104,0.0,0.0
