Time,Force,Position
37.53988,0.0654019121547903,0.0
37.544476,0.06237095648629908,0.0
37.549072,0.061627608569686264,0.0
37.553668,0.05529667228954037,0.0
37.558268,0.0459008785240139,0.0
37.562864,0.038783446208348615,0.0
37.567452,0.03579663198848557,0.0
37.572048,0.030810720893663622,0.0
37.576636,0.026768385695117684,0.0
37.581224,0.028288983345232672,0.0
37.585804,0.035616883272299935,0.0
37.590396,0.044132728523934545,0.0
37.594992,0.05653482244308006,0.0
37.59958,0.07208081044284523,0.0
37.60418,0.08795945076815805,0.0
37.60876,0.11095552340913614,0.0
37.61334,0.13698255171860543,0.0
37.617936,0.1655076553913551,0.0
37.622524,0.20000638750383085,0.0
37.62712,0.23459340251356295,0.0
37.631708,0.2752762306771668,0.008167518005836908
37.636296,0.3118479266787244,0.008167518005836908
37.640892,0.35247219751056674,0.01696964804931958
37.645484,0.40273663153622685,0.025369992633887686
37.65008,0.45525477149687593,0.03395117355116196
37.654668,0.5106909287138879,0.04249359269797553
37.659268,0.5688695307224716,0.050910435891066634
37.663848,0.6328112935593793,0.05900230022761617
37.668448,0.6949541875009912,0.06727200723283726
37.673036,0.7579965158902511,0.07529011181360316
37.677636,0.8203837792601545,0.08325227022419754
37.682228,0.8846920962394992,0.09113270464351078
37.686824,0.9438923174098762,0.09938623741702979
37.691408,1.0077560369812666,0.10763974800386732
37.696004,1.0747287554866654,0.11605424605148354
37.700608,1.139824561831251,0.12449102725188908
37.7052,1.2092953556999304,0.13274448622946808
37.709792,1.2810978987691164,0.14096644354983395
37.71438,1.3503243232095041,0.14917927170695472
37.718968,1.421593985973479,0.1575122915222883
37.723556,1.4923749098808716,0.15762339009957474
37.728144,1.57137292853124,0.16574109781960783
37.73274,1.648982773877378,0.16516642912371948
37.737332,1.7252044459192857,0.164991728767999
37.74192,1.8047794863234932,0.16459484304489314
37.746516,1.8857868414805599,0.164216076555239
37.751104,1.9646287735998933,0.16405513694138402
37.7557,2.042371043291916,0.1642535036797941
37.760284,2.125554061118454,0.16423480045542202
37.764872,2.2089034051077654,0.1644288747442108
37.769468,2.2958946283362964,0.16460987636425825
37.774056,2.3859948504988364,0.16477476892601153
37.778644,2.4876213943180248,0.1642830249580044
37.783232,2.5887489596488913,0.1636120509149808
37.787824,2.6926867734051085,0.16252816250391225
37.792416,2.789052317805967,0.16145029199650687
37.797008,2.87580235452788,0.16056994070539032
37.801608,2.957722566686006,0.1597210910714869
37.8062,3.0342020307096167,0.15896099711336986
37.810788,3.113535884607206,0.15789944423570748
37.815372,3.1848087302928536,0.1569348186881834
37.819972,3.248264937194852,0.15608151701392833
37.824556,3.308646046979731,0.15506871965331623
37.829156,3.363786636609757,0.15403729817387826
37.833736,3.4120100219037814,0.15303563799442765
37.838332,3.455892321490602,0.15199538711055877
37.84292,3.497110219551368,0.15084202073650724
37.847512,3.5312887285619863,0.1497047050194777
37.852096,3.5585500332366036,0.14859441853685587
37.856688,3.5794270138804287,0.14752589869403948
37.86128,3.5949412896552553,0.1464652340882996
37.865876,3.6037046872568537,0.14549598259835572
37.870468,3.6003647414479656,0.14485908945393747
37.875068,3.593304873134341,0.14434615998306574
37.87966,3.5772948017928656,0.14415895204463058
37.88424,3.563860849080187,0.14391218854015636
37.88884,3.5536580800156643,0.14361107618143962
37.89342,3.5444769301129333,0.1432702859977707
37.898012,3.5411811257526735,0.14272558272737276
37.902608,3.5289351183645628,0.14250180848041866
37.907196,3.522862967395842,0.14212577933791434
37.911804,3.5168349578757487,0.14182934906786449
37.916392,3.5145710123090206,0.1415060241761827
37.920984,3.5137393814951516,0.1411807919056236
37.925576,3.5151173151676436,0.14084502001609184
37.930164,3.5176831941647024,0.1405392257471796
37.93476,3.525156940991066,0.14016247955943695
37.939348,3.542035727884973,0.13960839701853636
37.94394,3.5629229481605367,0.1390088765683586
37.948528,3.584631559618231,0.138472714106633
37.953128,3.604585443629258,0.1380573156424987
37.957708,3.6236840346412644,0.137735853991546
37.962308,3.641638821777332,0.13745492538602186
37.9669,3.6591048700568174,0.13723595839406813
37.971496,3.68082372114625,0.1369289934351244
37.97608,3.7047521367220435,0.1366188992526882
37.980676,3.7290912478889027,0.13634881605475532
37.985264,3.7540854240751185,0.1360917054129169
37.989856,3.775115308328305,0.13597215636205007
37.994448,3.8011311036763145,0.1356798873602649
37.999032,3.822405357357793,0.1355304073449089
38.00362,3.845722849362858,0.13531138151260214
38.008208,3.8609454313390925,0.13528270127783207
38.0128,3.877067447762975,0.135235593881775
38.017388,3.8912684105774162,0.13524436342730145
38.02198,3.904936493086647,0.13523527444775363
38.026568,3.9126750886047796,0.13533165333231614
38.03116,3.915628001007753,0.13548127882765879
38.03574,3.9152275450484266,0.13568172778852133
38.040328,3.917969989839998,0.1356973713136673
38.044924,3.924143846259388,0.13557663699406797
38.049512,3.934237853163178,0.13526776434447413
38.054116,3.948662706142432,0.13480120255256223
38.058708,3.9610001793494725,0.13432511176953707
38.063296,3.9713724574984424,0.1338300058500305
38.067892,3.9797795405893432,0.13331864165731833
38.072484,3.9855663636028185,0.13277852376326385
38.077088,3.9890214374157864,0.1322568957511951
38.081668,3.9911663811900415,0.1317182046978154
38.086268,3.994577313554382,0.13112767467134806
38.090856,3.9956564967182153,0.13054650666801304
38.095456,3.9963249842909834,0.12993671751601066
38.100044,4.006598739910959,0.12908166795278356
38.104628,4.015562365492221,0.12821816467084715
38.109212,4.027468663844718,0.12727793524759057
38.113808,4.038475527749567,0.12636056972616597
38.118416,4.052058510283214,0.12540247768343957
38.123012,4.061432831455542,0.12457563016305481
38.127608,4.072483836809019,0.12372813489404516
38.132208,4.079981245820533,0.12302660559587382
38.136796,4.0846581667749575,0.12239271734037654
38.141392,4.089090718301092,0.12179260884534714
38.145984,4.093278900398934,0.12122192751958534
38.150568,4.099921016411428,0.1206275482136886
38.155156,4.109017066338575,0.12001404739071948
38.159752,4.1149260740661955,0.11949410989586756
38.164344,4.122145211832528,0.11899110409348174
38.168936,4.129486534313007,0.11847482301308007
38.173528,4.142102278765227,0.11788234953908742
38.178108,4.152430415465569,0.11737477322698955
38.182704,4.169831843032948,0.11675910122297757
38.187288,4.183924043686656,0.11624993263786598
38.191876,4.193274702673833,0.11584914630580953
38.196472,4.204057676413869,0.11545948781926722
38.20106,4.213408335401046,0.11506711953392877
38.205656,4.221615190512282,0.11471199469913113
38.210244,4.22814536144237,0.11437406107485609
38.214844,4.239783628181425,0.11390734001301805
38.21944,4.253465133244068,0.1133972735627119
38.22402,4.269678615486879,0.11279243983602952
38.228616,4.285892097729691,0.11218648768687364
38.233196,4.297364038305973,0.11167199550151195
38.237792,4.30781435972046,0.11118523734280449
38.242384,4.317731800829737,0.1106804584215794
38.246984,4.325972557757864,0.11019471831193911
38.251568,4.339077041066667,0.10961013626720782
38.256164,4.355368566574997,0.10895027958814876
38.260752,4.374480580140416,0.10824809782716466
38.265348,4.386274933410506,0.1076573844320888
38.269936,4.4024001327560605,0.10696130471095691
38.274528,4.415416333167608,0.10627846743007606
38.279116,4.4299428915975305,0.10552522645170001
38.283704,4.44177114668451,0.10480351516593234
38.288292,4.446526110904453,0.10415884940334359
38.292888,4.448460587067306,0.10355808467115217
38.29748,4.450761617372597,0.10292174995247597
38.302072,4.4530626476778865,0.10228360660928157
38.306664,4.455363677983178,0.10165283783267268
38.311244,4.4481816249554065,0.1011754762353399
38.31584,4.441654636946992,0.10071119673549682
38.32042,4.438969756157459,0.10018328130876912
38.325008,4.441026417034458,0.0995790879641472
38.329616,4.442428012892102,0.09896324600510473
38.334204,4.440642566550218,0.0984205026926054
38.3388,4.433993393827657,0.09796020223832046
38.343388,4.427588590533388,0.09748078056819989
38.347976,4.417219495306091,0.09707617639051691
38.352572,4.404807161755206,0.09671336697814883
38.357172,4.396114750709059,0.09629709850879513
38.361764,4.379615940511,0.09601319036575036
38.366356,4.3599300881134155,0.09579971852471966
38.370964,4.340899300735188,0.09559569453822296
38.375544,4.325466251147551,0.09535116749005487
38.380136,4.318128111588744,0.09501733241760114
38.384724,4.314143340392239,0.09466514580472345
38.389332,4.3118352533768824,0.09430469554441905
38.393924,4.312225469704471,0.09391672927743458
38.398512,4.309550828546678,0.09359052835029735
38.403096,4.315582020988443,0.09312179330839715
38.407692,4.317648921497181,0.09272410782690282
38.412288,4.315751530072891,0.09239803388277525
38.416884,4.312832519486807,0.09209369447710627
38.421472,4.3160873653201115,0.09174253488526199
38.426064,4.325882621715243,0.09131153244758929
38.430644,4.345938211176938,0.09075757502204242
38.435228,4.36268457372496,0.09028572762688289
38.43982,4.380863251025842,0.08982915272520928
38.444412,4.398675374184285,0.08940452986106895
38.449008,4.420984669580969,0.0889474863544679
38.453596,4.452532678882423,0.08839530160811829
38.458184,4.4933194020886456,0.08775414949129091
38.462764,4.536804428637813,0.08709987453295859
38.467344,4.584908812139364,0.08641752168389802
38.47194,4.631092142031475,0.08577137108812949
38.476528,4.682017013590116,0.08508828413048855
38.48112,4.735762373205846,0.08439093438483172
38.485708,4.792328220878665,0.08368441709542618
38.490296,4.850570752732636,0.08297546603917258
38.4949,4.910245599339464,0.08230045830305882
38.499488,4.976583041222266,0.08156321309093094
38.504092,5.046518220895656,0.08080800810209182
38.508672,5.120173323073785,0.08003960381336596
38.513272,5.187532384118379,0.07932929861157563
38.51786,5.253336945695969,0.07863211560502466
38.522464,5.313500531159379,0.07800112032260338
38.527048,5.376484604679879,0.07734819724828403
38.531648,5.439835232342817,0.076673762222833
38.536244,5.5044518485958385,0.0759708799037386
38.54084,5.564571292610621,0.07530741476715586
38.545424,5.6191719452253714,0.07469714682112723
38.550016,5.666454937544795,0.07414624218970309
38.554608,5.712838495416566,0.07360958247811095
38.5592,5.752926012154806,0.07311409454794372
38.563792,5.796078386378424,0.07259085078083456
38.568376,5.833956338630301,0.07209548972241644
38.572964,5.86901380282509,0.07162778809901633
38.577556,5.899696279495785,0.07117950263541442
38.582144,5.930745310308918,0.07071139594469171
38.586728,5.959584776635689,0.0702308210499676
38.59132,5.983027636276573,0.06977678811638573
38.595908,6.005038181164598,0.06931203437957377
38.6005,6.017932196862,0.06888830261463691
38.605084,6.032747266168842,0.06845217076755461
38.609664,6.045396912437952,0.06804708065650558
38.614272,6.057513678401852,0.06762332246214044
38.61886,6.071018617669982,0.06717229575755908
38.623472,6.0847679263664025,0.0667097030681494
38.62806,6.096063301148171,0.06624153049302672
38.632648,6.110667902843613,0.06573380393292141
38.637244,6.122574201196109,0.06523246710970783
38.641844,6.134724868976897,0.06471653696145992
38.646436,6.14646484116662,0.0641787078717827
38.651016,6.16000368225164,0.06363765401317147
38.655616,6.167124297488978,0.06312222302761443
38.660196,6.17412272801217,0.06261519017103753
38.6648,6.176990540439561,0.062096325486890154
38.669388,6.175894060933923,0.061604754994678615
38.673988,6.175941385304224,0.06109988034785168
38.67858,6.175089275226877,0.06059859892727813
38.683176,6.1714166770924415,0.0601066370315034
38.68776,6.1631247220056204,0.05962876714350308
38.692356,6.160351558318832,0.05913072854330732
38.696944,6.156023895165039,0.05862228510436389
38.701536,6.150263917258387,0.05809444487762689
38.706124,6.146058438818741,0.05757799040124615
38.710712,6.137111418712564,0.05708398117862422
38.7153,6.123422856939857,0.05660878579475976
38.719896,6.111533164062444,0.0561291636843871
38.724484,6.091837072033122,0.05569266252266912
38.729084,6.076105271936826,0.05522824960385988
38.733676,6.058208048802799,0.054784188685902346
38.738264,6.033403860964506,0.05437886511844599
38.742848,6.0039803161738305,0.05398269862026404
38.747436,5.975456205830803,0.053581205014765945
38.752028,5.942190553821245,0.05319461765046518
38.756612,5.906392924631517,0.05284700426145306
38.7612,5.872760718479522,0.052470668412253375
38.765812,5.829645428994462,0.05212616987765979
38.770404,5.78142204370044,0.05181779222377399
38.774992,5.7322992239587665,0.05150377892113027
38.779588,5.684853088398245,0.05119047544982776
38.784184,5.630988726990042,0.05088346238478823
38.788788,5.572915704220519,0.05061128514777789
38.79338,5.511000574232113,0.05034869818891293
38.797972,5.442911587824318,0.050074353632586284
38.802552,5.368037821426404,0.04982836667621462
38.807144,5.295862358371437,0.04957514125488626
38.811732,5.22139928756459,0.04935022286392318
38.816332,5.146691847329451,0.04913615697786622
38.820928,5.063811453799964,0.04898734688439173
38.825528,4.978232756927533,0.04883427567863607
38.830112,4.896251797845695,0.04867555859273876
38.834704,4.813249219602062,0.04851909884281562
38.839292,4.727181783873049,0.04838357284339296
38.843888,4.641891597877539,0.048253359242769446
38.848476,4.564285626319792,0.048081515445990666
38.853072,4.483370427848375,0.04794954459256108
38.85766,4.407851836062846,0.04781181201041222
38.862248,4.334132113172611,0.047671873110345
38.866836,4.259923651425795,0.04756853867374551
38.87142,4.182772516907742,0.04748021862362697
38.876016,4.105254828247253,0.047418650180446914
38.880604,4.0277371395867645,0.047355643214615224
38.885192,3.9526733848409275,0.047309001369232086
38.88978,3.8799413792955972,0.04728840867179111
38.894376,3.8119509154167974,0.04724501851536198
38.898968,3.7392189098714668,0.047218450441471604
38.903556,3.6627669818213993,0.04720437806213294
38.908152,3.5872144882189803,0.047189827530775816
38.91274,3.5156262865495886,0.04714568353101271
38.917328,3.443793715451907,0.04712542776992466
38.921924,3.363499680182957,0.04714670957191305
38.926508,3.2837385252192175,0.047213604463287116
38.931112,3.2060206085790655,0.04724654830982178
38.935708,3.1274032574912654,0.04728015563936983
38.940304,3.0413460613939907,0.04732651188843642
38.944884,2.955411050010862,0.04736265562595514
38.94948,2.865511746694705,0.0474519655786529
38.954072,2.7740579439115436,0.04749881106463842
38.958676,2.6838701297184673,0.04750039125831298
38.963268,2.5974022380301283,0.047479437205127886
38.967864,2.5146542688465257,0.04744634446308259
38.972456,2.4329279188247166,0.04738663865257013
38.977048,2.3501799496411144,0.04734901414036453
38.981648,2.264611492400423,0.047334350292874625
38.986244,2.1789208504455857,0.047331198597817384
38.990832,2.094251827652543,0.04729523787179751
38.995428,2.0098271742877896,0.04720567993399762
39.000008,1.9254025209230372,0.04710911754793014
39.004592,1.8364806953200457,0.04699390459954868
39.00918,1.752178226669439,0.04686208308867576
39.013776,1.679157710247189,0.046621313897784615
39.018368,1.6056043135197284,0.04627922979127709
39.022956,1.5287416898785962,0.04608105785059745
39.027548,1.4518790662374639,0.043679648741561355
39.032136,1.37644875734919,0.041297422541862354
39.036728,1.3029395020703574,0.03891592412736768
39.04132,1.232617288991051,0.036492857658812466
39.045908,1.1615619676268707,0.03411320532782819
39.0505,1.0932049496056342,0.03175740083091377
39.055092,1.0189625860419274,0.02942527415351144
39.05968,0.9449645919065124,0.02709451529774065
39.064272,0.8727654666663929,0.024791321570609655
39.068864,0.8024873950357149,0.022466642910730902
39.073456,0.7398935378428022,0.020119619957934588
39.078036,0.6798757992786874,0.01777520755880094
39.08264,0.622311994629225,0.015465432203807849
39.087228,0.5682237430562083,0.01319697418550711
39.091828,0.514790556502548,0.010936553868058644
39.096408,0.4686750302442162,0.008695593857888748
39.101012,0.4208828198047344,0.006457457401581845
39.105604,0.37092518632752,0.004297021962005338
39.1102,0.323797287209412,0.0022031474317718664
39.114784,0.28307836763696725,0.0
39.119372,0.24967710835985113,0.0
39.12396,0.2202401410157634,0.0
39.12856,0.19145823869103212,0.0
39.133152,0.1634628324018203,0.0
39.137744,0.14045333720743036,0.0
39.142336,0.11822109174654266,0.0
39.146924,0.10265144156162692,0.0
39.151512,0.08863629084371552,0.0
39.156104,0.07629782430695417,0.0
39.160692,0.0657582266654885,0.0
39.165272,0.05305320598629013,0.0
39.169864,0.04136980446888529,0.0
39.174444,0.03160745656092181,0.0
39.179024,0.023643977548254036,0.0
39.183632,0.018623171306821156,0.0
39.188216,0.013480180351242611,0.0
39.192824,0.010913308024461946,0.0
39.197412,0.009368054859474806,0.0
39.202016,0.009368054859474806,0.0
39.206612,0.008722236142135516,0.0
39.2112,0.005255929367707001,0.0
39.215792,0.0016674378791328131,0.0
39.220372,0.0,0.0
39.224968,0.0,0.0
39.229548,0.0,0.0
39.234148,0.0,0.0
39.238736,0.0,0.0
39.243336,0.0,0.0
39.247932,0.0008901881456306332,0.0
39.252528,0.002801995453054789,0.0
39.25712,0.004591618046333273,0.0
39.261712,0.004591618046333273,0.0
39.26632,0.004591618046333274,0.0
39.270916,0.004591618046333274,0.0
39.275504,0.004591618046333274,0.0
39.2801,0.004591618046333274,0.0
39.284688,0.004591618046333274,0.0
39.289284,0.004591618046333274,0.0
39.293872,0.004591618046333274,0.0
39.29846,0.004591618046333274,0.0
39.303048,0.004591618046333274,0.0
39.307644,0.004591618046333274,0.0
39.312236,0.004591618046333274,0.0
39.316828,0.004591618046333274,0.0
39.321428,0.0045916180463332745,0.0
39.326016,0.0045916180463332745,0.0
39.330604,0.0045916180463332745,0.0
39.335196,0.0045916180463332745,0.0
39.339776,0.003701429900702641,0.0
39.344372,0.0017896225932784845,0.0
39.348964,0.0,0.0
39.353552,0.0,0.0
39.35814,0.0,0.0
39.362732,0.0,0.0
39.36734,0.0,0.0
39.371936,0.0,0.0
39.376528,0.0,0.0
39.381116,0.0,0.0
39.385716,0.0,0.0
39.390308,0.0,0.0
39.394912,0.0,0.0
39.3995,0.0,0.0
