Time,Force,Position
40.74349999999999,0.0026534082274095087,0.0
40.74810399999999,0.0,0.0
40.7527,0.0,0.0
40.757292,0.0,0.0
40.761876,0.0,0.0
40.76647599999999,0.0,0.0
40.771056,0.0,0.0
40.775648,0.0,0.0
40.78023199999999,0.0,0.0
40.78482399999999,0.0,0.0
40.789416,0.0,0.0
40.794004,0.0,0.0
40.798608,0.0,0.0
40.8032,0.0,0.0
40.807788,0.0028638758388114843,0.0
40.812384,0.009491815630988195,0.0
40.816972,0.021804872985971505,0.0
40.82156,0.03379551764714595,0.0
40.826148,0.04828423767160077,0.0
40.83074,0.06310561002160323,0.0
40.835332,0.08480004525897962,0.0
40.83992399999999,0.1115686744884343,0.0
40.84452,0.14136825938638015,0.0
40.849108,0.17432098466696286,0.0
40.853704,0.20682911253959108,0.0
40.858292,0.24261256550900184,0.0
40.86288,0.2798724746798994,0.0
40.86747599999999,0.3224509472711666,0.009093349464490072
40.872064,0.37022579856865767,0.017852848505694255
40.876652,0.4240964630200205,0.02624228253525137
40.88124,0.4812424525681659,0.03465462186082416
40.885828,0.5423188322324504,0.04309120473565647
40.89042399999999,0.6019731367756149,0.05233831901278875
40.895008,0.6598388120552227,0.06259282376779769
40.8996,0.7161168397178423,0.07335019547510276
40.90417999999999,0.7745263886013054,0.08392914276826452
40.90878,0.8335129592386076,0.09422997423436119
40.91337199999999,0.8984290168670077,0.1043084888671153
40.917968,0.962856335638825,0.11453624556506511
40.92256,1.0365223683154121,0.1241537231171692
40.927152,1.1118650851731493,0.13337245247939303
40.93175999999999,1.1868412478884498,0.14254305777562498
40.936356,1.2672140172896371,0.15142364091930627
40.940944,1.3517174047866267,0.16015175212922644
40.94554399999999,1.4399848562369817,0.16900050755182797
40.95013199999999,1.5335267296590778,0.17760088928095355
40.954728,1.6328759053581265,0.1860851159151715
40.959316,1.7321470377916577,0.185487255370298
40.963912,1.8336277347115495,0.1851030375962344
40.9685,1.9353969425083608,0.18503200329425362
40.97309599999999,2.043995071743918,0.18474136080283815
40.97768799999999,2.1525932009794753,0.18444193404718828
40.98227199999999,2.2754939984801417,0.18298443419279242
40.98686399999999,2.408400519987341,0.1802763862125143
40.99145199999999,2.542851301329806,0.17697966669779733
40.996048,2.6712843127839174,0.17387538608786182
41.00063599999999,2.7920670116171524,0.1711294868672646
41.00522399999999,2.911373254248901,0.16852936437088678
41.00982,3.033700212917401,0.16568424225358463
41.014408,3.1489097392702368,0.16340991166209937
41.019016,3.2574905721639897,0.16147795863023032
41.02361199999999,3.36418425326519,0.15951795028343152
41.02821599999999,3.4623281872978664,0.15786083316248484
41.03280399999999,3.5549872317474005,0.1563148844728019
41.0374,3.6464922326892553,0.1545699222617139
41.04199599999999,3.727404248238999,0.1531389680966703
41.04658799999999,3.800910320596159,0.1518369039826896
41.05118,3.873262349445641,0.15039324319933264
41.05576,3.9365317509213873,0.1490966495003062
41.06035599999999,3.992761763346986,0.14785164912671578
41.064936,4.038354648931846,0.14678542789680477
41.069528,4.080139329114711,0.14569115921230863
41.07412399999999,4.111331023905467,0.14485556521348414
41.07872,4.130585701448509,0.14435377001106536
41.083312,4.147019890934462,0.14393777939078922
41.08790799999999,4.164842253724646,0.14345022329891
41.092504,4.182742659780346,0.14287115879468756
41.09709999999999,4.19495794827324,0.14238268614536095
41.10168799999999,4.200710869469826,0.14199140465397705
41.106288,4.202455357284754,0.14165398399190265
41.110876,4.198681053699651,0.14145504509328716
41.115464,4.1895101434286595,0.1413823987621777
41.120052,4.179029103118955,0.1412994550783557
41.124648,4.164539629427594,0.14126857436619603
41.12923999999999,4.150294525164525,0.14120539292863568
41.13383199999999,4.136538159758038,0.14109199555287708
41.13842399999999,4.122493283474633,0.14093292013993575
41.14301199999999,4.101907996629399,0.14094116566401083
41.147604,4.085287001717195,0.14082539009218237
41.152184,4.068666006804992,0.14070877591938918
41.156772,4.051023392730994,0.14062505297533115
41.16138399999999,4.0335029633711414,0.14052657292475726
41.165968,4.012018242078262,0.1405457132868558
41.170556,3.9975626702037905,0.1403433064285652
41.17515199999999,3.9846174563476953,0.14005375026219155
41.17973999999999,3.968973939148656,0.139821542786992
41.184336,3.9566837903119176,0.13953438485332895
41.18892399999999,3.9473363142464133,0.13916121165615705
41.19352799999999,3.9426081951332947,0.1386787590380466
41.198104,3.9387795104678234,0.13817452464632723
41.202696,3.9398145521830292,0.13753163073252042
41.207284,3.945591135564765,0.13676527410422862
41.21188399999999,3.953821652861153,0.13596649427978832
41.21648,3.9664271576816343,0.13508580129587405
41.22107999999999,3.9748240011407963,0.13434951526666858
41.22566399999999,3.9869407671046955,0.13352717058424238
41.23026,3.9988131636403037,0.1327297189537202
41.234868,4.0150605477000045,0.13185028006475474
41.239456,4.02530040150309,0.13114639540715037
41.24405599999999,4.041181231420356,0.13031783047474216
41.248652,4.057961495785267,0.12946601663290566
41.25324,4.074619575436033,0.12862945113425642
41.25783599999999,4.093853773715598,0.1277483597800357
41.26242399999999,4.111821983405077,0.12694323572367958
41.267012,4.1273804006285335,0.12624064949060199
41.2716,4.14514838233835,0.12553476668499639
41.27619599999999,4.160873125724579,0.12489507718792424
41.280792,4.1761091302542255,0.12431203318585682
41.28538799999999,4.187258658136698,0.12385215302524527
41.28997599999999,4.20008487020032,0.12337253235087928
41.29455199999999,4.214221212302656,0.12291609889224234
41.29914399999999,4.229134804138493,0.12246596350559383
41.303728,4.2459694495837725,0.12198039853006865
41.308316,4.258595433667731,0.12161692340211834
41.31291199999999,4.274819155542282,0.12119136922269873
41.31749999999999,4.291575757722043,0.12079479047932488
41.322096,4.311685728264105,0.1203655829124673
41.326692,4.32693197242549,0.12004438192911865
41.33128,4.350761865472289,0.11954430219225222
41.33587599999999,4.370505281871914,0.119161940072445
41.340468,4.39552312024328,0.11871332179901087
41.345064,4.4204187739005,0.1182768004584653
41.349652,4.447479850595454,0.11778769122501015
41.354252,4.470698820071524,0.11737786377700338
41.35884,4.496860462318829,0.11690749750721895
41.36343999999999,4.523510843422718,0.11639768974635603
41.36802799999999,4.551305028402545,0.11585563804236909
41.372624,4.5784441483630145,0.1153084229363208
41.37720799999999,4.6055832683234845,0.1147574336567554
41.381804,4.631945138550453,0.11421306538365024
41.386392,4.657119063452855,0.11364984622157774
41.390984,4.6784508811363725,0.11316495917488156
41.395572,4.697983829924595,0.11271375601830726
41.400168,4.721847624788283,0.11214930845000931
41.404756,4.743257485737319,0.11160395296900276
41.40935199999999,4.762335597485848,0.11107017453388625
41.41393999999999,4.779737025053229,0.1105564600706742
41.41853199999999,4.80236873314372,0.10991932013812904
41.42311999999999,4.81923728040589,0.1093929536209374
41.42770799999999,4.832508089877465,0.10891099304597504
41.43229999999999,4.839238488787216,0.10853493152453991
41.43688799999999,4.851076983505934,0.10805674445109202
41.44147999999999,4.860217174881709,0.10761743417302823
41.446064,4.8721778543145735,0.10713401035881169
41.450648,4.8841385337474374,0.10665667907844735
41.455256,4.896099213180302,0.10618378337681036
41.459844,4.906138839003725,0.10574305278224061
41.464432,4.915156845665353,0.105322724287132
41.469028,4.92646246007886,0.10484291233104293
41.473616,4.93968912810181,0.10433658460268168
41.47822,4.9516498075346735,0.10387299729524821
41.48281199999999,4.96295542194818,0.10339732869327867
41.48740399999999,4.970541113856952,0.102971282680082
41.49199599999999,4.975061948280342,0.10260719293255029
41.496592,4.981381651599027,0.10222385178003074
41.50117199999999,4.987579170203567,0.10185140964734396
41.505772,4.992344374055248,0.1014702803110555
41.51036799999999,4.999030631516371,0.10106704417746781
41.51496,5.006083443119931,0.1006338699959089
41.51954399999999,5.015301677761224,0.10014964586553955
41.52414,5.026152455135038,0.09959542382930861
41.528728,5.030462821947025,0.09913170621159399
41.533324,5.030686712111839,0.09874087993112635
41.537912,5.0301333525431495,0.09835061944272293
41.542504,5.026226624612161,0.09797799947988257
41.54708399999999,5.020398843071733,0.09763309019094649
41.551668,5.01967915734027,0.09719798997964109
41.556256,5.024067567417775,0.0966757672227335
41.56085199999999,5.027434358333486,0.09617380289251153
41.56544399999999,5.030801149249198,0.09567667686689978
41.570036,5.0336350598597,0.09515976159604364
41.57462399999999,5.041210512136731,0.09458640908075017
41.579204,5.052628071632644,0.09396138536924292
41.583784,5.068909357509236,0.09327509855897409
41.58839199999999,5.082492340042883,0.09261260490870667
41.59297999999999,5.095053703414736,0.09196692499464049
41.597592,5.109413935681886,0.09130900928422915
41.60218,5.117111572673064,0.09073491968846394
41.606788,5.128529132168978,0.09012675267443918
41.611376,5.1445660486172775,0.0894800579848855
41.61596799999999,5.161135845370788,0.08885490456738797
41.620564,5.178482891857801,0.08822999170874467
41.625156,5.2008158494396355,0.08753044898351114
41.62975199999999,5.224292610897408,0.08681073614886711
41.63434,5.250101121555689,0.08609863918727066
41.63894,5.279629554718705,0.08535654583904573
41.64351999999999,5.305071511234548,0.0846881552601676
41.64812,5.3274486102650105,0.08407717842254261
41.65270399999999,5.350602959028975,0.08347254394163187
41.65730799999999,5.371059004449994,0.08289041805900373
41.6619,5.395234972375752,0.08228276226108112
41.66649599999999,5.415446648368482,0.08172886626703561
41.67108,5.433981640180061,0.08118081832602714
41.67566399999999,5.448918894201051,0.08066208385931506
41.68025199999999,5.47051874349801,0.0800868261095348
41.684848,5.496205069442145,0.07946267383576991
41.68943599999999,5.521647025957988,0.07886064927519142
41.694032,5.550686720264422,0.07823806732153127
41.69862,5.574085438456678,0.07766511298986763
41.70322,5.590943746087107,0.0771462488932397
41.70780799999999,5.6089458575934765,0.07660951164765
41.7124,5.629113392137578,0.07604180043053141
41.71699599999999,5.651446349719413,0.0754490487757781
41.72158,5.671081003958303,0.07487179477161607
41.72617599999999,5.688383908996688,0.07428424918601242
41.730764,5.7042544992822135,0.07368864324265005
41.73535599999999,5.716649536491293,0.07309886383241586
41.739944,5.725202466481489,0.0725403281113065
41.744532,5.733222516166475,0.07196451231666025
41.74912799999999,5.738177708366082,0.0714203104759261
41.75371599999999,5.736225935861424,0.07094312356369584
41.75830399999999,5.737705574984584,0.07040838856182849
41.76290799999999,5.740739713574748,0.06988302355529177
41.767496,5.741974983269616,0.0693643404617713
41.77209999999999,5.737935830992744,0.06886278946024077
41.776696,5.731320560087073,0.06836591048638027
41.7813,5.725071843323837,0.0678474923176924
41.78588,5.717268627093599,0.06731983701766701
41.79048,5.711386464472803,0.06677539302510974
41.79506399999999,5.713310701003917,0.06617174888200704
41.799672,5.713558253353882,0.06556733653074284
41.80425599999999,5.71061876350432,0.0650013387008822
41.808856,5.700894493664641,0.06448358321157177
41.813448,5.6939907118820505,0.06394991172718538
41.81804399999999,5.691950656480138,0.06338298388184373
41.82263199999999,5.684924689983402,0.06285569569429439
41.827224,5.682518080439051,0.06230765190915677
41.83181199999999,5.68149964419893,0.06172318171323405
41.836408,5.6784379696352225,0.061157146569137434
41.840996,5.679829325861126,0.06052652791254965
41.84557999999999,5.683386105124763,0.05986309107512397
41.85016799999999,5.679791550255844,0.05926548773365783
41.854768,5.674764680634067,0.05864898017529106
41.859356,5.670392876031646,0.05804362428016675
41.863956,5.6645107134108486,0.05747629855583965
41.86854399999999,5.656218758324028,0.056949426732166866
41.87313199999999,5.645761380199475,0.05644876009888084
41.877728,5.63698068625607,0.05595269086557045
41.882316,5.632042099531549,0.05543747626028024
41.886904,5.616354440883883,0.05498879306711776
41.891496,5.60222128170322,0.05455215833088194
41.896084,5.589231926398497,0.05409675458394505
41.90068,5.581106297474451,0.05361064161718808
41.905268,5.5677503880272905,0.0531731096313967
41.909856,5.545977155857491,0.05281809676784585
41.91445199999999,5.524858988707048,0.05247343777192314
41.919052,5.502597017680666,0.052144296727600764
41.92364799999999,5.48266679585479,0.0518339036671479
41.928228,5.462492204600623,0.05153625450355169
41.93282799999999,5.441462320347436,0.05129127183953641
41.93741199999999,5.421331870541897,0.05104312438595256
41.942012,5.406964581564682,0.050766140630086484
41.94659599999999,5.391086934569089,0.05052666234382817
41.95119599999999,5.377008156468794,0.05028564040868323
41.95578799999999,5.363584443387856,0.05005870609188205
41.960384,5.350160730306916,0.04982999486901573
41.96496799999999,5.3318732908453015,0.04962444101536927
41.969564,5.310887548040743,0.04941812678861474
41.97415999999999,5.284915894141362,0.04924349464097218
41.97876,5.2626641627467174,0.04905723762224776
41.98335599999999,5.237225389152547,0.04890291507424892
41.987952,5.212441680577734,0.048762884859631705
41.99253199999999,5.187824298165693,0.048670110590531855
41.99711999999999,5.169092261296123,0.04854379092020679
42.001708,5.1554683202355225,0.04837576429197004
42.00630399999999,5.1446648672320086,0.04819833840363708
42.010896,5.129774937581322,0.048052714900783104
42.015488,5.110920715997606,0.0479312619435723
42.02008399999999,5.093620993880895,0.04782574107260859
42.024664,5.077465075640124,0.047703424343091716
42.029256,5.062863656866355,0.04759663113594423
42.033844,5.0471184342166495,0.04750546119519617
42.03843199999999,5.035215318785826,0.04739792554189223
42.043028,5.020247345869621,0.04731419633592615
42.047612,5.003724873486412,0.047213151716594466
42.052216,4.984137543617822,0.04713575461492127
42.056812,4.969291755415763,0.04704101076069213
42.0614,4.9510145555858855,0.04699601978614632
42.065992,4.929794682984775,0.04696741850188319
42.070588,4.909352060117166,0.04694711087584494
42.07518799999999,4.887232753068407,0.046917859770350026
42.07977999999999,4.864214011572,0.04688758741604436
42.08437999999999,4.833877609780263,0.04686644896981431
42.08895999999999,4.799454731341353,0.0468793547270959
42.09355999999999,4.761966995417062,0.04691817600252515
42.09814799999999,4.722680390597477,0.04695530608130583
42.102736,4.687602447139212,0.04694728211211924
42.10733199999999,4.649704015623856,0.04694988323632785
42.111924,4.611028334374998,0.04694382578318832
42.11652,4.567488926745464,0.046964146322643535
42.12111199999999,4.519330162163547,0.04699218151381622
42.12569999999999,4.466429855915097,0.047038644789368034
42.130296,4.407888573552468,0.04710093562931579
42.13488399999999,4.34574955339925,0.047166089008533175
42.139468,4.2846321524078235,0.04721778515816775
42.144056,4.226579608901778,0.04724201934245819
42.148648,4.167627630948086,0.047263234995600964
42.15323999999999,4.112884314355712,0.047235973113635546
42.15782799999999,4.06006205137278,0.04719947642671551
42.16241999999999,4.004541485046905,0.047161495965566645
42.16700799999999,3.949143103435175,0.04711029443581266
42.17159999999999,3.89080204905221,0.047078925935459134
42.17618799999999,3.833482613831039,0.04704035322749611
42.18076799999999,3.7746086791428635,0.046977693052401216
42.185364,3.7179001674924206,0.04687884641012739
42.189952,3.659026232804245,0.046814145235819754
42.19454,3.5941447678594542,0.046803397841010994
42.19913599999999,3.53130654123825,0.04677240177071611
42.203724,3.461272839035863,0.04673747990329295
42.20831599999999,3.390461887099974,0.04669048663805919
42.21289599999999,3.3187515007164374,0.046641350085431785
42.21749599999999,3.2488399832281964,0.04659712055749297
42.22208399999999,3.1759857929687203,0.04658498523951988
42.22668799999999,3.1051748410328317,0.046543082672779075
42.231276,3.0303995971639144,0.046540429486268256
42.235876,2.9556243532949975,0.046529620198671184
42.24047199999999,2.877129186921343,0.04652790381142795
42.245072,2.793648109452867,0.04658935306138904
42.249656,2.709267597536743,0.04665132638803456
42.254248,2.623987651172971,0.04671403572356186
42.258856,2.535642847323818,0.04683991171122662
42.263452,2.4475424129029566,0.04693022077059003
42.268056,2.3627512053957673,0.04690237546254484
42.272648,2.2759167595649905,0.04691048086254977
42.277236,2.1815202840105936,0.046967645453518586
42.281832,2.0845476898274,0.047030380256605976
42.28642,1.987697280358352,0.047105603532565966
42.291008,1.8927679244987445,0.04714116487304573
42.295596,1.804256794486818,0.04713663107262674
42.30019199999999,1.715623479760746,0.047173943791136805
42.304788,1.6287890339299698,0.047211399911398416
42.309368,1.5393784694703951,0.04487600375835434
42.31396399999999,1.4530327624962014,0.04250887802418505
42.31855199999999,1.3664426860937164,0.040160862238061874
42.32314399999999,1.282550913034175,0.03779635140517424
42.327728,1.1939175983081027,0.035451731623664724
42.332316,1.110680890267918,0.03310997102818895
42.33692,1.031530658874907,0.030728427222367006
42.341508,0.9521360580536045,0.02834755705501871
42.346096,0.8744181414134523,0.025967605524204188
42.35069199999999,0.80426225449692,0.023538405483122835
42.35528,0.7338619981520962,0.021134377291840093
42.35987599999999,0.6647718718459854,0.018838047219429215
42.364468,0.5955595608257289,0.016520567309508013
42.369064,0.5367297675861815,0.014180836309841446
42.373652,0.48456256962260624,0.011811337406567465
42.37824399999999,0.4390579669350029,0.009404726015349398
42.382832,0.39253174508560595,0.007039452463530741
42.387436,0.3475600227032134,0.0047183662940605865
42.39202799999999,0.30810709172085365,0.0023579228694304223
42.396612,0.2667780022445865,0.0
42.40119199999999,0.23084551945420645,0.0
42.405788,0.19838858974027218,0.0
42.41037599999999,0.16972887212968657,0.0
42.414972,0.14401182729033593,0.0
42.419564,0.12459082358452023,0.0
42.424148,0.1050925302800929,0.0
42.42874,0.0871487364426699,0.0
42.43331999999999,0.07304704982412966,0.0
42.437904,0.06176585126267865,0.0
42.442496,0.04946303353943412,0.0
42.447088,0.040880138320926664,0.0
42.451676,0.032297243102419215,0.0
42.456268,0.02935532399809021,0.0
42.460856,0.02424798185602849,0.0
42.46544799999999,0.018896270285675424,0.0
42.47005599999999,0.012400754839383164,0.0
42.474648,0.008603542736034461,0.0
42.479256,0.004928515346831432,0.0
42.48384,0.00035405350998054814,0.0
42.488432,0.00035405350998054814,0.0
42.49301599999999,0.00035405350998054814,0.0
42.49760399999999,0.00035405350998054814,0.0
42.5022,0.00027676391136892257,0.0
42.50678,7.728959861162557e-05,0.0
42.51137599999999,0.0,0.0
42.515956,0.0,0.0
42.52055599999999,0.0,0.0
42.52514,0.0,0.0
42.52973199999999,0.0,0.0
42.534328,0.0,0.0
42.53892,0.0,0.0
