Time,Force,Position
36.095168,1.6059564715202856,0.04457440474645102
36.099752,1.5199773186885293,0.04219103199475594
36.104352,1.4406607611327442,0.039790515789366744
36.108944,1.3623658227387532,0.03738995274355378
36.11354,1.2839486996306164,0.035027057970451414
36.118128,1.212316356512597,0.03262636359360369
36.122716,1.139418024804493,0.0302465108323163
36.127312,1.0653758892204497,0.027888615388033503
36.131908,0.9923553727981999,0.02551005048383761
36.136496,0.924076398042481,0.02308534199378626
36.141084,0.8614383994009402,0.020633031425502574
36.145672,0.7990889116363189,0.018258736997903067
36.150252,0.7399706075198519,0.015915159695838167
36.154852,0.6844500411939765,0.013574483676301072
36.159444,0.6304839743351054,0.011268958507137213
36.164028,0.5807707102861821,0.009006509171340306
36.168616,0.532734130418409,0.006789454937132325
36.173208,0.49238176498840136,0.004510360369670554
36.1778,0.45856981012022,0.0021997500434062507
36.182388,0.43309713470916067,0.0021997500434062507
36.186984,0.4066028401363079,0.0
36.191568,0.38562733696348783,0.0
36.19616,0.3627749216298545,0.0
36.200752,0.33960009360241233,0.0
36.20534,0.3206000251194006,0.0
36.209948,0.3043865428765886,0.0
36.21454,0.2964342968253812,0.0
36.219136,0.29392279890868905,0.0
36.223724,0.30044978691710356,0.0
36.22832399999999,0.3130725880793898,0.0
36.232912,0.3296257793578151,0.0
36.237508,0.3549730871330557,0.006572757507840918
36.242092,0.3865383927763138,0.013223696726792552
36.246692,0.422034088535711,0.02004696966626303
36.251276,0.46272616300133207,0.026993968669789765
36.255868,0.5093918659066792,0.03394975593156886
36.260464,0.5626862622711091,0.04095580163089399
36.265052,0.6160689415327951,0.04820101399961246
36.26964,0.6733820109106202,0.055432063346458615
36.274224,0.7328266015092887,0.06261459754467283
36.278812,0.7942805286146548,0.06999315178333623
36.283404,0.8606864649979535,0.07726430027299308
36.287992,0.9333884425147871,0.08441828840402035
36.292584,1.0177389264024148,0.09118043726888692
36.297176,1.1001242152319728,0.0979837585905389
36.301768,1.18197662375632,0.10490790054728363
36.30636,1.2633402934240847,0.11194529423496956
36.310948,1.3508778195112383,0.11881888314953873
36.31554,1.432652184770068,0.1258605944425581
36.320136,1.5110731816665974,0.13295722007949679
36.324724,1.5902272868480014,0.13998601378188577
36.329332,1.666394577809542,0.14047166054391197
36.33392,1.741373923446515,0.1408503146671665
36.338516,1.8143880740254188,0.14108502864453148
36.343108,1.8874022246043227,0.14124135607076843
36.347696,1.9602500490204526,0.14129609991285275
36.352284,2.031132678378513,0.14129566802146987
36.356876,2.1036478504690956,0.14102103002230246
36.36148,2.1720324044638755,0.14085516188906666
36.366068,2.234243102039266,0.14091379603414209
36.370664,2.2968203537570937,0.14082501201091002
36.375248,2.3570658562744153,0.14082142591003535
36.379848,2.4132248821445628,0.14106179736860308
36.384436,2.4592899011109206,0.14190406493124366
36.389032,2.510140603192437,0.14263066750872694
36.393628,2.563112586863058,0.1430958170614185
36.39822,2.614075234026981,0.14340028751730638
36.402812,2.6594749483422433,0.1438344839533889
36.407408,2.7057299556565244,0.1440957182574035
36.411996,2.751574267379741,0.14429728687212146
36.416592,2.794598091045869,0.14461315372229805
36.421184,2.83978733774973,0.14481207509132357
36.425776,2.8839549652917964,0.1450581643148627
36.430368,2.9291442119956566,0.14525129892511826
36.434952,2.976332555574476,0.1452626642063922
36.43954,3.0162032388579667,0.1455111742742324
36.444136,3.054397237960307,0.14579205251476363
36.448728,3.0909145528814976,0.1461094891254553
36.45332,3.1326621483258017,0.14619044589304767
36.457912,3.180295089312575,0.14602875693056772
36.4625,3.2316038113554577,0.14567739316702266
36.467096,3.281358033931336,0.14535338779135298
36.471676,3.330945930344441,0.14493638020520347
36.476264,3.3849868575471564,0.14427934610136645
36.48086,3.4342421016347138,0.14371645974051142
36.485448,3.4839080413133354,0.1432313407499137
36.490044,3.534761926316525,0.14278583292190258
36.49464,3.5830396926909165,0.14240053663574662
36.499228,3.635037381570045,0.14192788443213428
36.503824,3.688833939344469,0.1414218129038923
36.50842,3.744918104870772,0.14081998891913167
36.513012,3.801368824539511,0.1402160820974254
36.517604,3.8585526524931244,0.13954191319533346
36.522204,3.9153257848556726,0.13885327306013756
36.526792,3.964781256922893,0.1383583153907583
36.531396,4.018567575065579,0.13768503696549939
36.53598,4.072065382331344,0.13696752626412692
36.54058,4.124497428986689,0.13622031325004705
36.545176,4.169734000060851,0.1356547604920912
36.549772,4.21222812634344,0.13509961882464638
36.554364,4.248670580920787,0.13467408126657365
36.558956,4.282370590706561,0.13423678921498416
36.563544,4.320401446567801,0.13366306528069757
36.568144,4.356467107370971,0.13308147115875812
36.572732,4.394043126192518,0.13242763210389744
36.577328,4.4286323307942,0.13179977210781252
36.581916,4.462277959499609,0.1311323486591481
36.586508,4.495635077328097,0.13042080374097315
36.591096,4.523673631736216,0.12975080684591941
36.595692,4.546027068581528,0.12914063143289836
36.600284,4.562695387864033,0.12859076357988283
36.604864,4.5711466124035605,0.12820173163146906
36.60946,4.57624446858079,0.12785729547585165
36.614048,4.578477695252301,0.12751050796483238
36.618644,4.583365083818129,0.1270499927905099
36.623232,4.5857985384693025,0.12661582386241346
36.62782,4.5869218630817645,0.12616814794655248
36.632416,4.5894333609984574,0.12566338947304068
36.637004,4.593699586361816,0.125063332067905
36.641608,4.592691389753434,0.12454301703057302
36.6462,4.586286586459165,0.12411107346176088
36.650788,4.582824455936133,0.12361019264089076
36.655392,4.574332272869649,0.12316950356017205
36.65998,4.564529959764451,0.12271272619048047
36.664584,4.5513742782969535,0.12229143067451405
36.669164,4.532821990143571,0.12195634307630722
36.67376,4.512593017809035,0.12163659613208967
36.678352,4.494407283798088,0.12126231721119145
36.682948,4.472790138159324,0.12099653110992084
36.687532,4.455137284453587,0.12063597339165445
36.692132,4.439405484357292,0.1202319790026651
36.696716,4.429148334212402,0.11966149146819906
36.701312,4.4183583037623,0.11906791217713263
36.705904,4.4065466541504055,0.11849659591819965
36.7105,4.390648527891337,0.11802535671592376
36.715096,4.376016390222354,0.11750270740643967
36.719684,4.364082555896313,0.1169365562887004
36.724272,4.346141191313658,0.11650974498979663
36.72886,4.32627877312156,0.11611848148208224
36.733448,4.311035711881847,0.11564278816207282
36.738032,4.301555811470459,0.11504316791292699
36.742624,4.286557119659038,0.11453684139466415
36.747216,4.270536808685824,0.11405203732391432
36.751812,4.256070997179614,0.11356018745670185
36.756392,4.243159685140408,0.11306173477714192
36.760988,4.236910968377174,0.11242978902764643
36.765576,4.231439501347443,0.11179497345937374
36.770172,4.224702045727626,0.1112094735307314
36.774768,4.221928882040839,0.11053142160926975
36.779356,4.216745925888025,0.10993854985879555
36.783952,4.212095850040424,0.10936649482845967
36.788548,4.20389217785086,0.10891383149307693
36.79314,4.198675319881158,0.1084672525715716
36.797724,4.194646407236024,0.10805139279128174
36.802324,4.195114666829129,0.10756832943892913
36.806916,4.192151514794417,0.10719233388446958
36.811504,4.184080266950737,0.1069394795739676
36.8161,4.180506191345296,0.10661990063721367
36.820688,4.177997876350277,0.10634401492413599
36.825288,4.172957584175088,0.1061657391732466
36.829868,4.170004671772115,0.10600795032067907
36.834468,4.170938008036651,0.10584330973868758
36.839052,4.174735973806906,0.10569779430773214
36.843648,4.174980343235198,0.10567408363079869
36.84824,4.1765348427022015,0.10567184217015141
36.852836,4.180054537227275,0.10570227833970225
36.857432,4.183984927343415,0.10576672438288652
36.862032,4.189347632212412,0.10584124705473602
36.86662,4.196020467120123,0.10593755033895344
36.871216,4.207312658980219,0.10596339211646894
36.875804,4.222979838364408,0.1059439952040022
36.880396,4.244943058882131,0.1058456629703853
36.884976,4.264985225790415,0.10578219117434778
36.88956,4.285926827146346,0.10570691347671973
36.894156,4.310710535721159,0.10557184931552212
36.89874399999999,4.342934089305447,0.10532876560633872
36.903336,4.3825974878992096,0.10497860435462533
36.907924,4.426347363140145,0.10455674399069398
36.912516,4.473406465294753,0.10405647965418262
36.917112,4.523774794363032,0.10347448712846784
36.9217,4.576797285325627,0.10282330690928773
36.926292,4.632351753468391,0.1021020288416836
36.930884,4.685818841838941,0.10136318105597175
36.935472,4.744638395446751,0.10050583474274243
36.940068,4.799571700387048,0.09964582423607737
36.944656,4.845877214993305,0.09885609171892866
36.949252,4.8898509803990535,0.09806399770885928
36.953828,4.929694127709001,0.09728927005073583
36.958428,4.9675720799608785,0.09648895339768224
36.963016,4.997599491612218,0.09575678547349759
36.967616,5.021941785700749,0.09504971832242552
36.972208,5.0376562894552395,0.09440685795183552
36.976808,5.054348270922896,0.093686861795527
36.981392,5.069197242046628,0.09292482635891554
36.985984,5.077750172036826,0.0922321685011029
36.990576,5.081517418911863,0.09154944695131585
36.995172,5.079599548224094,0.09088127678402942
36.99976,5.069586767507495,0.0902869982376117
37.004356,5.054177380105008,0.08973937120002055
37.008944,5.032227582140696,0.08926281089165139
37.013532,5.0018163200051164,0.0888812634284906
37.01812,4.9658862664695045,0.08855071677944178
37.0227,4.930977832095685,0.08819884755741626
37.027296,4.893248909664776,0.08787424278919424
37.031888,4.861160963348046,0.08748359845265143
37.036484,4.834713993145493,0.08702794972021337
37.041076,4.811331880428322,0.08652012185416613
37.04566,4.789748636606447,0.08599477469737767
37.050248,4.7695977075374305,0.08548226087218774
37.054832,4.753821765992508,0.08494057943936305
37.05944,4.737434900876856,0.08444279824167
37.064028,4.727466261608885,0.08388454364412154
37.068624,4.717786133217834,0.08336780637093646
37.073212,4.711215003760792,0.08286287183778261
37.0778,4.705298939323106,0.08236802024597678
37.082396,4.698649766600545,0.08192883245817366
37.086988,4.693188539202552,0.0815232534296056
37.091584,4.690958495452714,0.08111857611184749
37.09616,4.694125058388764,0.08067717438741365
37.10076,4.7084513888390225,0.08013694840850169
37.10534,4.727807771832733,0.07958768795289402
37.10994,4.752438576798183,0.0790144020104654
37.114528,4.775681208459404,0.07848648966780966
37.119128,4.797780036244685,0.07798471124294262
37.123712,4.818368506011591,0.07754454546073909
37.128304,4.839612040797854,0.0771237230778338
37.132896,4.862287890336974,0.07672753437811519
37.137492,4.889705281542626,0.07629321851058188
37.14208,4.9159788688723385,0.07588458451515692
37.14668,4.9469939978685815,0.07544169090721665
37.151268,4.9828728532455,0.07495042179920146
37.155856,5.019284588927629,0.07449095300585225
37.160444,5.05455252073382,0.07405655893973839
37.16504,5.090719886987658,0.07362584633200023
37.169632,5.131628794908028,0.0731616096426139
37.174224,5.176501994761426,0.07265848384307373
37.17882,5.220231390738885,0.07217593586188135
37.183408,5.26768070922108,0.07167485572329117
37.188008,5.317051081312716,0.07117305602282048
37.192596,5.364622584509057,0.07070013507402581
37.197188,5.412438457133689,0.07021684377294836
37.201776,5.458211091434735,0.06976318341810935
37.20636399999999,5.510646321011752,0.0692679518976292
37.21096,5.5668014730935065,0.06875549713265017
37.215548,5.622545929584195,0.06822163405388024
37.220136,5.6782903860748855,0.06769611132853506
37.224732,5.731214354508484,0.06719436022019096
37.229332,5.780051846294911,0.06674401764741944
37.233924,5.832076380280862,0.06625945387175289
37.238512,5.881158241495579,0.0658107356709452
37.243108,5.930362287424442,0.06536508929360701
37.247696,5.978134018600446,0.06490954887778594
37.252296,6.028071172814182,0.06443032543832632
37.256884,6.075310023684977,0.06396443803628925
37.261484,6.1217716248222676,0.06350454270704936
37.266068,6.167211606797765,0.06306167769164309
37.270664,6.219802922905817,0.06256025659870369
37.27524,6.272760793156307,0.062049831304330526
37.279836,6.317012829807236,0.061596222803199
37.284432,6.352026152553397,0.06117992111530168
37.289028,6.383563922223113,0.06076666360653469
37.293616,6.415712615463555,0.0603222889149924
37.298204,6.441687452284611,0.05988994735998791
37.302792,6.465208355191012,0.059453195839478876
37.307392,6.486930389202119,0.059022273665215175
37.31198,6.503255816527337,0.058600530861641964
37.316572,6.517005125223758,0.05817539052219888
37.321168,6.530221553614967,0.05773137811355691
37.325756,6.538818625053793,0.05730343102667304
37.330352,6.541119655359083,0.056883899153719476
37.334932,6.537779709550195,0.05648634651868973
37.339524,6.528554418198836,0.056121518840633065
37.34412,6.515975758485179,0.05574761777835175
37.348708,6.506706325685192,0.05533780039756837
37.353316,6.487953809552145,0.05496314811631217
37.357904,6.465070675323297,0.05457170517514356
37.362516,6.43090558886609,0.054216453566700726
37.367108,6.3816164429616435,0.053910827408954046
37.371712,6.331794416751986,0.05358143279344093
37.376308,6.2827496402758305,0.05325295590301558
37.380896,6.234482113533178,0.052926951201892045
37.3855,6.180329241248056,0.0526289780576236
37.390092,6.122212077029904,0.052350000136238535
37.394688,6.06307329364996,0.05207400031559925
37.399276,5.9998480336228415,0.051824352227164125
37.403876,5.939443261652812,0.05156066051182459
37.408464,5.879038489682783,0.05129212881835566
37.413064,5.81593541436981,0.05101897866310935
37.417656,5.751810719895045,0.0507480079544593
37.42226,5.6911615784967235,0.0504783532908892
37.426852,5.628713568203107,0.05020333673919031
37.431448,5.569208230680727,0.04990784038569306
37.436044,5.506149296816382,0.049661429755941414
37.440636,5.430175867991157,0.04949015615668361
37.445232,5.358821796118319,0.049306370256944725
37.449824,5.2877562351224,0.04915562616095416
37.454428,5.220288411917071,0.04899823534442921
37.459016,5.1638581715118095,0.04881932333037985
37.463604,5.109881865021199,0.04865262540464415
37.468196,5.0557833738164435,0.04849121583682921
37.472784,4.998864394554599,0.04833463482939298
37.477372,4.940801611416816,0.04819239423535488
37.48196,4.885437131621975,0.04804613059798897
37.486556,4.8239429368563735,0.047951505621325954
37.49114,4.763348176538421,0.04785528069475617
37.495728,4.700587993182735,0.04778233263125089
37.500328,4.635662386789315,0.04773495636553379
37.504916,4.569470791805811,0.04771109043608701
37.509508,4.503034827394016,0.0477032132702373
37.514096,4.431979506029835,0.047703465631609626
37.518684,4.363255933866161,0.04773159702735757
37.52328,4.2924891233789,0.047776706334702476
37.527868,4.2237655512152275,0.04780567587571207
37.53246,4.160927324594023,0.047797122169807325
37.537052,4.096290229077523,0.047785169996487305
37.541644,4.029854264665729,0.04777297121794012
37.546248,3.9622744963779932,0.04777858474717279
37.550844,3.8937952936426106,0.047780379900786416
37.55544,3.824661025887872,0.04775611768728687
37.560028,3.758469430904368,0.047706072138272514
37.564628,3.6921556512067184,0.047664040560290645
37.569216,3.6285401748520125,0.047625447021307006
37.57382,3.561982025726072,0.04760863934321552
37.578408,3.5005319724090977,0.047534343345816146
37.583008,3.4381824846444773,0.04745759948914285
37.5876,3.3721130743751186,0.04739218223063775
37.592196,3.3079647177152016,0.04731496662366709
37.596784,3.2445936107887867,0.04725152959672373
37.60138,3.1794236349670766,0.04718585786250672
37.605968,3.1170741472024552,0.0471019390584509
37.61056,3.054191779132623,0.04697055558178639
37.61514,2.993352649386378,0.04680250647909536
37.619728,2.931980639334922,0.046576198821095954
37.624308,2.87048644456932,0.04635483035078252
37.628912,2.8041285234230426,0.046168061757451355
37.633496,2.734172864486173,0.0459669442767814
37.638088,2.6593534791686273,0.045817866898633285
37.64268,2.578893117736904,0.045694281105100085
37.647268,2.497411137143387,0.04556444208187906
37.651864,2.4091443765597513,0.04549987578030264
37.656452,2.320100366242614,0.04539740614853843
37.661044,2.231422910067914,0.045212595907884685
37.665636,2.1438892577691533,0.044968376076612575
37.670228,2.0525134982515088,0.04472465701019734
37.674832,1.9630587923433067,0.04442965432086302
37.67942,1.8764245744921935,0.04409650235516861
37.684008,1.789912541355226,0.04369975791404661
37.688612,1.7044221273800517,0.04326122236779002
37.6932,1.618809528690732,0.042819497334063615
37.697796,1.5333191147155578,0.04050345185985955
37.702384,1.4464405274361534,0.03822351457862578
37.70698,1.3546982137760726,0.0359799988175276
37.711568,1.2624671612594092,0.03379455206219074
37.716168,1.1692144895809518,0.03161589505396573
37.72076,1.0891648237402933,0.029414843318346904
37.725352,1.0152890143190239,0.027228381522038613
37.729936,0.9490974193355198,0.024990067314622697
37.734532,0.8866257468567529,0.022739068530415445
37.73912,0.8258307585591361,0.02052058501120437
37.743716,0.7745188535945804,0.0182630311645892
37.748308,0.7254165131163857,0.016045138807400074
37.752896,0.6758254337816081,0.013897484990408259
37.757484,0.6261121697326848,0.011797336997665735
37.762068,0.5808960779220008,0.0097254623626959
37.766648,0.53531343196888,0.00770747897490754
37.771244,0.4894864165874676,0.005716441794760201
37.775836,0.4462355198348532,0.003790495428068954
37.780424,0.4076039800346238,0.0018925417811909017
37.78502,0.3755128507962206,0.0
37.789612,0.34460966688238476,0.0
37.79420399999999,0.3158719060062817,0.0
37.798792,0.2971501087684507,0.0
37.803388,0.2839471029306524,0.0
37.807984,0.273320215721652,0.0
37.812576,0.2539874949130926,0.0
37.817176,0.23657582771397456,0.0
37.82175599999999,0.22006359496250433,0.0
37.826348,0.2033069927827428,0.0
37.83094,0.18834925949827702,0.0
37.83553199999999,0.17339152621381118,0.0
37.840136,0.15969978151943026,0.0
37.844732,0.1499723287580777,0.0
37.849324,0.1465409171302601,0.0
37.853916,0.14298732078829685,0.0
37.858508,0.14519688527465774,0.0
37.863088,0.15599009864643196,0.0
37.867688,0.16408500867526263,0.0
37.87228,0.1694816153611497,0.0
37.876876,0.17295716843759545,0.0
37.881468,0.1788425139800652,0.0
37.886064,0.19114608537021566,0.0
37.89066,0.19715361562683112,0.0
37.895252,0.1995634080928552,0.0
37.899856,0.2077363613872034,0.0
37.904452,0.21783036829099295,0.0
37.90904,0.2261255062994868,0.0
37.913628,0.2323774059843936,0.0
37.918216,0.24643570482121158,0.0
37.922812,0.2584507653344425,0.0
37.9274,0.2615156228198231,0.0
37.931996,0.26470266501934936,0.0
37.936588,0.26621302303772554,0.0
37.941176,0.26298183938957115,0.0
37.945776,0.26077227490321025,0.0
37.950364,0.2567638415215537,0.0
37.95496,0.24621499757807078,0.0
37.959548,0.23836445697753145,0.0
37.964124,0.22937011250105296,0.0
37.96872,0.21935414886278093,0.0
37.9733,0.2070505774726305,0.0
37.977888,0.18879626789428636,0.0
37.982484,0.1732402616588857,0.0
37.987076,0.15948312431878078,0.0
37.991672,0.14200606447393882,0.0
37.99626,0.1264500582385382,0.0
38.00086,0.11179348645078545,0.0
38.005448,0.0981585338248262,0.0
38.010048,0.07965985481819068,0.0
38.014632,0.0632044141351422,0.0
38.019232,0.053655938156357046,0.0
38.023828,0.04488471191107407,0.0
38.02842,0.03887718165445861,0.0
38.033012,0.03785556249266509,0.0
38.037604,0.03593450888322371,0.0
38.042196,0.03197021695019529,0.0
38.046792,0.0326252819695518,0.0
38.05138,0.03700026949364538,0.0
38.055972,0.044195745074828194,0.0
38.060564,0.051513405370156674,0.0
38.065152,0.059075435093776496,0.0
38.06974,0.06784666133905946,0.0
38.074332,0.07943837564143166,0.0
